Raman_Shift_cm-1,AFG_Expt05_SM_Avg
99.43237,0
100.3966,0.373830325
101.3608,-0.135213263
102.3251,-0.2228381
103.2893,0.9303277
104.2535,2.28438429
105.2178,3.0555476
106.182,2.501928325
107.1462,1.13247085
108.1105,0.330180525
109.0747,-0.005887925
110.0389,-0.085533
111.0032,-0.322145825
111.9674,-0.8133544
112.9316,-1.0929945
113.8959,-1.10693595
114.8601,-0.867632325
115.8243,-0.4699942
116.7886,0.378526285
117.7528,1.101200125
118.717,1.523005
119.6813,1.590292075
120.6455,1.508125225
121.6097,1.32548154
122.574,1.097780975
123.5382,0.825422025
124.5024,0.4890453
125.4667,0.201090875
126.4309,0.12440305
127.3951,0.220939975
128.3594,0.4267625
129.3236,0.63268555
130.2878,0.837643
131.2521,1.165392625
132.2163,1.745747425
133.1805,2.45259675
134.1448,2.54668495
135.109,1.3178543
136.0732,0.310166618
137.0375,-0.097282758
138.0017,0.15272217
138.9659,0.449845
139.9302,0.571801575
140.8944,0.594358718
141.8586,0.51723975
142.8229,0.3378377
143.7871,0.21947105
144.7513,0.4130058
145.7156,0.775385018
146.6798,1.149518525
147.644,1.34527875
148.6083,1.28135375
149.5725,0.973202
150.5367,0.33736446
151.501,-0.417287825
152.4652,-0.704687525
153.4294,0.301191658
154.3937,0.934753875
155.3579,0.924771
156.3221,0.344995985
157.2864,-0.155184675
158.2506,-0.392717425
159.2148,-0.552358225
160.1791,-0.672534
161.1433,-0.764572075
162.1075,-0.784433675
163.0718,-0.6094354
164.036,-0.36133385
165.0002,-0.195496343
165.9645,-0.245739725
166.9287,-0.4626007
167.8929,-0.251334725
168.8572,0.38405725
169.8214,1.1270549
170.7856,1.5438717
171.7499,1.39832685
172.7141,1.204925173
173.6783,0.89193805
174.6426,0.518865256
175.6068,0.233087925
176.571,0.29777872
177.5353,0.3054093
178.4995,0.0734604
179.4637,-0.365967575
180.428,-0.787015925
181.3922,-0.813234775
182.3564,-0.71948975
183.3207,-0.62352425
184.2849,-0.5796585
185.2491,-0.566184825
186.2134,-0.5251527
187.1776,-0.48297425
188.1418,-0.456800875
189.1061,-0.4602401
190.0703,-0.502335008
191.0345,-0.538125325
191.9988,-0.715605455
192.963,-0.768180475
193.9272,-0.440158225
194.8915,0.496575925
195.8557,1.49297905
196.8199,2.32853305
197.7842,3.14635975
198.7484,4.1950525
199.7126,5.9896025
200.6769,7.685976
201.6411,8.80160225
202.6053,9.26106175
203.5696,9.03403925
204.5338,7.7892775
205.498,5.80347825
206.4623,4.19062525
207.4265,3.17244525
208.3907,2.747230325
209.355,2.915957
210.3192,4.10058925
211.2834,5.32328025
212.2477,6.366271
213.2119,7.2239595
214.1761,7.8255335
215.1404,8.183365
216.1046,8.349923
217.0688,8.13581825
218.0331,7.40113175
218.9973,7.0536535
219.9615,8.1191755
220.9258,9.84147175
221.89,11.71749325
222.8542,13.30558
223.8185,14.4813625
224.7827,14.9319975
225.7469,14.6763525
226.7112,13.8637625
227.6754,12.7175725
228.6396,11.225945
229.6039,9.2526235
230.5681,6.27569125
231.5323,2.98921175
232.4966,0.6603953
233.4608,0.15826185
234.425,0.06997915
235.3893,0.386775
236.3535,0.885109375
237.3177,1.201387775
238.282,0.7039662
239.2462,0.08084378
240.2104,-0.191945025
241.1747,-0.0562538
242.1389,0.30203335
243.1031,0.281833625
244.0674,-0.033447675
245.0316,-0.21169435
245.9958,-0.050853
246.9601,0.47948965
247.9243,0.761594175
248.8885,0.714387125
249.8528,0.561294225
250.817,0.24827275
251.7813,-0.320872825
252.7455,-0.49719455
253.7097,0.367153825
254.674,1.2705746
255.6382,1.611105525
256.6024,1.042099525
257.5667,0.114577475
258.5309,-0.68103425
259.4951,-1.254726725
260.4594,-1.39505241
261.4236,-0.915676975
262.3878,0.0379219
263.3521,0.035842125
264.3163,-0.99313825
265.2805,-2.079877
266.2448,-1.9178745
267.209,0.953113175
268.1732,2.64395125
269.1375,2.6781535
270.1017,1.7954895
271.0659,0.92453765
272.0302,0.2095262
272.9944,-0.156745175
273.9586,0.1807635
274.9229,0.837194
275.8871,1.17862825
276.8513,0.2393992
277.8156,-1.0128252
278.7798,-1.372639625
279.744,-0.881553925
280.7083,-0.02173325
281.6725,0.09834265
282.6367,-0.60424615
283.601,-1.0958863
284.5652,-1.23712055
285.5294,-1.077967325
286.4937,-0.840449575
287.4579,-0.224564775
288.4221,0.170472775
289.3864,0.134625325
290.3506,-0.280315725
291.3148,-0.64849885
292.2791,-0.5844433
293.2433,-0.518248728
294.2075,-0.691518875
295.1718,-1.1030325
296.136,-1.49190325
297.1002,-1.17293125
298.0645,-0.6178851
299.0287,-0.25062938
299.9929,-0.241361233
300.9572,-0.530821705
301.9214,-0.724664273
302.8856,-0.907094285
303.8499,-0.9223659
304.8141,-0.58482528
305.7783,0.20798065
306.7426,0.660919175
307.7068,0.547621
308.671,0.358598675
309.6353,0.3149643
310.5995,0.48356628
311.5637,0.6145641
312.528,0.468450125
313.4922,0.251881375
314.4564,0.168239569
315.4207,0.3298875
316.3849,0.542345
317.3491,0.050997925
318.3134,-0.863088893
319.2776,-1.5171406
320.2418,-1.352504175
321.2061,-0.1596147
322.1703,0.48351775
323.1345,0.295911025
324.0988,-0.02145465
325.063,0.02716445
326.0272,0.57279635
326.9915,0.9476296
327.9557,1.1567962
328.9199,1.211836075
329.8842,1.0524675
330.8484,0.5937697
331.8126,0.212905825
332.7769,0.3033821
333.7411,0.61489565
334.7053,0.88985556
335.6696,0.903724725
336.6338,0.69376909
337.598,0.4842151
338.5623,0.25528145
339.5265,0.2906687
340.4907,0.948301825
341.455,2.64526025
342.4192,3.8760985
343.3834,4.41847775
344.3477,4.7542105
345.3119,5.20799975
346.2761,5.64568875
347.2404,6.7537335
348.2046,8.3737945
349.1688,10.7204825
350.1331,14.0503625
351.0973,18.5703125
352.0615,24.1488875
353.0258,31.35786
353.99,39.0886375
354.9542,45.4290025
355.9185,48.4099825
356.8827,47.474855
357.8469,44.6178175
358.8112,39.7485725
359.7754,33.8110325
360.7396,27.6753725
361.7039,20.836685
362.6681,15.2264625
363.6323,10.65254875
364.5966,7.03314575
365.5608,4.4104095
366.525,2.954033678
367.4893,2.2650154
368.4535,2.313576575
369.4177,2.64893625
370.382,2.7980505
371.3462,2.368142275
372.3104,1.6259395
373.2747,1.2940486
374.2389,1.28111245
375.2031,1.317158625
376.1674,1.1121971
377.1316,0.54192645
378.0958,0.25023195
379.0601,0.4887719
380.0243,0.788504725
380.9885,0.64520675
381.9528,-0.299131525
382.917,-0.7596253
383.8812,-0.291464818
384.8455,0.45045555
385.8097,0.981379
386.7739,1.05316625
387.7382,0.9204049
388.7024,0.78529165
389.6666,0.724190603
390.6309,0.84502505
391.5951,1.211608975
392.5593,1.71888675
393.5236,1.832071775
394.4878,1.57762385
395.452,1.2219155
396.4163,1.004916325
397.3805,1.048026225
398.3447,0.936893475
399.309,0.41882565
400.2732,-0.01492195
401.2374,-0.040412302
402.2017,0.445855
403.1659,0.894191725
404.1301,1.137188925
405.0944,1.26927805
406.0586,1.288006725
407.0228,1.205822895
407.9871,1.131549
408.9513,1.253069225
409.9155,1.4780035
410.8798,1.7520125
411.844,2.05724975
412.8082,2.40767135
413.7725,2.6990953
414.7367,2.825955
415.7009,3.0269715
416.6652,3.56285175
417.6294,4.46469425
418.5936,4.8273415
419.5579,4.092131
420.5221,3.359503
421.4863,2.921591
422.4506,2.79957375
423.4148,2.772820275
424.379,2.70106585
425.3433,2.666759275
426.3075,2.5676965
427.2717,2.48730925
428.236,2.6756235
429.2002,3.7788085
430.1644,5.7354125
431.1287,8.04668025
432.0929,10.6261785
433.0571,13.488815
434.0214,16.7341875
434.9856,20.96552
435.9498,24.7757125
436.9141,28.4133075
437.8783,31.641585
438.8425,33.9590875
439.8068,35.3843475
440.771,35.031995
441.7352,32.014345
442.6995,27.2219575
443.6637,21.886995
444.6279,16.9117525
445.5922,12.825435
446.5564,10.1125715
447.5206,8.61962175
448.4849,7.83041975
449.4491,7.092263
450.4133,6.36239625
451.3776,5.70078575
452.3418,5.286901
453.306,4.876565
454.2703,4.164506
455.2345,2.91772175
456.1987,2.13166575
457.163,1.8833862
458.1272,1.9402491
459.0914,2.254807025
460.0557,2.84818955
461.0199,3.3275063
461.9841,3.271712375
462.9484,2.9470103
463.9126,2.504099125
464.8768,2.049634525
465.8411,1.637670275
466.8053,1.64143524
467.7695,1.965992
468.7338,2.33456125
469.698,2.71137075
470.6622,3.119779128
471.6265,3.220433925
472.5907,2.722457075
473.5549,2.279216
474.5192,1.9160994
475.4834,1.640885255
476.4476,1.554266355
477.4119,2.1598355
478.3761,2.771511
479.3403,3.166893
480.3046,3.24248725
481.2688,2.8889
482.233,1.797692975
483.1973,0.247376973
484.1615,-0.851329925
485.1257,-1.4113098
486.09,-1.5132677
487.0542,-1.30763725
488.0184,-0.616593275
488.9827,-0.112504675
489.9469,0.25701725
490.9111,0.420050159
491.8754,0.21728375
492.8396,-0.602328305
493.8038,-1.169119
494.7681,-1.29593
495.7323,-1.05853725
496.6965,-0.33869925
497.6608,0.915139725
498.625,2.078089
499.5892,2.013582
500.5535,1.301470975
501.5177,0.5824859
502.4819,0.21743645
503.4462,0.19058145
504.4104,0.239946585
505.3746,0.3691811
506.3389,0.355206383
507.3031,0.080339045
508.2673,-0.41826035
509.2316,-0.882554
510.1958,-1.443913175
511.16,-1.68183595
512.1243,-1.2993399
513.0885,-0.578038975
514.0527,-0.132345525
515.017,-0.615831675
515.9812,-1.164349125
516.9454,-1.0157616
517.9097,-0.33242886
518.8739,0.543113
519.8381,1.25937655
520.8024,1.6688803
521.7666,1.1143425
522.7308,-0.55098575
523.6951,-2.268153175
524.6593,-3.0068892
525.6235,-2.41307535
526.5878,-1.838804425
527.552,-1.318088525
528.5162,-0.798387175
529.4805,-0.236832523
530.4447,0.35779335
531.4089,0.848547275
532.3732,1.341003533
533.3374,1.533014675
534.3016,0.956757525
535.2659,-0.266413875
536.2301,-1.461093175
537.1943,-1.311291575
538.1586,-0.175451805
539.1228,0.515535
540.087,0.5249305
541.0513,0.09722975
542.0155,-0.2298135
542.9797,-0.5224059
543.944,-0.485524725
544.9082,0.2956582
545.8724,1.217743475
546.8367,1.570217875
547.8009,1.0225807
548.7651,0.286825425
549.7294,-0.56661379
550.6936,-1.256188275
551.6578,-1.435350723
552.6221,-0.97816935
553.5863,-0.3315026
554.5505,-0.63084715
555.5148,-1.331333925
556.479,-1.46860775
557.4432,-0.64337125
558.4075,0.772177775
559.3717,1.03447195
560.3359,-0.973549
561.3002,-2.2533538
562.2644,-2.18697645
563.2286,-1.284710875
564.1929,-0.560681085
565.1571,-0.0084672
566.1213,0.13539125
567.0856,-0.5863244
568.0498,-1.538850973
569.014,-2.01418915
569.9783,-1.577304073
570.9425,-0.729435675
571.9067,-0.089139548
572.871,0.39741445
573.8352,0.75524255
574.7994,0.9852005
575.7637,1.066733525
576.7279,0.930541225
577.6921,0.490527425
578.6564,0.168270215
579.6206,0.2328545
580.5848,0.583943475
581.5491,0.653736175
582.5133,-0.2403494
583.4775,-0.828199068
584.4418,-0.49968735
585.406,0.27120153
586.3702,0.678386725
587.3345,0.084741975
588.2987,-0.7436485
589.2629,-0.95159095
590.2272,-0.7322671
591.1914,-0.316842675
592.1556,0.119757
593.1199,0.552709075
594.0841,0.73678425
595.0483,0.73317575
596.0126,0.4951234
596.9768,-0.131746
597.941,-1.0737252
598.9053,-1.68291005
599.8695,-1.841694625
600.8337,-1.7449967
601.798,-1.087769253
602.7622,-0.2613792
603.7264,0.03250585
604.6907,-0.86278065
605.6549,-1.86719125
606.6191,-2.0770195
607.5834,-1.71034025
608.5476,-1.04328445
609.5118,-0.291835725
610.4761,0.49135085
611.4403,1.0787353
612.4045,1.59247975
613.3688,1.7581255
614.333,1.14564735
615.2972,-0.178648375
616.2615,-0.799508625
617.2257,0.168488975
618.1899,0.9539025
619.1542,1.222988875
620.1184,1.1383307
621.0826,1.03817225
622.0469,1.0877947
623.0111,1.177701325
623.9753,1.261991225
624.9396,1.325339675
625.9038,1.3830353
626.868,1.431599375
627.8323,1.397202175
628.7965,0.5937515
629.7607,-0.99031065
630.725,-2.0014725
631.6892,-1.5526595
632.6534,0.161241225
633.6177,1.31378845
634.5819,1.34042075
635.5461,1.26803825
636.5104,1.152674
637.4746,1.03491275
638.4388,0.955984498
639.4031,0.960239475
640.3673,0.9458024
641.3315,0.772938625
642.2958,0.5199959
643.26,0.329217523
644.2242,0.284820625
645.1885,0.314372968
646.1527,-0.061431925
647.1169,-0.85220745
648.0812,-1.14667735
649.0454,-0.41494295
650.0096,0.9526695
650.9739,1.6073678
651.9381,0.91328745
652.9023,0.4360702
653.8666,0.368665075
654.8308,0.503970975
655.795,0.59682925
656.7593,0.532083918
657.7235,0.55172505
658.6877,1.266444325
659.652,2.00512005
660.6162,2.016193275
661.5804,1.096665955
662.5447,-0.290419725
663.5089,-1.1239754
664.4731,-1.37679525
665.4374,-1.35710145
666.4016,-1.002862525
667.3658,-0.4875885
668.3301,-0.091366705
669.2943,0.181342325
670.2585,0.363270675
671.2228,0.2736992
672.187,0.213352965
673.1512,0.52661885
674.1155,1.26169155
675.0797,1.81268775
676.0439,1.29200305
677.0082,0.5885735
677.9724,0.303752125
678.9366,0.46955195
679.9009,0.7834485
680.8651,0.8395736
681.8293,0.583838775
682.7936,0.107555375
683.7578,-0.799642875
684.722,-1.395177325
685.6863,-0.773388825
686.6505,1.384773488
687.6147,2.6831023
688.579,2.3428668
689.5432,1.71002045
690.5074,1.041966225
691.4717,0.4822618
692.4359,0.20579015
693.4001,0.505189458
694.3644,0.931604873
695.3286,1.0822732
696.2928,0.99315255
697.2571,0.701811225
698.2213,0.230162688
699.1855,-0.390180025
700.1498,-0.57402025
701.114,-0.2926489
702.0782,0.226226775
703.0425,1.2006057
704.0067,2.422470125
704.9709,2.88652325
705.9352,1.63198625
706.8994,0.687823658
707.8636,0.6741827
708.8279,1.0989883
709.7921,1.463659025
710.7563,1.56667415
711.7206,1.4495233
712.6848,0.879581508
713.649,0.18943175
714.6133,-0.19427875
715.5775,-0.1327665
716.5417,0.228527775
717.506,0.558418375
718.4702,0.828052265
719.4344,1.10120765
720.3987,1.56845315
721.3629,1.954375625
722.3271,1.87597575
723.2914,1.160584775
724.2556,0.529572425
725.2198,0.267452175
726.1841,0.088200318
727.1483,-0.12017365
728.1125,-0.32522265
729.0768,-0.428608125
730.041,-0.421153925
731.0052,-0.31915425
731.9695,0.10707625
732.9337,0.7633041
733.8979,1.179654725
734.8622,0.912641025
735.8264,-0.046211975
736.7906,-0.686166975
737.7549,-1.136361725
738.7191,-1.238994643
739.6833,-0.6646018
740.6476,0.312708443
741.6118,0.8690826
742.576,0.477231675
743.5403,0.203842105
744.5045,0.73995287
745.4688,1.502616975
746.433,1.791579375
747.3972,1.298698975
748.3615,0.471308225
749.3257,0.197518375
750.2899,0.313817575
751.2542,0.450984875
752.2184,0.5549165
753.1826,0.685554
754.1469,0.93863175
755.1111,1.426286325
756.0753,1.508328325
757.0396,0.9328027
758.0038,0.312895275
758.968,0.029150325
759.9323,0.1134247
760.8965,0.3160446
761.8607,0.598877625
762.825,0.78344035
763.7892,0.783944725
764.7534,0.681679375
765.7177,0.608293825
766.6819,0.65326305
767.6461,0.73748235
768.6104,0.4838387
769.5746,-0.095697775
770.5388,-0.4262483
771.5031,-0.02442545
772.4673,0.84451195
773.4315,0.91065215
774.3958,-0.877911563
775.36,-1.897973525
776.3242,-1.238229275
777.2885,-0.125832475
778.2527,0.1523445
779.2169,-0.79507815
780.1812,-1.8138625
781.1454,-1.46468675
782.1096,-0.73589625
783.0739,-0.417932825
784.0381,-0.567059325
785.0023,-0.738897678
785.9666,-0.340589875
786.9308,0.674129375
787.895,0.8935035
788.8593,-0.06739505
789.8235,-0.932832925
790.7877,-0.899198775
791.752,-0.0633912
792.7162,0.6158233
793.6804,1.016811525
794.6447,1.133673925
795.6089,0.688155425
796.5731,0.06635975
797.5374,-0.207943725
798.5016,0.13707415
799.4658,0.7176497
800.4301,0.6992819
801.3943,0.426673118
802.3585,0.515119125
803.3228,1.1356712
804.287,2.010350675
805.2512,2.636517375
806.2155,3.024923
807.1797,3.14728875
808.1439,2.7906275
809.1082,2.301809
810.0724,1.84123025
811.0366,1.43931875
812.0009,1.124160925
812.9651,0.9151886
813.9293,0.9378089
814.8936,1.34404155
815.8578,1.892616325
816.822,2.19268125
817.7863,2.01530525
818.7505,1.603796275
819.7147,1.8136254
820.679,2.5413225
821.6432,3.015191
822.6074,3.0376595
823.5717,2.770159875
824.5359,2.431761775
825.5001,1.827034625
826.4644,1.6384818
827.4286,2.05646605
828.3928,2.5510436
829.3571,2.9413527
830.3213,3.19522275
831.2855,3.31007225
832.2498,3.2783505
833.214,3.0333219
834.1782,2.391944625
835.1425,1.545292
836.1067,0.88277585
837.0709,0.66905115
838.0352,0.87141865
838.9994,1.25464725
839.9636,1.877415575
840.9279,2.2956185
841.8921,2.389536113
842.8563,2.2659355
843.8206,2.066625375
844.7848,1.8289537
845.749,1.606806123
846.7133,1.338539325
847.6775,1.0833427
848.6417,0.916593175
849.606,0.8014245
850.5702,0.59825075
851.5344,0.15929565
852.4987,-0.288071625
853.4629,-0.16510315
854.4271,0.3818413
855.3914,0.8941345
856.3556,1.16393225
857.3198,1.23995885
858.2841,1.238610125
859.2483,0.925358575
860.2125,0.8500075
861.1768,1.40712045
862.141,1.963065975
863.1052,1.9199748
864.0695,1.22039265
865.0337,0.5126098
865.9979,0.1055399
866.9622,0.014116025
867.9264,0.4596987
868.8906,1.243406625
869.8549,1.930114775
870.8191,2.175366725
871.7833,2.052520025
872.7476,1.969573125
873.7118,1.938643538
874.676,1.837438975
875.6403,1.595120125
876.6045,1.3148667
877.5687,1.114792785
878.533,0.96582425
879.4972,1.0333184
880.4614,1.729532718
881.4257,2.272347225
882.3899,2.176454158
883.3541,1.55979155
884.3184,0.8499649
885.2826,0.330085825
886.2468,-0.0349846
887.2111,-0.32962484
888.1753,-0.530923423
889.1395,-0.50394585
890.1038,-0.162448885
891.068,0.33144065
892.0322,0.56340875
892.9965,0.49960017
893.9607,0.371589375
894.9249,0.064685075
895.8892,-0.23956675
896.8534,-0.42759015
897.8176,-0.526734185
898.7819,-0.673565008
899.7461,-0.95614005
900.7103,-1.2864275
901.6746,-1.662917053
902.6388,-1.9156083
903.603,-1.771737425
904.5673,-1.138919
905.5315,-0.284087425
906.4957,0.139036575
907.46,-0.1100647
908.4242,-0.156682598
909.3884,0.39458845
910.3527,1.01941995
911.3169,1.231487925
912.2811,1.01689475
913.2454,0.69455125
914.2096,0.1221556
915.1738,-0.401456375
916.1381,-0.93110957
917.1023,-1.32142095
918.0665,-1.233740875
919.0308,-0.507416625
919.995,0.365605213
920.9592,0.376876725
921.9235,-0.192634475
922.8877,-0.525968075
923.8519,-0.556173488
924.8162,-0.42656995
925.7804,-0.17623905
926.7446,0.3142021
927.7089,0.526509955
928.6731,0.183387025
929.6373,-0.0904952
930.6016,-0.22767553
931.5658,-0.33391868
932.53,-0.473511475
933.4943,-0.607392225
934.4585,-0.762782979
935.4227,-1.150177125
936.387,-1.5229867
937.3512,-1.56039655
938.3154,-1.2501855
939.2797,-0.87680347
940.2439,-0.77943875
941.2081,-0.999420725
942.1724,-0.973824225
943.1366,-0.532443975
944.1008,-0.1901513
945.0651,0.079566075
946.0293,0.216197375
946.9935,0.017949625
947.9578,-0.6359086
948.922,-1.2139105
949.8862,-1.601749275
950.8505,-1.71356575
951.8147,-1.218838525
952.7789,-0.34917745
953.7432,0.294999115
954.7074,0.210889575
955.6716,-0.411578375
956.6359,-0.85613715
957.6001,-1.18995075
958.5643,-1.293991725
959.5286,-1.03265365
960.4928,-0.55366525
961.457,-0.0147697
962.4213,0.6751602
963.3855,0.8952888
964.3497,-0.133484643
965.314,-0.92302151
966.2782,-0.7824973
967.2424,0.091985218
968.2067,1.18027115
969.1709,2.166082
970.1351,3.14851855
971.0994,4.41275575
972.0636,5.88487
973.0278,7.6300035
973.9921,9.82285725
974.9563,11.69872575
975.9205,12.18579
976.8848,11.07016025
977.849,9.2554485
978.8132,5.40641725
979.7775,2.490686725
980.7417,1.67837775
981.7059,2.07405625
982.6702,2.5424563
983.6344,2.7002242
984.5986,2.55836281
985.5629,1.90698995
986.5271,1.19600085
987.4913,0.941796625
988.4556,1.113135
989.4198,1.310373
990.384,1.162287175
991.3483,0.7105607
992.3125,0.585303283
993.2767,1.1058602
994.241,1.66231845
995.2052,2.12624975
996.1694,2.58267365
997.1337,3.064526375
998.0979,3.61069575
999.0621,4.413272
1000.026,5.03537825
1000.991,6.90472225
1001.955,10.04204625
1002.919,15.01772
1003.883,23.38751
1004.848,35.61381
1005.812,49.896455
1006.776,63.1583875
1007.74,75.73842
1008.704,80.5920875
1009.669,75.5829275
1010.633,65.961925
1011.597,52.479735
1012.561,36.5369
1013.526,23.70343
1014.49,15.431921
1015.454,9.9857215
1016.418,7.23746
1017.383,5.79568425
1018.347,4.6249588
1019.311,3.50487825
1020.275,2.86938175
1021.24,3.19569405
1022.204,4.13704075
1023.168,4.1247535
1024.132,3.191865
1025.096,2.22677975
1026.061,1.5426453
1027.025,1.038793915
1027.989,0.564697148
1028.953,0.181008125
1029.918,-0.1261894
1030.882,-0.66386335
1031.846,-1.108562425
1032.81,-1.115180275
1033.775,-0.931296625
1034.739,-1.062045175
1035.703,-1.706582525
1036.667,-2.308742
1037.631,-1.99991625
1038.596,-1.071939875
1039.56,-0.20707175
1040.524,0.5924155
1041.488,1.03620905
1042.453,0.68425753
1043.417,-0.3789681
1044.381,-0.896701125
1045.345,-0.267955105
1046.31,-0.018787
1047.274,-0.90923095
1048.238,-1.823270575
1049.202,-1.723123275
1050.167,-0.679598275
1051.131,0.35138975
1052.095,0.7056665
1053.059,0.699761975
1054.023,0.898397675
1054.988,1.110102875
1055.952,0.847046728
1056.916,-0.07456665
1057.88,-1.110352875
1058.845,-1.367238025
1059.809,-0.651780875
1060.773,-0.045371175
1061.737,0.299038033
1062.702,0.622687575
1063.666,1.15431535
1064.63,1.687386325
1065.594,1.92920914
1066.558,1.794810995
1067.523,1.441312525
1068.487,0.835469975
1069.451,0.1321838
1070.415,-0.465589825
1071.38,-0.8680351
1072.344,-0.905147075
1073.308,-0.457512675
1074.272,0.272950125
1075.237,0.665891925
1076.201,0.444449425
1077.165,0.453389
1078.129,0.99244625
1079.094,1.38209015
1080.058,1.043214375
1081.022,0.277517775
1081.986,-0.091324025
1082.95,0.342564325
1083.915,1.02372575
1084.879,1.51229255
1085.843,1.8175957
1086.807,1.989665986
1087.772,2.0054122
1088.736,1.635563
1089.7,0.626919563
1090.664,-0.788503275
1091.629,-1.1838014
1092.593,0.522387725
1093.557,1.425572725
1094.521,1.1222938
1095.485,0.499967175
1096.45,0.061700325
1097.414,-0.1556633
1098.378,-0.2388197
1099.342,-0.220909775
1100.307,-0.116666375
