Raman_Shift_cm-1,Norway_2-2_Avg
99.44398,65.40794667
100.4082,64.19267333
101.3724,50.07811
102.3367,39.14969
103.3009,37.15306
104.2651,41.86665
105.2294,46.84140667
106.1936,41.80407333
107.1578,35.10175667
108.1221,31.845182
109.0863,33.63077667
110.0505,38.42729667
111.0148,36.60489667
111.979,29.837955
112.9432,22.151366
113.9075,16.602328
114.8717,13.89739567
115.8359,13.92625367
116.8002,18.578238
117.7644,25.27856567
118.7286,30.85143233
119.6929,34.96795
120.6571,35.19476
121.6214,29.33956667
122.5856,18.98941933
123.5498,7.924739667
124.5141,-1.543833333
125.4783,-8.0632
126.4425,-10.02529333
127.4068,-7.394403333
128.371,-1.664225333
129.3352,3.479539433
130.2995,7.915788267
131.2637,11.52857967
132.2279,14.26363967
133.1922,16.1543798
134.1564,19.490414
135.1206,26.16889667
136.0849,31.27553667
137.0491,28.93546667
138.0133,11.48204637
138.9776,-0.9814
139.9418,-5.18364
140.906,-3.612841
141.8703,-0.813834567
142.8345,0.4017905
143.7987,0.749982333
144.763,0.906346667
145.7272,0.93234
146.6914,0.540333333
147.6557,-1.752718
148.6199,-4.093115567
149.5841,-5.201205
150.5484,-4.506152533
151.5126,-2.061263333
152.4768,3.414907333
153.4411,12.061248
154.4053,20.10952333
155.3695,24.24768667
156.3338,21.40231
157.298,23.11478
158.2622,33.11554333
159.2265,44.28246667
160.1907,48.61152333
161.1549,37.51847333
162.1192,28.32360067
163.0834,28.09134067
164.0476,33.76855333
165.0119,39.52256
165.9761,36.79495333
166.9403,31.82755333
167.9046,31.16552667
168.8688,35.27558333
169.833,41.81101667
170.7973,41.25628333
171.7615,34.68440667
172.7257,27.85906667
173.69,22.82055667
174.6542,19.62259
175.6184,17.12589667
176.5827,16.38015667
177.5469,15.40535767
178.5111,12.81215767
179.4754,7.534000667
180.4396,4.549039667
181.4038,5.578856667
182.3681,7.748534667
183.3323,8.580535667
184.2965,5.835888667
185.2608,2.395784567
186.225,1.453418333
187.1892,2.283691567
188.1535,3.3012852
189.1177,1.4306
190.0819,-2.020915
191.0462,0.121028667
192.0104,8.866504
192.9746,22.13984667
193.9389,31.45429667
194.9031,36.26710333
195.8673,38.38268333
196.8316,36.62128667
197.7958,31.28693
198.76,28.57218333
199.7243,31.29158333
200.6885,34.55531
201.6527,36.81616333
202.617,37.42902
203.5812,37.29461333
204.5454,38.24035
205.5097,39.02873
206.4739,38.11779
207.4381,34.36640667
208.4024,28.69598
209.3666,26.35060667
210.3308,26.73776333
211.2951,27.38911
212.2593,25.38486
213.2235,18.72912
214.1878,15.23042
215.152,15.42169667
216.1162,17.89718667
217.0805,20.75714333
218.0447,24.94132333
219.0089,28.73849333
219.9732,32.88834667
220.9374,36.39523333
221.9016,37.34043
222.8659,30.92848333
223.8301,23.82211667
224.7943,19.39761
225.7586,18.13986
226.7228,19.29920333
227.687,23.13086
228.6513,27.92714667
229.6155,28.98072667
230.5797,24.44621
231.544,14.73953567
232.5082,10.15771317
233.4724,13.71430467
234.4367,17.02317467
235.4009,16.82469033
236.3651,12.52833667
237.3294,8.368323333
238.2936,3.313053333
239.2578,-1.146434333
240.2221,-3.75908127
241.1863,-3.629575
242.1505,-2.649187667
243.1148,-2.467626867
244.079,-2.897411333
245.0432,-3.761672333
246.0075,-4.874917733
246.9717,-6.307609333
247.9359,-8.595156667
248.9002,-11.31991367
249.8644,-13.01056967
250.8286,-11.720746
251.7929,-5.2693183
252.7571,-2.168521667
253.7213,-4.435856
254.6856,-9.3153655
255.6498,-12.20859467
256.614,-11.05602167
257.5783,-10.57799572
258.5425,-11.719508
259.5067,-13.63135567
260.471,-14.73717733
261.4352,-13.10019433
262.3994,-11.88361133
263.3637,-12.78428637
264.3279,-15.57324367
265.2921,-19.32508127
266.2564,-22.977611
267.2206,-25.892372
268.1848,-26.63445567
269.1491,-24.78390233
270.1133,-20.801644
271.0775,-17.43819067
272.0418,-14.19816067
273.006,-12.35932707
273.9702,-13.16500443
274.9345,-16.69848553
275.8987,-19.06274543
276.8629,-18.653964
277.8272,-18.14760733
278.7914,-17.96220533
279.7556,-18.23406033
280.7199,-19.32015733
281.6841,-23.7345207
282.6483,-27.56349267
283.6126,-27.49025067
284.5768,-22.280021
285.541,-14.56510967
286.5053,-13.06850767
287.4695,-15.79964967
288.4337,-18.97930567
289.398,-20.07639367
290.3622,-18.659976
291.3264,-17.53696333
292.2907,-15.72770967
293.2549,-14.33644933
294.2191,-14.78609233
295.1834,-18.70877423
296.1476,-20.27174533
297.1118,-16.74264433
298.0761,-12.212517
299.0403,-9.616707
300.0045,-10.62361633
300.9688,-12.77744
301.933,-15.61348667
302.8972,-18.07744333
303.8615,-18.24560733
304.8257,-14.11807433
305.79,-6.957774
306.7542,-4.061036333
307.7184,-4.868514667
308.6827,-7.079876
309.6469,-8.127575
310.6111,-7.989306
311.5754,-7.380615333
312.5396,-5.802425333
313.5038,-4.161767333
314.4681,-3.552896667
315.4323,-4.664005867
316.3965,-5.043994
317.3608,-4.012524667
318.325,-2.166958333
319.2892,-0.238831867
320.2535,1.170962733
321.2177,2.2657984
322.1819,3.144936333
323.1462,4.080078333
324.1104,5.392212667
325.0746,7.431497
326.0389,10.39344333
327.0031,14.65214667
327.9673,20.441723
328.9316,26.25779533
329.8958,29.28290333
330.86,27.14933933
331.8243,26.30308367
332.7885,26.637979
333.7527,27.91187333
334.717,29.78126667
335.6812,32.14916
336.6454,35.71947333
337.6097,41.97885667
338.5739,49.1114
339.5381,54.11803333
340.5024,52.91318333
341.4666,49.60414
342.4308,48.91596667
343.3951,50.94228333
344.3593,54.67464333
345.3235,58.30957333
346.2878,61.50155667
347.252,64.76811333
348.2162,68.08615667
349.1805,71.32906333
350.1447,74.43926
351.1089,80.11661667
352.0732,83.31203
353.0374,81.81437
354.0016,77.36014333
354.9659,73.5591
355.9301,72.95655
356.8943,72.22889667
357.8586,69.49150333
358.8228,65.76955333
359.787,63.11597667
360.7513,64.46037667
361.7155,67.193
362.6797,67.79554667
363.644,66.46247667
364.6082,63.96173333
365.5724,61.21842
366.5367,56.89208333
367.5009,52.65732333
368.4651,47.83753333
369.4294,43.30262333
370.3936,41.20699
371.3578,45.50489667
372.3221,48.63331667
373.2863,48.90246667
374.2505,47.28184333
375.2148,45.42749667
376.179,43.89336
377.1432,42.70142333
378.1075,41.93264
379.0717,41.59155667
380.0359,41.74923333
381.0002,42.63208333
381.9644,44.20834
382.9286,45.42126333
383.8929,46.09267333
384.8571,46.34987
385.8214,46.56326
386.7856,47.24201667
387.7498,47.73315333
388.7141,46.76587667
389.6783,45.75461333
390.6425,47.01755333
391.6068,52.98338333
392.571,56.93303
393.5352,57.59131333
394.4995,56.29842667
395.4637,54.42091667
396.4279,52.64983
397.3922,50.93452667
398.3564,49.42524333
399.3206,47.97861333
400.2849,45.98274
401.2491,42.65441133
402.2133,37.948309
403.1776,35.7882981
404.1418,36.723186
405.106,38.904151
406.0703,40.186568
407.0345,39.44942433
407.9987,39.97699467
408.963,42.47526
409.9272,45.24665
410.8914,46.99687667
411.8557,47.28694
412.8199,47.63349333
413.7841,49.01139
414.7484,50.48917333
415.7126,51.30952
416.6768,51.05430667
417.6411,50.24691
418.6053,49.30438667
419.5695,48.68467
420.5338,49.44217
421.498,52.18508
422.4622,56.67662
423.4265,58.46982333
424.3907,57.07732667
425.3549,55.54153667
426.3192,55.70493
427.2834,58.21647333
428.2476,61.72865667
429.2119,64.34374
430.1761,66.67484667
431.1403,69.17698667
432.1046,72.02073333
433.0688,74.96588
434.033,79.6754
434.9973,84.55399
435.9615,87.87641
436.9257,89.09662
437.89,88.72613667
438.8542,88.40665
439.8184,88.64040333
440.7827,89.31356
441.7469,90.39079
442.7111,91.45884
443.6754,91.38372667
444.6396,87.34728
445.6038,84.58697
446.5681,85.17418
447.5323,87.64728667
448.4965,88.24928667
449.4608,83.81627333
450.425,80.28581333
451.3892,79.18588
452.3535,79.80681333
453.3177,81.36971
454.2819,84.03069
455.2462,85.19339333
456.2104,81.46699
457.1746,74.51492333
458.1389,67.67749
459.1031,64.54437667
460.0673,65.33587667
461.0316,65.26019
461.9958,63.60254667
462.96,62.39344667
463.9243,64.2508
464.8885,71.57337333
465.8527,75.35192667
466.817,72.54110667
467.7812,68.15111
468.7454,65.17486
469.7097,64.65262667
470.6739,65.08806
471.6382,66.04268
472.6024,66.70522333
473.5666,66.16663333
474.5309,64.20672
475.4951,61.57858667
476.4593,60.65902333
477.4236,61.00914
478.3878,61.0815
479.352,60.39129
480.3163,59.15511
481.2805,58.35052
482.2447,57.69839667
483.209,56.93239333
484.1732,56.17083667
485.1374,55.4117
486.1017,54.47122333
487.0659,52.87083333
488.0301,52.26824333
488.9944,53.67469333
489.9586,55.99933667
490.9228,57.63161333
491.8871,57.19367
492.8513,55.35083667
493.8155,53.60862333
494.7798,52.20684333
495.744,51.34983333
496.7082,51.14593667
497.6725,51.47910333
498.6367,51.53538333
499.6009,51.19849
500.5652,50.56204333
501.5294,49.65796667
502.4936,48.48442333
503.4579,47.79456667
504.4221,48.54858333
505.3863,49.02030667
506.3506,47.57905333
507.3148,44.25376667
508.279,42.17261333
509.2433,45.71878333
510.2075,50.51346
511.1717,54.76932333
512.1359,57.75205
513.1002,59.28845
514.0644,58.67577667
515.0286,56.32022667
515.9929,54.46129667
516.9571,53.28773
517.9213,52.53609333
518.8856,51.76566
519.8498,50.86559667
520.814,49.98540667
521.7783,48.69778667
522.7425,47.54739333
523.7067,47.33430667
524.671,48.70941667
525.6352,49.70661333
526.5994,49.95935333
527.5637,49.69432
528.5279,48.82867
529.4921,47.26105
530.4564,45.19158667
531.4206,42.45548
532.3848,39.34562
533.3491,37.3833
534.3133,37.56107333
535.2775,39.81719667
536.2418,41.54765667
537.206,42.38169333
538.1702,42.93834667
539.1345,43.27111
540.0987,43.20268667
541.0629,42.41714667
542.0272,40.71299333
542.9914,38.89361667
543.9556,36.70551
544.9199,34.60272
545.8841,33.163715
546.8483,32.792251
547.8126,33.10435933
548.7768,33.833717
549.741,34.52835333
550.7053,34.391773
551.6695,32.850812
552.6338,30.12211867
553.598,28.73116267
554.5623,29.055102
555.5265,29.43096733
556.4907,28.70793567
557.455,26.75571933
558.4192,25.441058
559.3834,25.52179533
560.3477,25.80225133
561.3119,26.05652767
562.2761,26.13863167
563.2404,25.91897067
564.2046,25.179052
565.1688,24.48745833
566.1331,24.55287167
567.0973,25.06751967
568.0615,25.20578733
569.0258,24.022916
569.99,21.79465237
570.9542,21.54424417
571.9185,23.379762
572.8827,25.08752667
573.8469,24.66292333
574.8112,21.557687
575.7754,19.727189
576.7396,19.60567233
577.7039,20.412068
578.6681,22.31940143
579.6323,24.74087103
580.5966,25.727735
581.5608,22.60162863
582.525,19.55107517
583.4893,19.032373
584.4535,20.78803633
585.4177,23.39611133
586.382,25.234773
587.3462,25.7963784
588.3104,24.73726267
589.2747,22.00709367
590.2389,19.14990867
591.2031,17.86758567
592.1674,18.8039
593.1316,20.04211273
594.0958,22.14979667
595.0601,23.492481
596.0243,22.74428833
596.9885,19.90807933
597.9528,17.39369533
598.917,16.79558967
599.8812,17.01077433
600.8455,17.764358
601.8097,18.832251
602.7739,20.157854
603.7382,22.00816967
604.7024,23.720303
605.6666,23.46856933
606.6309,21.42839333
607.5951,19.25641133
608.5593,18.82405633
609.5236,20.77352633
610.4878,22.77325
611.452,24.43154433
612.4163,25.476822
613.3805,25.447197
614.3447,24.36027133
615.309,23.63329333
616.2732,25.73986067
617.2374,27.77278867
618.2017,28.05174967
619.1659,26.89785167
620.1301,25.65439433
621.0944,25.52518767
622.0586,26.04541767
623.0228,26.794383
623.9871,27.848325
624.9513,28.79471067
625.9155,29.161369
626.8798,28.89732233
627.844,30.18374267
628.8082,32.69140667
629.7725,35.14940667
630.7367,37.72055667
631.7009,40.36733333
632.6652,41.38339667
633.6294,39.33594667
634.5936,36.92263333
635.5579,33.3918
636.5221,29.79610133
637.4863,28.370419
638.4506,31.759056
639.4148,36.73959667
640.379,37.48937333
641.3433,35.15788667
642.3075,32.16412
643.2717,30.26169667
644.236,29.38118667
645.2002,29.95967333
646.1644,33.55637333
647.1287,36.06108
648.0929,35.39094333
649.0571,32.21749667
650.0214,29.84323833
650.9856,29.28796633
651.9498,28.852189
652.9141,28.56094333
653.8783,28.30018667
654.8425,27.66086
655.8068,26.23315333
656.771,25.27180033
657.7352,27.21224767
658.6995,30.18906667
659.6637,31.65125333
660.6279,30.53514
661.5922,27.830322
662.5564,26.802954
663.5206,28.001987
664.4849,29.274201
665.4491,30.29260867
666.4133,30.73603733
667.3776,30.247342
668.3418,28.62122533
669.306,27.33883533
670.2703,26.997078
671.2345,27.06022033
672.1987,26.899806
673.163,26.15144933
674.1272,25.045858
675.0914,24.49322133
676.0557,24.03737933
677.0199,22.7414868
677.9841,20.6498528
678.9484,18.79877217
679.9126,18.95310903
680.8768,21.62984333
681.8411,23.349641
682.8053,23.339007
683.7695,23.07338867
684.7338,24.33236577
685.698,27.77035867
686.6622,29.53486133
687.6265,27.48200667
688.5907,24.88287733
689.5549,22.8576327
690.5192,21.58393567
691.4834,20.592057
692.4476,19.3001712
693.4119,18.020296
694.3761,17.50439533
695.3403,17.9045316
696.3046,19.217726
697.2688,21.38261767
698.233,24.286189
699.1973,25.057528
700.1615,22.37117467
701.1257,19.61201033
702.09,18.42494497
703.0542,18.77353467
704.0184,19.22693843
704.9827,19.36528233
705.9469,19.589982
706.9111,20.29127
707.8754,21.01357467
708.8396,20.952155
709.8038,19.57138633
710.7681,17.92795633
711.7323,17.363712
712.6965,17.423714
713.6608,18.498716
714.625,20.87984067
715.5892,23.826196
716.5535,24.68368267
717.5177,21.53662097
718.4819,19.16360667
719.4462,17.9916437
720.4104,17.36219087
721.3746,16.74285467
722.3389,16.25629833
723.3031,15.52564333
724.2673,13.11491633
725.2316,11.38596933
726.1958,12.36444367
727.16,15.55749633
728.1243,18.3882585
729.0885,18.06355677
730.0527,15.930689
731.017,14.50374333
731.9812,13.963266
732.9454,14.59653967
733.9097,16.717261
734.8739,20.302156
735.8381,22.21219
736.8024,21.59128367
737.7666,20.610555
738.7308,19.54384667
739.6951,18.454606
740.6593,17.72132177
741.6235,18.24313
742.5878,18.62036833
743.552,17.45761133
744.5162,15.914444
745.4805,15.07834433
746.4447,15.39886933
747.4089,16.4712141
748.3732,18.38085833
749.3374,20.642316
750.3016,21.86348367
751.2659,21.644313
752.2301,20.67793933
753.1943,20.340917
754.1586,21.51525051
755.1228,22.47633447
756.087,22.03664533
757.0513,21.50471233
758.0155,21.57658067
758.9797,22.04894433
759.944,22.02628067
760.9082,21.99235767
761.8724,22.71715667
762.8367,24.127817
763.8009,25.78150267
764.7651,27.15954467
765.7294,27.92800067
766.6936,28.30656
767.6578,28.92098
768.6221,29.64001333
769.5863,30.43458333
770.5505,31.41261333
771.5148,32.36828333
772.479,32.60857
773.4432,32.38810333
774.4075,31.58660333
775.3717,28.59464
776.3359,25.47396667
777.3002,24.40175767
778.2644,25.941087
779.2286,27.668613
780.1929,28.270939
781.1571,28.43334833
782.1213,28.24748667
783.0856,27.86238667
784.0498,27.28819333
785.014,26.36540533
785.9783,25.08493133
786.9425,25.60012967
787.9067,28.11182667
788.871,30.10556667
789.8352,30.25305333
790.7994,28.91443667
791.7637,27.69204867
792.7279,25.73070333
793.6921,25.54348
794.6564,28.59829
795.6206,32.42627667
796.5848,34.40499667
797.5491,33.61196
798.5133,31.98878
799.4775,31.97369667
800.4418,32.86567333
801.406,33.97658
802.3702,34.94367667
803.3345,35.35021333
804.2987,34.66113667
805.2629,32.62481333
806.2272,33.02225667
807.1914,37.17539
808.1556,41.23854333
809.1199,43.38555333
810.0841,43.81763333
811.0483,43.70872333
812.0126,42.23672
812.9768,42.22926333
813.941,45.6247
814.9053,49.84029
815.8695,51.65845667
816.8337,49.86522333
817.798,47.24652667
818.7622,48.55559667
819.7264,51.98678333
820.6907,54.91849667
821.6549,56.79614333
822.6191,57.35753
823.5834,56.05189333
824.5476,52.11856
825.5118,49.29189333
826.4761,47.61983333
827.4403,47.11869333
828.4045,48.75166
829.3688,51.76767667
830.333,53.30335
831.2972,50.89875667
832.2615,47.61376
833.2257,45.8372
834.1899,44.88283
835.1542,43.85284667
836.1184,42.35381667
837.0826,40.699
838.0469,39.29537
839.0111,38.28807
839.9753,37.86508667
840.9396,37.8617
841.9038,38.05634667
842.868,38.36320667
843.8323,38.79192
844.7965,38.43546667
845.7607,38.33839667
846.725,38.14976333
847.6892,36.56745
848.6534,34.11962
849.6177,32.26065333
850.5819,31.86351
851.5461,32.30258667
852.5104,33.92363333
853.4746,36.08367333
854.4388,37.29329667
855.4031,36.99779667
856.3673,35.91609333
857.3315,35.65161
858.2958,36.40998333
859.26,37.60842333
860.2242,40.34778667
861.1885,42.21315
862.1527,40.74134333
863.1169,36.49941333
864.0812,34.76186333
865.0454,39.44199
866.0096,43.66516
866.9739,44.73926667
867.9381,44.07879
868.9023,43.19381333
869.8666,42.85670667
870.8308,43.30991
871.795,45.89422667
872.7593,49.29542
873.7235,49.73974667
874.6877,46.61421
875.652,42.48832
876.6162,40.30056667
877.5804,40.31026333
878.5447,41.13196
879.5089,44.08964
880.4731,46.13343
881.4374,45.66817333
882.4017,43.92597667
883.3659,43.24635667
884.3301,44.57296667
885.2944,45.83829
886.2586,46.08821667
887.2228,45.40073
888.1871,43.19128333
889.1513,39.87206333
890.1155,36.97343
891.0798,36.50346
892.044,38.58436667
893.0082,40.75425667
893.9725,42.62853
894.9367,44.25797667
895.9009,46.3347
896.8652,48.5024
897.8294,48.72756333
898.7936,45.32086
899.7579,43.03383
900.7221,43.32874333
901.6863,44.45108333
902.6506,45.18078667
903.6148,45.13010333
904.579,44.49995333
905.5433,43.38536
906.5075,42.40508667
907.4717,42.33929667
908.436,42.98333333
909.4002,44.05552667
910.3644,45.60096667
911.3287,47.45413667
912.2929,48.04852
913.2571,46.78688333
914.2214,46.02255
915.1856,45.24086667
916.1498,44.69820667
917.1141,44.69212667
918.0783,45.21091667
919.0425,45.91541
920.0068,47.36493667
920.971,48.69644333
921.9352,48.96373
922.8995,48.50228
923.8637,48.06410333
924.8279,48.07631
925.7922,48.18303333
926.7564,47.56522667
927.7206,46.37324667
928.6849,45.58281333
929.6491,44.76718667
930.6133,44.34244667
931.5776,45.25486667
932.5418,47.72592
933.506,48.97765333
934.4703,47.15489667
935.4345,45.92851667
936.3987,46.17367667
937.363,47.10385667
938.3272,47.84512667
939.2914,48.21566333
940.2557,48.78417667
941.2199,50.04196667
942.1841,51.67195667
943.1484,53.64137667
944.1126,56.03144333
945.0768,57.13273667
946.0411,54.33873667
947.0053,47.04237333
947.9695,43.60454
948.9338,46.05391
949.898,49.48481333
950.8622,54.29938333
951.8265,58.87463
952.7907,60.72015
953.7549,58.85214
954.7192,56.51824
955.6834,58.21057
956.6476,61.33264
957.6119,62.91917
958.5761,62.86816333
959.5403,62.36814
960.5046,62.36885
961.4688,62.76071667
962.433,64.92456667
963.3973,71.35725
964.3615,76.27644
965.3257,78.28272667
966.29,78.78702
967.2542,79.28374333
968.2184,79.90733333
969.1827,80.12972667
970.1469,79.18215
971.1111,78.17221
972.0754,77.62148333
973.0396,77.49881667
974.0038,77.71887667
974.9681,78.20987667
975.9323,78.74879333
976.8965,78.51969667
977.8608,77.49055333
978.825,78.26825667
979.7892,81.71132
980.7535,86.34356667
981.7177,90.96396333
982.6819,95.49774
983.6462,99.61983333
984.6104,102.81971
985.5746,106.0964833
986.5389,108.6448233
987.5031,111.8448333
988.4673,117.8117367
989.4316,126.89859
990.3958,136.4884033
991.36,143.5016567
992.3243,149.3824633
993.2885,157.1784667
994.2527,166.4781
995.217,175.6776667
996.1812,183.8878333
997.1454,190.6175667
998.1097,194.5066667
999.0739,195.4481667
1000.038,194.6315667
1001.002,192.1202667
1001.967,189.1044333
1002.931,185.8455
1003.895,181.9928333
1004.859,176.9863667
1005.824,170.2604333
1006.788,162.4076333
1007.752,155.072
1008.716,148.0672
1009.68,140.1699633
1010.645,130.8031933
1011.609,120.9324733
1012.573,112.7261133
1013.537,106.85265
1014.502,101.31935
1015.466,97.35751
1016.43,93.04828667
1017.394,86.09605333
1018.359,77.78176333
1019.323,71.04471
1020.287,66.91299667
1021.251,64.08836333
1022.216,63.58059
1023.18,63.61546333
1024.144,62.05221333
1025.108,58.83292667
1026.072,55.36745
1027.037,52.95965333
1028.001,51.41015667
1028.965,49.35901667
1029.929,47.0057
1030.894,44.59814333
1031.858,41.40382667
1032.822,38.01857333
1033.786,34.97075333
1034.75,32.37831333
1035.715,30.61492667
1036.679,30.72954667
1037.643,31.52801333
1038.607,33.06367333
1039.572,33.97843333
1040.536,32.27330667
1041.5,27.74454
1042.464,22.54371
1043.429,19.37063667
1044.393,18.42355367
1045.357,18.54465333
1046.321,19.61447967
1047.286,20.135221
1048.25,18.99404333
1049.214,17.14387167
1050.178,16.98680133
1051.143,19.52666
1052.107,20.6323
1053.071,17.720273
1054.035,14.91216
1055,13.900856
1055.964,14.233065
1056.928,15.16423267
1057.892,16.42028967
1058.856,17.420515
1059.821,16.68837867
1060.785,14.75304467
1061.749,13.64208067
1062.713,13.68457867
1063.678,14.316351
1064.642,15.44637733
1065.606,16.955805
1066.57,17.063495
1067.535,14.24635267
1068.499,11.5599869
1069.463,9.168279667
1070.427,6.979930333
1071.391,5.062622
1072.356,3.937855333
1073.32,4.557131
1074.284,7.666333667
1075.248,11.49661533
1076.213,13.111492
1077.177,12.67044333
1078.141,10.83698667
1079.105,8.057821
1080.07,5.433651333
1081.034,4.099827833
1081.998,4.0314459
1082.962,3.740990333
1083.927,3.232908
1084.891,2.043236333
1085.855,-0.608830333
1086.819,-2.959569967
1087.783,-3.105038767
1088.748,-1.029841
1089.712,1.244181
1090.676,2.550357333
1091.64,2.661212667
1092.605,1.026406
1093.569,-1.391887
1094.533,-2.513647333
1095.497,-1.678229
1096.462,-0.386718667
1097.426,-1.074755667
1098.39,-4.256737333
1099.354,-5.692846
1100.318,-3.490917
1101.283,-1.561809667
1102.247,-1.087727
1103.211,-1.438255533
1104.175,-1.907363333
1105.14,-2.341462667
1106.104,-2.581395333
1107.068,-1.960626873
1108.032,-1.491292667
1108.997,-2.7624755
1109.961,-5.088021
1110.925,-6.908714
1111.889,-7.592877333
1112.854,-7.657071
1113.818,-7.7900555
1114.782,-7.643456897
1115.746,-7.62218423
1116.71,-7.961970667
1117.675,-8.540511333
1118.639,-10.32822167
1119.603,-12.22700133
1120.567,-11.96143333
1121.532,-8.943392167
1122.496,-6.428221667
1123.46,-7.324959667
1124.424,-9.332927333
1125.389,-10.12862033
1126.353,-9.942470333
1127.317,-9.58229
1128.281,-9.491145667
1129.245,-9.688427333
1130.21,-10.216325
1131.174,-11.43923323
1132.138,-11.24439033
1133.102,-7.552735
1134.067,-4.993694
1135.031,-5.57107
1135.995,-7.575856
1136.959,-8.542316333
1137.924,-8.0602688
1138.888,-8.261614633
1139.852,-11.67008533
1140.816,-14.756217
1141.781,-13.33887667
1142.745,-9.362574333
1143.709,-6.631916333
1144.673,-6.607974667
1145.637,-7.767627
1146.602,-7.878191667
1147.566,-7.153896667
1148.53,-7.784952333
1149.494,-9.591893333
1150.459,-11.260181
1151.423,-13.528222
1152.387,-14.891967
1153.351,-13.16343633
1154.316,-8.808274967
1155.28,-5.834855333
1156.244,-6.303701333
1157.208,-8.059131
1158.172,-10.01034167
1159.137,-11.8875806
1160.101,-12.83314633
1161.065,-12.70834933
1162.029,-12.34367833
1162.994,-12.61423233
1163.958,-13.18099833
1164.922,-12.83799567
1165.886,-11.28918567
1166.851,-9.915282
1167.815,-8.519255333
1168.779,-7.815609
1169.743,-8.819303
1170.708,-10.791195
1171.672,-10.98042233
1172.636,-7.479549
1173.6,-4.072015
1174.564,-6.22951
1175.529,-10.68002167
1176.493,-13.32765233
1177.457,-13.561264
1178.421,-12.774188
1179.386,-11.85789433
1180.35,-10.53769367
1181.314,-9.152051667
1182.278,-8.817106
1183.243,-8.280509333
1184.207,-6.161660567
1185.171,-5.041968733
1186.135,-6.553717733
1187.099,-9.379239667
1188.064,-11.29318933
1189.028,-11.82583767
1189.992,-12.356007
1190.956,-14.121412
1191.921,-15.93252
1192.885,-16.01176667
1193.849,-14.82025567
1194.813,-14.50542767
1195.778,-16.25343667
1196.742,-18.60592667
1197.706,-18.57461333
1198.67,-15.49018667
1199.635,-13.31339667
1200.599,-12.83866533
1201.563,-12.59169867
1202.527,-11.72695233
1203.491,-10.980047
1204.456,-11.193296
1205.42,-12.38837767
1206.384,-14.165069
1207.348,-16.67092433
1208.313,-18.73253
1209.277,-17.58114333
1210.241,-14.49514
1211.205,-12.11106067
1212.17,-10.87328133
1213.134,-10.73484067
1214.098,-12.448412
1215.062,-15.612135
1216.026,-15.90654233
1216.991,-10.58741917
1217.955,-7.899666
1218.919,-12.016528
1219.883,-16.42285
1220.848,-16.78008667
1221.812,-14.47125
1222.776,-12.70109
1223.74,-12.61646433
1224.705,-12.90848133
1225.669,-12.55000833
1226.633,-11.76975733
1227.597,-10.56129493
1228.562,-9.293480867
1229.526,-8.67791236
1230.49,-8.582323667
1231.454,-8.686017667
1232.418,-8.785115667
1233.383,-8.609066
1234.347,-7.857277277
1235.311,-7.440437333
1236.275,-7.790617
1237.24,-8.856778333
1238.204,-9.685003
1239.168,-8.919621667
1240.132,-6.927736
1241.097,-5.788542667
1242.061,-7.129621667
1243.025,-9.592367667
1243.989,-9.309652333
1244.953,-5.300430333
1245.918,-3.500407
1246.882,-5.865722633
1247.846,-8.072958
1248.81,-7.898232333
1249.775,-6.483284
1250.739,-5.3204441
1251.703,-4.210474733
1252.667,-4.189803667
1253.632,-6.850464333
1254.596,-9.265373667
1255.56,-9.790478
1256.524,-9.492449
1257.489,-9.547088
1258.453,-10.25450033
1259.417,-11.26687167
1260.381,-12.14121133
1261.345,-12.55022667
1262.31,-12.11172633
1263.274,-11.19209933
1264.238,-9.850121
1265.202,-6.439745333
1266.167,-4.262646667
1267.131,-6.319222
1268.095,-10.28819233
1269.059,-11.533912
1270.024,-9.041503667
1270.988,-6.237255667
1271.952,-4.6323066
1272.916,-4.361173267
1273.88,-6.7967525
1274.845,-10.61622667
1275.809,-11.98997367
1276.773,-9.484307
1277.737,-5.600447667
1278.702,-3.503361333
1279.666,-3.465518533
1280.63,-4.0715803
1281.594,-4.928483
1282.559,-5.730274667
1283.523,-7.366104667
1284.487,-8.191098667
1285.451,-6.654614
1286.416,-4.106737
1287.38,-2.895418333
1288.344,-3.663891667
1289.308,-5.037955
1290.272,-6.010432267
1291.237,-6.562149
1292.201,-5.859156867
1293.165,-3.824854667
1294.129,-1.947208333
1295.094,-0.581567333
1296.058,0.207348567
1297.022,0.2917482
1297.986,-0.331502333
1298.951,-1.519369
1299.915,-3.408415
1300.879,-4.982236333
1301.843,-6.672892367
1302.807,-7.677360333
1303.772,-6.875854333
1304.736,-5.053727333
1305.7,-3.430713
1306.664,-2.449031667
1307.629,-2.033854317
1308.593,-2.445955467
1309.557,-3.800398533
1310.521,-4.372477
1311.486,-3.8762858
1312.45,-3.703019267
1313.414,-3.691926667
1314.378,-3.165942
1315.343,-1.877417133
1316.307,-0.307194333
1317.271,0.991780667
1318.235,1.902058967
1319.199,1.791731833
1320.164,-0.2048993
1321.128,-2.658309
1322.092,-4.118058333
1323.056,-4.8440366
1324.021,-5.213093667
1324.985,-5.017505333
1325.949,-4.237466667
1326.913,-3.190364333
1327.878,-2.261759667
1328.842,-2.201497667
1329.806,-4.183349333
1330.77,-5.687963667
1331.734,-5.085132
1332.699,-3.527620333
1333.663,-1.340291433
1334.627,0.554565333
1335.591,0.823299333
1336.556,-0.713777667
1337.52,-2.373844333
1338.484,-2.350797667
1339.448,-1.214485667
1340.413,-1.539713667
1341.377,-3.544913567
1342.341,-5.005794333
1343.305,-5.674796333
1344.27,-5.546388
1345.234,-4.273095533
1346.198,-2.460407867
1347.162,-1.0920573
1348.126,-0.2559248
1349.091,-0.504923667
1350.055,-2.577172667
1351.019,-4.634432
1351.983,-5.838981
1352.948,-6.471085333
1353.912,-6.754232
1354.876,-6.771769
1355.84,-6.265365
1356.805,-4.830460667
1357.769,-3.026489
1358.733,-3.065853033
1359.697,-6.0117278
1360.661,-7.326132333
1361.626,-5.708366333
1362.59,-4.541137667
1363.554,-4.911026333
1364.518,-5.525439333
1365.483,-4.854695
1366.447,-3.188987667
1367.411,-2.077124
1368.375,-2.351090333
1369.34,-3.4077798
1370.304,-4.695247333
1371.268,-5.759758
1372.232,-5.177904667
1373.197,-2.8242109
1374.161,-0.895752
1375.125,-0.580851267
1376.089,-1.062842
1377.053,-1.214575
1378.018,-0.976432463
1378.982,-1.049153333
1379.946,-1.773706333
1380.91,-2.748038533
1381.875,-4.276432333
1382.839,-5.851856
1383.803,-6.693082333
1384.767,-6.7025
1385.732,-5.936784
1386.696,-4.763965
1387.66,-4.300366
1388.624,-5.694586967
1389.589,-8.184171
1390.553,-8.265471667
1391.517,-4.067749
1392.481,-1.450423
1393.445,-1.400553
1394.41,-1.959944533
1395.374,-3.5533276
1396.338,-5.061814867
1397.302,-5.148949367
1398.267,-4.026577
1399.231,-2.739209
1400.195,-1.7549155
1401.159,-1.524170127
1402.124,-2.8125731
1403.088,-5.1343337
1404.052,-6.976064667
1405.016,-8.132446
1405.98,-7.324511667
1406.945,-2.933219667
1407.909,1.188379
1408.873,1.2158365
1409.837,-2.013289333
1410.802,-5.645491
1411.766,-9.365047
1412.73,-11.35257867
1413.694,-10.90873133
1414.659,-9.168588333
1415.623,-4.870866
1416.587,-0.274145667
1417.551,0.605631
1418.516,-2.361263133
1419.48,-5.576473
1420.444,-6.470947333
1421.408,-5.862744
1422.372,-5.439282
1423.337,-5.232186167
1424.301,-4.223168767
1425.265,-0.962923
1426.229,0.789786667
1427.194,-0.343123467
1428.158,-1.663427667
1429.122,-1.049528067
1430.086,0.610880667
1431.051,1.051114867
1432.015,-0.529069
1432.979,-2.839607667
1433.943,-4.500789667
1434.907,-4.991023667
1435.872,-3.054728267
1436.836,1.577335333
1437.8,3.823299267
1438.764,2.2320395
1439.729,-0.489152
1440.693,-4.044124367
1441.657,-7.200235667
1442.621,-7.808203
1443.586,-5.952848
1444.55,-4.228141333
1445.514,-3.854191133
1446.478,-3.334342333
1447.443,-0.461458333
1448.407,2.531013833
1449.371,2.524088833
1450.335,0.230412
1451.299,-1.852246
1452.264,-3.058447333
1453.228,-3.048218067
1454.192,-0.305867333
1455.156,4.111230333
1456.121,4.692000333
1457.085,0.681209333
1458.049,-2.705695333
1459.013,-5.405792667
1459.978,-6.288728667
1460.942,-3.520393633
1461.906,-0.316732
1462.87,0.37549654
1463.834,-1.082315667
1464.799,-3.0847656
1465.763,-4.820597333
1466.727,-5.670849333
1467.691,-4.338134667
1468.656,-0.918766333
1469.62,1.131771
1470.584,0.856046333
1471.548,0.546004333
1472.513,0.852148533
1473.477,0.795800667
1474.441,-0.963785767
1475.405,-2.843310533
1476.37,-2.776774067
1477.334,-1.091016
1478.298,0.201644
1479.262,0.226082333
1480.226,-0.101652267
1481.191,0.255826767
1482.155,1.156331333
1483.119,1.720752
1484.083,1.938443967
1485.048,1.691040067
1486.012,0.2463786
1486.976,-1.034277333
1487.94,-0.6874512
1488.905,0.526855667
1489.869,0.591316667
1490.833,-0.775919633
1491.797,-1.256461667
1492.761,0.877954
1493.726,3.1389243
1494.69,2.1317381
1495.654,-0.147054
1496.618,-0.727221867
1497.583,0.065071467
1498.547,0.2593341
1499.511,-0.855419867
1500.475,-1.993717333
1501.44,-1.429394667
1502.404,0.664820667
1503.368,2.294296667
1504.332,2.692619
1505.297,2.682316
1506.261,2.614159667
1507.225,2.079337667
1508.189,1.032681333
1509.153,0.667911
1510.118,2.254004667
1511.082,4.77015
1512.046,5.641552667
1513.01,3.9270755
1513.975,1.578743467
1514.939,0.993554729
1515.903,1.9134845
1516.867,2.320654333
1517.832,1.519083567
1518.796,1.3139975
1519.76,3.2855307
1520.724,4.083829667
1521.688,2.177124023
1522.653,-0.2028646
1523.617,-1.30015468
1524.581,-1.3104979
1525.545,-1.421069167
1526.51,-2.066219133
1527.474,-2.3010414
1528.438,-1.0067217
1529.402,1.165169
1530.367,1.658724133
1531.331,-0.075309333
1532.295,-0.521280667
1533.259,1.1392739
1534.224,2.002929667
1535.188,0.6208008
1536.152,-1.064469667
1537.116,-1.195092933
1538.08,-0.24257
1539.045,0.626562667
1540.009,1.043025667
1540.973,0.801286
1541.937,-0.422550467
1542.902,-1.961100067
1543.866,-2.671102033
1544.83,-2.7329427
1545.794,-2.339501667
1546.759,-0.8032308
1547.723,0.53189304
1548.687,0.814860133
1549.651,0.785889
1550.615,0.777514667
1551.58,0.928857467
1552.544,2.104980467
1553.508,4.516048
1554.472,6.287784667
1555.437,6.02806
1556.401,4.548788533
1557.365,2.746890667
1558.329,1.208570667
1559.294,0.769107667
1560.258,1.486751167
1561.222,2.662158167
1562.186,4.030509333
1563.151,4.675406667
1564.115,3.489681
1565.079,2.107120667
1566.043,4.200633667
1567.007,9.322981333
1567.972,10.68098867
1568.936,5.204704667
1569.9,-0.225146333
1570.864,-0.158300667
1571.829,1.831567467
1572.793,1.251440333
1573.757,-0.8680255
1574.721,-1.374658
1575.686,0.699796533
1576.65,3.331901
1577.614,5.042765333
1578.578,5.726725333
1579.542,4.979891
1580.507,3.040071667
1581.471,2.762442667
1582.435,5.327195667
1583.399,7.416253333
1584.364,7.804246667
1585.328,7.035416
1586.292,4.337207333
1587.256,1.051375333
1588.221,-0.780151333
1589.185,-0.979410667
1590.149,-0.466707333
1591.113,0.1351234
1592.078,0.730485
1593.042,2.065715
1594.006,3.931860333
1594.97,3.61008299
1595.934,0.507421667
1596.899,-0.736971067
1597.863,1.092366767
1598.827,2.99891
1599.791,4.7007324
1600.756,5.566723333
1601.72,4.508439167
1602.684,2.384228333
1603.648,0.478173667
1604.613,-0.789363667
1605.577,-0.893619667
1606.541,0.799055667
1607.505,2.9922277
1608.469,3.054980333
1609.434,1.265234333
1610.398,0.802019
1611.362,1.706209333
1612.326,1.6530353
1613.291,-0.367456333
1614.255,-2.137085133
1615.219,-3.250309667
1616.183,-3.161140667
1617.148,-0.7135336
1618.112,2.9105304
1619.076,5.0200519
1620.04,4.855020913
1621.005,4.320581067
1621.969,5.247436667
1622.933,6.983831333
1623.897,7.834717667
1624.861,7.931421
1625.826,7.301007667
1626.79,4.869954333
1627.754,3.488720767
1628.718,4.103288
1629.683,4.576474
1630.647,3.710084067
1631.611,2.748599967
1632.575,3.725960333
1633.54,6.141089
1634.504,7.524471333
1635.468,6.730330333
1636.432,4.915770667
1637.396,3.267406133
1638.361,1.855778133
1639.325,1.206908967
1640.289,1.2407469
1641.253,1.634554
1642.218,2.78549
1643.182,4.511938267
1644.146,7.117293
1645.11,8.860138667
1646.075,8.898485667
1647.039,7.970499667
1648.003,6.7022788
1648.967,5.381892333
1649.932,4.064234667
1650.896,2.785343633
1651.86,2.602164767
1652.824,5.382983333
1653.788,10.22969633
1654.753,12.19458833
1655.717,10.917604
1656.681,8.988567
1657.645,5.477401
1658.61,3.692358333
1659.574,4.977458033
1660.538,6.480697
1661.502,6.628132333
1662.467,6.241577
1663.431,6.994964333
1664.395,8.779312
1665.359,9.393147333
1666.323,7.481071
1667.288,4.7855223
1668.252,3.554158333
1669.216,3.53103
1670.18,4.724095833
1671.145,8.031901333
1672.109,9.213135
1673.073,6.309439
1674.037,4.1375655
1675.002,3.887728
1675.966,4.5463379
1676.93,6.48296
1677.894,8.740771
1678.859,10.01743833
1679.823,9.967969667
1680.787,8.302710667
1681.751,4.725309333
1682.715,1.231803667
1683.68,0.906592
1684.644,3.237247667
1685.608,4.493441
1686.572,3.942789667
1687.537,3.856282333
1688.501,5.339143667
1689.465,6.301603333
1690.429,5.620760333
1691.394,5.151659667
1692.358,5.841878333
1693.322,6.942984
1694.286,7.438575
1695.25,7.317715667
1696.215,7.554305333
1697.179,8.828547
1698.143,9.750325333
1699.107,7.8265308
1700.072,4.691071333
1701.036,5.534007667
1702,9.914303777
1702.964,10.793634
1703.929,6.269328333
1704.893,3.221712333
1705.857,5.176163667
1706.821,8.326229
1707.786,10.44321
1708.75,11.50236133
1709.714,10.74288033
1710.678,8.588630667
1711.643,7.107740333
1712.607,6.740038
1713.571,6.345239333
1714.535,5.330045567
1715.5,4.207283567
1716.464,2.90282394
1717.428,2.057551967
1718.392,4.741399
1719.356,11.09759133
1720.321,14.459879
1721.285,11.508267
1722.249,7.896109467
1723.213,9.208349333
1724.178,12.778825
1725.142,12.79790067
1726.106,9.964991
1727.07,8.531552
1728.035,9.592685333
1728.999,10.123428
1729.963,7.862321633
1730.927,5.292480167
1731.891,4.348494333
1732.856,4.754964267
1733.82,6.419311667
1734.784,8.827757667
1735.748,10.31175833
1736.713,10.381464
1737.677,9.797764333
1738.641,9.008332667
1739.605,8.651295667
1740.57,9.8449551
1741.534,12.12679033
1742.498,12.48501733
1743.462,10.10695767
1744.427,8.831625033
1745.391,10.13528767
1746.355,11.62255767
1747.319,11.83132333
1748.283,11.62047633
1749.248,12.186613
1750.212,13.041302
1751.176,13.14040333
1752.14,12.529141
1753.105,11.74514067
1754.069,10.80848767
1755.033,9.825322667
1755.997,9.437904667
1756.962,9.518799333
1757.926,8.799430667
1758.89,7.2676358
1759.854,7.870908
1760.818,11.528028
1761.783,14.10938267
1762.747,14.338387
1763.711,13.81743933
1764.675,14.144557
1765.64,14.50535567
1766.604,13.33161533
1767.568,11.23063333
1768.532,9.991862933
1769.497,9.9927165
1770.461,9.951057667
1771.425,8.908217767
1772.389,7.711939133
1773.354,7.717764567
1774.318,8.863868333
1775.282,10.723957
1776.246,13.353402
1777.21,14.14164867
1778.175,12.42533233
1779.139,10.79782033
1780.103,10.16370333
1781.067,10.327231
1782.032,11.05305067
1782.996,11.552361
1783.96,11.07810133
1784.924,9.901911667
1785.889,8.952711
1786.853,8.592718
1787.817,8.399983
1788.781,8.012352333
1789.745,7.530053333
1790.71,7.223162467
1791.674,6.804289633
1792.638,5.210953533
1793.602,2.744645
1794.567,2.500520833
1795.531,5.840550333
1796.495,8.885442667
1797.459,8.065699
1798.424,5.623422667
1799.388,5.679265333
1800.352,7.569914667
1801.316,8.077954333
1802.281,7.831697
1803.245,7.458869
1804.209,6.190021333
1805.173,6.029038
1806.137,7.651783
1807.102,9.486426633
1808.066,11.376725
1809.03,12.78304933
1809.994,12.259914
1810.959,10.40052233
1811.923,9.4144787
1812.887,10.10550067
1813.851,11.65746167
1814.816,13.59774667
1815.78,15.220339
1816.744,14.30074967
1817.708,10.72167167
1818.672,8.507731667
1819.637,8.403977967
1820.601,8.350896967
1821.565,8.025252333
1822.529,8.274316333
1823.494,9.038558333
1824.458,9.257526667
1825.422,7.967755333
1826.386,6.543401667
1827.351,7.734261633
1828.315,10.87093833
1829.279,11.37964633
1830.243,7.648998
1831.208,4.402286667
1832.172,4.871915667
1833.136,7.0569739
1834.1,8.8545495
1835.064,10.326124
1836.029,12.46875953
1836.993,15.42312023
1837.957,16.44442527
1838.921,14.14291153
1839.886,11.01906647
1840.85,8.737557333
1841.814,7.479331
1842.778,7.755267333
1843.743,9.5956066
1844.707,11.637583
1845.671,13.52447
1846.635,14.15492333
1847.599,12.8171881
1848.564,11.09968133
1849.528,9.702823667
1850.492,9.019741333
1851.456,8.583967667
1852.421,8.557894667
1853.385,9.750887
1854.349,11.30605337
1855.313,11.45502223
1856.278,10.262345
1857.242,9.494702333
1858.206,10.08908567
1859.17,11.44717467
1860.135,13.206299
1861.099,14.98357667
1862.063,15.26148033
1863.027,14.18130667
1863.991,13.210962
1864.956,12.23876967
1865.92,10.53093067
1866.884,7.358562
1867.848,5.0484452
1868.813,5.260359333
1869.777,6.9415924
1870.741,9.103839667
1871.705,11.31568333
1872.67,12.94105633
1873.634,14.00090167
1874.598,14.183392
1875.562,12.77393417
1876.526,12.13668433
1877.491,14.294303
1878.455,16.65182
1879.419,16.525816
1880.383,14.94087767
1881.348,13.87624633
1882.312,13.550326
1883.276,12.90227833
1884.24,11.58246967
1885.205,10.852116
1886.169,11.68542633
1887.133,12.62042667
1888.097,11.40838233
1889.062,9.051383667
1890.026,9.242308667
1890.99,12.25100967
1891.954,12.88552133
1892.918,10.031877
1893.883,8.451059333
1894.847,9.731353867
1895.811,11.47490886
1896.775,13.14453967
1897.74,14.07662567
1898.704,13.37616967
1899.668,12.06300567
1900.632,11.64565467
1901.597,11.74933433
1902.561,11.21555033
1903.525,9.948870333
1904.489,9.47743381
1905.453,11.381755
1906.418,13.78156667
1907.382,14.19904633
1908.346,13.25029467
1909.31,12.99160167
1910.275,13.42299833
1911.239,12.58319567
1912.203,10.182535
1913.167,8.6102626
1914.132,9.249935333
1915.096,10.49223467
1916.06,10.51088967
1917.024,9.859888
1917.989,10.07617933
1918.953,11.235644
1919.917,11.80256287
1920.881,11.35586833
1921.845,11.971183
1922.81,14.094995
1923.774,15.3138344
1924.738,14.685728
1925.702,13.63483
1926.667,13.210581
1927.631,13.47665967
1928.595,14.18183533
1929.559,15.074439
1930.524,15.65472267
1931.488,15.696581
1932.452,15.885726
1933.416,17.321484
1934.38,17.92017
1935.345,14.63680167
1936.309,11.440626
1937.273,13.916707
1938.237,18.74003933
1939.202,19.58676733
1940.166,16.74613433
1941.13,13.74484033
1942.094,11.92554333
1943.059,11.68946267
1944.023,13.312581
1944.987,15.525928
1945.951,16.72377833
1946.916,17.58139667
1947.88,19.36326333
1948.844,21.744117
1949.808,22.805143
1950.772,22.52564
1951.737,20.36501333
1952.701,15.246449
1953.665,11.624269
1954.629,12.49287733
1955.594,13.96490833
1956.558,11.72777233
1957.522,8.2360576
1958.486,8.271190067
1959.451,11.626911
1960.415,14.50009733
1961.379,16.770946
1962.343,18.321127
1963.307,18.04989267
1964.272,17.152864
1965.236,16.28775733
1966.2,14.980625
1967.164,12.73020967
1968.129,11.05849
1969.093,11.883869
1970.057,14.354826
1971.021,16.16661167
1971.986,16.5736408
1972.95,16.21680733
1973.914,15.34273333
1974.878,13.98090733
1975.843,11.9016838
1976.807,10.12067887
1977.771,11.482634
1978.735,15.18731567
1979.699,17.31902533
1980.664,17.51474667
1981.628,16.35805667
1982.592,13.890264
1983.556,11.53903633
1984.521,9.961164333
1985.485,10.028198
1986.449,13.42938533
1987.413,18.330892
1988.378,18.83942933
1989.342,14.419759
1990.306,11.907324
1991.27,11.87866133
1992.234,12.79882967
1993.199,16.884852
1994.163,18.98759667
1995.127,15.47791233
1996.091,11.874009
1997.056,12.15993633
1998.02,14.09988733
1998.984,14.93188367
1999.948,14.619451
2000.913,13.93240433
2001.877,13.00587633
2002.841,12.5008686
2003.805,12.9788739
2004.77,14.17038
2005.734,16.55136667
2006.698,18.613592
2007.662,18.87446333
2008.626,18.05080567
2009.591,16.79917933
2010.555,15.497843
2011.519,14.510125
2012.483,14.249179
2013.448,15.435059
2014.412,17.88971967
2015.376,19.900724
2016.34,20.48337367
2017.305,20.34361167
2018.269,19.456892
2019.233,18.08839467
2020.197,18.24510167
2021.161,19.627506
2022.126,20.29889467
2023.09,20.28714867
2024.054,19.65845833
2025.018,18.10088
2025.983,17.145277
2026.947,18.189768
2027.911,19.23782467
2028.875,17.34358
2029.84,14.226269
2030.804,14.93142033
2031.768,18.98238967
2032.732,20.68442333
2033.697,20.09708
2034.661,20.08646667
2035.625,20.614804
2036.589,22.245158
2037.553,24.67202133
2038.518,25.95158667
2039.482,26.15114867
2040.446,25.97984363
2041.41,25.73501733
2042.375,25.34052
2043.339,24.25791667
2044.303,22.43469
2045.267,20.98962333
2046.232,20.14761067
2047.196,19.37498433
2048.16,17.10730633
2049.124,15.93085867
2050.089,19.026025
2051.053,22.72700167
2052.017,24.72876167
2052.981,25.18259333
2053.946,23.49819333
2054.91,20.423901
2055.874,17.595965
2056.838,15.59045533
2057.802,14.770916
2058.767,15.59976393
2059.731,16.59635633
2060.695,15.46280933
2061.659,14.69114667
2062.624,18.58959233
2063.588,23.66922033
2064.552,24.41926167
2065.516,22.11759367
2066.48,19.528084
2067.445,17.586073
2068.409,17.46835967
2069.373,19.01759367
2070.337,20.12659333
2071.302,19.70906667
2072.266,18.82540667
2073.23,18.402936
2074.194,18.46164467
2075.159,19.49415733
2076.123,21.03903133
2077.087,20.39103067
2078.051,17.897275
2079.016,18.09116367
2079.98,21.56877567
2080.944,24.52499
2081.908,25.66833667
2082.873,25.70550667
2083.837,24.94352
2084.801,23.64495333
2085.765,22.33030667
2086.729,21.27800367
2087.694,20.85999333
2088.658,21.06532467
2089.622,21.24962467
2090.586,21.13033733
2091.551,20.72078233
2092.515,20.90360467
2093.479,20.28727
2094.443,16.531193
2095.407,14.64779567
2096.372,19.296445
2097.336,25.18950333
2098.3,26.14243333
2099.264,23.79642667
2100.229,21.906916
2101.193,20.013807
2102.157,18.04966633
2103.121,16.354818
2104.086,15.83877033
2105.05,16.816959
2106.014,17.223908
2106.978,15.31725367
2107.943,13.52037987
2108.907,14.63653167
2109.871,17.22294933
2110.835,19.29777
2111.8,20.31114
2112.764,19.79849667
2113.728,17.876921
2114.692,16.54191867
2115.656,16.53107067
2116.621,17.44665233
2117.585,20.07644633
2118.549,21.20664667
2119.513,18.11154833
2120.478,15.00641367
2121.442,15.01504633
2122.406,16.71456933
2123.37,19.066764
2124.334,20.87322
2125.299,20.39172333
2126.263,18.15413333
2127.227,16.66182173
2128.191,16.48758027
2129.156,16.68042733
2130.12,17.21163867
2131.084,17.24789367
2132.048,16.027434
2133.013,14.79846133
2133.977,14.51408833
2134.941,14.757161
2135.905,15.03766
2136.87,15.412337
2137.834,16.39230767
2138.798,17.48416433
2139.762,17.14992667
2140.727,15.03543233
2141.691,12.40340233
2142.655,9.410757533
2143.619,8.541015
2144.583,13.973343
2145.548,20.60322933
2146.512,23.37839333
2147.476,23.4646
2148.44,21.18277333
2149.405,18.08836667
2150.369,17.72279333
2151.333,19.51416667
2152.297,19.234132
2153.261,16.166814
2154.226,14.51975967
2155.19,16.66924733
2156.154,19.29629867
2157.118,19.25305133
2158.083,18.22863533
2159.047,18.58547233
2160.011,19.39447333
2160.975,18.49246567
2161.94,16.67420367
2162.904,16.93027133
2163.868,18.909954
2164.832,19.167767
2165.797,17.011573
2166.761,14.95055467
2167.725,14.28085067
2168.689,14.15049533
2169.654,14.06552867
2170.618,13.82897067
2171.582,12.50337033
2172.546,10.31969433
2173.51,8.152799
2174.475,6.592254
2175.439,6.461125
2176.403,7.565943
2177.367,9.726725667
2178.332,12.393434
2179.296,13.75904933
2180.26,13.26455667
2181.224,12.19997
2182.188,11.37022933
2183.153,10.651359
2184.117,9.948924
2185.081,9.447454333
2186.045,9.791984
2187.01,11.00294567
2187.974,13.02933733
2188.938,15.09317867
2189.902,14.57723633
2190.867,11.74400263
2191.831,9.9220853
2192.795,10.1751877
2193.759,10.82908433
2194.724,10.62867867
2195.688,10.052277
2196.652,10.00247367
2197.616,10.36613867
2198.581,10.62687123
2199.545,10.91845847
2200.509,11.25469667
2201.473,11.181243
2202.438,10.275864
2203.402,9.286614
2204.366,10.45852167
2205.33,13.328509
2206.294,13.28252033
2207.259,9.002677
2208.223,6.09698
2209.187,8.681989667
2210.151,12.27003433
2211.115,11.26009957
2212.08,7.865330667
2213.044,5.210173467
2214.008,3.427661
2214.972,4.311669767
2215.937,7.2404393
2216.901,9.539631667
2217.865,10.894254
2218.829,11.90455833
2219.794,12.62709967
2220.758,13.12474033
2221.722,13.54065733
2222.686,13.30443567
2223.651,11.84335833
2224.615,10.96123867
2225.579,13.470516
2226.543,16.494393
2227.508,15.27693
2228.472,11.71136667
2229.436,8.765105333
2230.4,7.148909
2231.365,7.8160979
2232.329,9.899014533
2233.293,11.272934
2234.257,11.560271
2235.221,11.51253
2236.186,11.531475
2237.15,12.03030667
2238.114,13.199895
2239.078,13.769425
2240.042,12.57707667
2241.007,10.90258
2241.971,9.975806667
2242.935,10.16745733
2243.899,12.31662833
2244.864,14.67564333
2245.828,13.772705
2246.792,10.28042967
2247.756,8.093138667
2248.721,8.287873333
2249.685,8.372020967
2250.649,7.031917333
2251.613,6.328719333
2252.578,8.244798667
2253.542,10.12087333
2254.506,9.475675267
2255.47,8.353905833
2256.435,8.904117667
2257.399,9.394489333
2258.363,7.0818046
2259.327,3.716347667
2260.292,3.145637667
2261.256,4.781071
2262.22,4.831599667
2263.184,2.696175333
2264.148,1.385701467
2265.113,2.056038367
2266.077,3.383145667
2267.041,4.810539667
2268.005,5.816064167
2268.969,6.97942
2269.934,7.5556546
2270.898,6.675463667
2271.862,4.732925333
2272.826,0.381511667
2273.791,-3.51634213
2274.755,-0.791333233
2275.719,6.512507
2276.683,9.050049467
2277.648,5.169947333
2278.612,2.681924333
2279.576,3.943727
2280.54,4.855226
2281.505,4.618692667
2282.469,3.998704583
2283.433,3.053662333
2284.397,2.111726667
2285.362,1.769246333
2286.326,1.549463
2287.29,-0.187207333
2288.254,-1.801245333
2289.219,0.530086
2290.183,5.344093
2291.147,5.7252035
2292.111,0.879785333
2293.075,-0.368774333
2294.04,5.507283667
2295.004,6.564608333
2295.968,-0.969051333
2296.932,-5.19436
2297.896,-1.677116
2298.861,1.309847267
2299.825,-0.473174333
2300.789,-2.970166
2301.753,-2.597192333
2302.718,-1.635579333
2303.682,-4.300334667
2304.646,-9.231086333
2305.61,-9.508103533
2306.575,-4.748544333
2307.539,-2.118863667
2308.503,-1.773632667
2309.467,-1.803287667
2310.432,-2.151660333
2311.396,-2.591463
2312.36,-2.92211
2313.324,-2.499380333
2314.289,-1.409562333
2315.253,-1.163705333
2316.217,-2.560530667
2317.181,-3.937760667
2318.146,-3.433073667
2319.11,-1.684034708
2320.074,0.677180667
2321.038,2.936256
2322.002,2.643352667
2322.967,0.602954333
2323.931,-1.262882667
2324.895,-2.777766667
2325.859,-3.694059667
2326.823,-3.923657
2327.788,-3.994107
2328.752,-4.344987333
2329.716,-4.787345233
2330.68,-4.9602458
2331.645,-5.016706533
2332.609,-5.097638433
2333.573,-5.078549333
2334.537,-5.306853667
2335.502,-5.794725333
2336.466,-5.849236333
2337.43,-5.446207633
2338.394,-4.782022867
2339.359,-4.396403767
2340.323,-5.524797267
2341.287,-7.385571
2342.251,-7.272942
2343.216,-4.967351677
2344.18,-3.497005
2345.144,-3.992708333
2346.108,-5.356754667
2347.073,-8.615657333
2348.037,-10.23948667
2349.001,-7.504769
2349.965,-5.119132603
2350.929,-5.029086333
2351.894,-6.009147333
2352.858,-8.613167667
2353.822,-11.17097
2354.786,-11.321491
2355.75,-9.814622
2356.715,-8.350058333
2357.679,-6.871019667
2358.643,-5.909953333
2359.607,-5.887224667
2360.572,-6.706062667
2361.536,-9.103589333
2362.5,-9.027060333
2363.464,-5.0145101
2364.429,-1.942659333
2365.393,-1.112687333
2366.357,-1.3244466
2367.321,-2.360872933
2368.286,-4.446669667
2369.25,-7.562824933
2370.214,-9.668424
2371.178,-7.917269333
2372.143,-4.281436767
2373.107,-2.8085544
2374.071,-2.914037667
2375.035,-3.445875333
2376,-4.070468667
2376.964,-4.014305667
2377.928,-3.611167
2378.892,-4.065447
2379.856,-5.109025
2380.821,-4.992189333
2381.785,-3.451887993
2382.749,-2.092008333
2383.713,-1.653629667
2384.677,-2.232536
2385.642,-4.707559
2386.606,-7.073875867
2387.57,-7.89253
2388.534,-8.183822
2389.499,-8.318188333
2390.463,-7.770059633
2391.427,-5.649430667
2392.391,-3.122472
2393.356,-1.843462333
2394.32,-2.034279
2395.284,-3.308242667
2396.248,-5.054908
2397.213,-5.715357
2398.177,-4.861726333
2399.141,-4.329101667
2400.105,-5.503581
2401.07,-4.843880333
2402.034,-0.690690333
2402.998,1.803580667
2403.962,1.328654
2404.927,-0.453401667
2405.891,-3.173436933
2406.855,-5.31467207
2407.819,-5.58899
2408.783,-4.777383
2409.748,-4.130239667
2410.712,-4.09856
2411.676,-5.404411
2412.64,-7.449756
2413.604,-7.677742
2414.569,-6.554760667
2415.533,-6.443701333
2416.497,-7.154151333
2417.461,-7.517651
2418.426,-7.603434667
2419.39,-8.260524
2420.354,-9.247468333
2421.318,-9.237297667
2422.283,-7.848553
2423.247,-5.829631667
2424.211,-3.492903933
2425.175,-2.474275367
2426.14,-3.961165667
2427.104,-5.382960333
2428.068,-5.95127
2429.032,-5.4436835
2429.997,-2.897526667
2430.961,-0.587338367
2431.925,-0.492641667
2432.889,-1.725651
2433.854,-3.099446667
2434.818,-4.453043733
2435.782,-5.526171867
2436.746,-6.063875
2437.71,-6.595711
2438.675,-7.689705
2439.639,-9.015235333
2440.603,-10.658267
2441.567,-10.90138367
2442.531,-9.235546667
2443.496,-6.687540667
2444.46,-3.8083492
2445.424,-3.621785
2446.388,-7.100251967
2447.353,-9.451727667
2448.317,-7.351733667
2449.281,-4.474821
2450.245,-4.897492
2451.21,-6.570726333
2452.174,-7.010872667
2453.138,-6.44554
2454.102,-4.352247633
2455.067,-2.180997667
2456.031,-1.688387033
2456.995,-2.462329
2457.959,-4.459577
2458.924,-6.3167224
2459.888,-5.290861
2460.852,-2.318920967
2461.816,-2.418613267
2462.781,-6.814598333
2463.745,-8.890510333
2464.709,-5.487093333
2465.673,-3.693628
2466.637,-4.719018667
2467.602,-5.384952767
2468.566,-4.713272
2469.53,-4.245368
2470.494,-4.648854333
2471.458,-4.860702867
2472.423,-4.340600667
2473.387,-4.247876
2474.351,-5.726220667
2475.315,-7.243831333
2476.28,-6.202099667
2477.244,-4.014217
2478.208,-3.198096
2479.172,-3.286954667
2480.137,-3.567853333
2481.101,-3.929972667
2482.065,-4.785864
2483.029,-5.818945333
2483.994,-6.508935333
2484.958,-6.659847333
2485.922,-5.721549333
2486.886,-3.707364767
2487.851,-1.665934
2488.815,0.206054667
2489.779,-0.474366
2490.743,-7.522901667
2491.708,-11.22707333
2492.672,-7.475773
2493.636,-4.3995941
2494.6,-3.91094479
2495.564,-4.685130273
2496.529,-6.927359333
2497.493,-8.577670667
2498.457,-7.832179
2499.421,-6.099080967
2500.385,-5.00497985
2501.35,-4.43649
2502.314,-4.475439667
2503.278,-5.229054333
2504.242,-7.217226667
2505.207,-9.24362
2506.171,-8.210384
2507.135,-5.335953667
2508.099,-3.261149
2509.064,-2.268406667
2510.028,-1.410213333
2510.992,-0.823722333
2511.956,-2.1172609
2512.921,-5.180835
2513.885,-7.239218333
2514.849,-8.032512333
2515.813,-8.104825
2516.778,-6.644758933
2517.742,-5.7369226
2518.706,-5.221989
2519.67,-5.108438667
2520.635,-6.328278333
2521.599,-6.390152667
2522.563,-3.610115433
2523.527,-1.5840415
2524.491,-3.005542
2525.456,-5.038492867
2526.42,-4.491056333
2527.384,-3.073738667
2528.348,-3.284831
2529.313,-4.57583
2530.277,-7.259170333
2531.241,-9.663126
2532.205,-8.245035667
2533.169,-5.028132667
2534.134,-2.822949333
2535.098,-1.973641
2536.062,-2.838256667
2537.026,-4.858748333
2537.991,-6.532845667
2538.955,-7.243245467
2539.919,-6.2159107
2540.883,-2.982236
2541.848,-2.611791667
2542.812,-6.656640667
2543.776,-7.860450667
2544.74,-3.922582887
2545.705,-3.63938
2546.669,-9.687037
2547.633,-13.36885667
2548.597,-11.40492267
2549.562,-9.013730133
2550.526,-9.14014514
2551.49,-9.3842283
2552.454,-7.729613467
2553.418,-6.016472333
2554.383,-6.493155
2555.347,-8.283628
2556.311,-11.01238567
2557.275,-13.084418
2558.24,-12.13003767
2559.204,-10.476278
2560.168,-11.67394167
2561.132,-13.35407567
2562.096,-11.66137567
2563.061,-7.855534667
2564.025,-4.058846
2564.989,-0.832568667
2565.953,-2.091967667
2566.918,-7.894287
2567.882,-10.74477467
2568.846,-10.654419
2569.81,-9.979427333
2570.775,-8.926489333
2571.739,-6.548983667
2572.703,-3.552393
2573.667,-3.7754641
2574.632,-7.187093333
2575.596,-8.517316333
2576.56,-5.849748467
2577.524,-3.515649333
2578.489,-4.002351667
2579.453,-5.29615
2580.417,-7.853850667
2581.381,-8.691006667
2582.345,-4.244326667
2583.31,-0.794318667
2584.274,-0.886344
2585.238,-2.305224667
2586.202,-4.723535333
2587.167,-6.150943
2588.131,-4.622851667
2589.095,-2.881421
2590.059,-4.747397667
2591.023,-7.966919
2591.988,-7.817425
2592.952,-5.847534333
2593.916,-4.649869667
2594.88,-4.549658667
2595.845,-7.087232333
2596.809,-9.889771333
2597.773,-9.421011667
2598.737,-7.0257903
2599.702,-5.687076033
2600.666,-5.0512789
2601.63,-2.054606967
2602.594,3.080427333
2603.559,3.329940667
2604.523,-2.728889667
2605.487,-5.777090333
2606.451,-4.935691667
2607.416,-3.984570367
2608.38,-3.195597667
2609.344,-2.018717267
2610.308,-0.834545267
2611.272,-1.807013907
2612.237,-4.895264
2613.201,-6.417448
2614.165,-4.917642733
2615.129,-3.6947412
2616.094,-4.8835527
2617.058,-6.210571
2618.022,-6.541259
2618.986,-6.3467528
2619.95,-5.054702867
2620.915,-4.505117397
2621.879,-6.245986667
2622.843,-7.281127
2623.807,-5.793148667
2624.772,-4.230006
2625.736,-4.628149667
2626.7,-5.556258667
2627.664,-5.091543667
2628.629,-4.292024667
2629.593,-5.400545
2630.557,-7.136474333
2631.521,-7.805233
2632.486,-7.890764
2633.45,-6.9245447
2634.414,-6.029452667
2635.378,-7.109137667
2636.343,-8.3675786
2637.307,-7.213694667
2638.271,-4.907070733
2639.235,-4.738629667
2640.199,-5.783358
2641.164,-3.333756833
2642.128,2.666219333
2643.092,3.408333667
2644.056,-0.836189667
2645.021,-4.270467333
2645.985,-6.814869333
2646.949,-7.977025667
2647.913,-7.836172667
2648.877,-7.227302333
2649.842,-6.516025
2650.806,-6.467904
2651.77,-7.269391667
2652.734,-7.170045217
2653.699,-4.886352333
2654.663,-3.705436333
2655.627,-6.005705
2656.591,-7.317122333
2657.556,-7.167773333
2658.52,-6.562703333
2659.484,-5.571662333
2660.448,-4.3810389
2661.413,-3.058138
2662.377,-2.844287
2663.341,-4.253434233
2664.305,-5.7218843
2665.27,-6.192058333
2666.234,-6.706461333
2667.198,-8.177824
2668.162,-9.306541333
2669.126,-9.205779667
2670.091,-9.178857667
2671.055,-10.889012
2672.019,-12.27701
2672.983,-11.400113
2673.948,-9.425178333
2674.912,-6.845718343
2675.876,-4.849324433
2676.84,-4.9059079
2677.804,-6.602881
2678.769,-9.761157667
2679.733,-12.68254467
2680.697,-10.20768233
2681.661,-6.318978
2682.626,-7.713444667
2683.59,-10.29669567
2684.554,-9.407901333
2685.518,-6.982081333
2686.483,-5.044994667
2687.447,-4.066341
2688.411,-4.778328333
2689.375,-6.164762667
2690.34,-5.687566533
2691.304,-3.883927333
2692.268,-5.109464333
2693.232,-8.795327667
2694.197,-9.073664
2695.161,-7.002548667
2696.125,-6.3298177
2697.089,-6.6196701
2698.053,-5.784187667
2699.018,-4.524391
2699.982,-5.552939
2700.946,-8.461303667
2701.91,-9.696312667
2702.875,-8.68702
2703.839,-7.762346
2704.803,-6.657575367
2705.767,-5.826083
2706.732,-5.519661667
2707.696,-5.54537
2708.66,-6.025651
2709.624,-7.650693333
2710.589,-9.765755
2711.553,-9.746142
2712.517,-7.580663667
2713.481,-6.199567
2714.446,-6.793870667
2715.41,-8.239770667
2716.374,-10.22366433
2717.338,-10.864803
2718.302,-9.587500667
2719.267,-7.590819433
2720.231,-4.517968667
2721.195,-2.608357667
2722.159,-2.388777667
2723.124,-3.651407933
2724.088,-6.171492667
2725.052,-7.431941333
2726.016,-6.039925
2726.98,-5.024659
2727.945,-7.1016271
2728.909,-9.588842667
2729.873,-10.34029867
2730.837,-10.81131967
2731.802,-11.936773
2732.766,-11.68715
2733.73,-9.453661667
2734.694,-6.921827467
2735.659,-4.203304333
2736.623,-3.415039
2737.587,-6.140551667
2738.551,-8.489902333
2739.516,-6.576546333
2740.48,-3.689925233
2741.444,-3.627319333
2742.408,-5.081152667
2743.373,-7.497168
2744.337,-9.708334333
2745.301,-11.14501933
2746.265,-11.01936
2747.229,-8.298398933
2748.194,-5.858528333
2749.158,-5.652352
2750.122,-6.3517666
2751.086,-6.301969667
2752.051,-6.121810667
2753.015,-7.394993833
2753.979,-9.013843333
2754.943,-9.551634667
2755.907,-9.105176667
2756.872,-5.928214667
2757.836,-2.795361167
2758.8,-3.351285667
2759.764,-5.229687667
2760.729,-5.778084667
2761.693,-5.433953333
2762.657,-4.753401667
2763.621,-4.113712667
2764.586,-4.238794
2765.55,-4.537443333
2766.514,-2.244783333
2767.478,0.7219158
2768.443,-1.757381333
2769.407,-5.750359033
2770.371,-3.3401368
2771.335,1.0881511
2772.3,-0.653523667
2773.264,-4.659684333
2774.228,-2.769702333
2775.192,1.602986667
2776.156,2.018279233
2777.121,-0.012866
2778.085,-0.98024
2779.049,-1.481982233
2780.013,-3.392179433
2780.978,-5.5918544
2781.942,-6.007519333
2782.906,-4.798803333
2783.87,-1.7370199
2784.834,1.121215667
2785.799,0.248291333
2786.763,-2.338704333
2787.727,-1.236849333
2788.691,2.426229
2789.656,3.822184333
2790.62,2.9702228
2791.584,2.678841067
2792.548,2.84624831
2793.513,1.492415
2794.477,-0.765153303
2795.441,-3.194091833
2796.405,-4.963380467
2797.37,-3.845303767
2798.334,-0.687793
2799.298,1.287817333
2800.262,1.557226667
2801.227,0.6279458
2802.191,-0.285050667
2803.155,2.830622767
2804.119,8.411986
2805.083,10.11748133
2806.048,7.897638667
2807.012,3.975496433
2807.976,0.573827993
2808.94,-0.070752
2809.905,1.233187
2810.869,1.842985333
2811.833,1.523902667
2812.797,2.465022333
2813.761,4.627018
2814.726,2.7867839
2815.69,-2.497640333
2816.654,-2.056355667
2817.618,2.4028985
2818.583,4.169889333
2819.547,3.123047067
2820.511,1.522721433
2821.475,-0.148779467
2822.44,-3.102693633
2823.404,-6.102896333
2824.368,-4.563761667
2825.332,0.242806333
2826.297,2.840730333
2827.261,3.582064
2828.225,2.076986
2829.189,-1.001489333
2830.154,-3.79458
2831.118,-5.876806633
2832.082,-5.9197758
2833.046,-4.479631333
2834.01,-2.8993325
2834.975,-1.6871339
2835.939,-2.2026449
2836.903,-4.155460333
2837.867,-3.821297343
2838.832,-1.186092
2839.796,-0.607055667
2840.76,-1.443058367
2841.724,-0.235961667
2842.688,1.246272833
2843.653,-2.1328532
2844.617,-7.476000667
2845.581,-8.688240333
2846.545,-6.529580633
2847.51,-4.607714667
2848.474,-3.243514
2849.438,-2.7324709
2850.402,-3.011564333
2851.367,-3.788257
2852.331,-4.773933667
2853.295,-4.834106433
2854.259,-3.812882667
2855.224,-1.547330667
2856.188,0.659846633
2857.152,1.506852
2858.116,1.226334667
2859.081,0.119116333
2860.045,-1.8428711
2861.009,-4.9818353
2861.973,-8.775113
2862.938,-9.210301667
2863.902,-6.97255
2864.866,-5.864005667
2865.83,-5.382413667
2866.794,-4.014941667
2867.759,-2.730477
2868.723,-2.951237333
2869.687,-3.738696667
2870.651,-4.519107667
2871.615,-4.5122234
2872.58,-1.068807
2873.544,4.196769333
2874.508,5.421492333
2875.472,3.556868667
2876.437,-0.559611
2877.401,-4.608251667
2878.365,-3.858089
2879.329,-1.261922433
2880.294,-0.270996333
2881.258,-0.663802167
2882.222,-2.433634567
2883.186,-3.563655333
2884.151,-0.986230667
2885.115,3.309594667
2886.079,5.4301517
2887.043,6.007976
2888.008,5.8114348
2888.972,5.242538667
2889.936,4.4897788
2890.9,3.696492667
2891.865,3.477921333
2892.829,2.974226833
2893.793,0.6245606
2894.757,-0.695523867
2895.721,2.731599667
2896.686,6.754792
2897.65,4.60861
2898.614,0.395068167
2899.578,-1.736955033
2900.542,-2.742317833
2901.507,-2.482828837
2902.471,-0.8170409
2903.435,3.283040333
2904.399,6.109562067
2905.364,5.361523333
2906.328,2.667440033
2907.292,-0.553637667
2908.256,-2.789347433
2909.221,-2.273925667
2910.185,-1.155615333
2911.149,-1.642260933
2912.113,-2.179443333
2913.078,-1.423811713
2914.042,-1.05996097
2915.006,-1.586157
2915.97,-1.345695
2916.935,-0.090022667
2917.899,-0.610978333
2918.863,-3.935262033
2919.827,-6.000797333
2920.792,-4.133325
2921.756,-1.812475333
2922.72,-0.023071333
2923.684,-0.228141
2924.648,-3.8131673
2925.613,-5.485750167
2926.577,-5.491373667
2927.541,-6.208894667
2928.505,-4.012866
2929.469,8.566022333
2930.434,27.54586
2931.398,34.04223333
2932.362,20.52826333
2933.326,4.8355145
2934.291,-2.69021
2935.255,-2.087654667
2936.219,3.051863667
2937.183,4.619506667
2938.148,3.249641667
2939.112,0.7823323
2940.076,-2.079663
2941.04,-3.517472333
2942.005,-3.293953467
2942.969,-2.344661733
2943.933,-0.973551333
2944.897,-0.947941
2945.862,-2.406006
2946.826,-1.4200523
2947.79,1.452482
2948.754,-0.552913667
2949.719,-5.353149967
2950.683,-4.894554333
2951.647,-0.72045078
2952.611,2.050178967
2953.575,2.974601
2954.54,2.875529333
2955.504,2.234936333
2956.468,2.736954667
2957.432,3.871745
2958.396,3.228328
2959.361,1.627034333
2960.325,0.079671
2961.289,-0.708341467
2962.253,0.837011733
2963.218,3.0602212
2964.182,3.395727667
2965.146,3.403523667
2966.11,5.020353333
2967.075,6.980631
2968.039,7.489998333
2969.003,7.085569533
2969.967,6.112436333
2970.932,4.811126
2971.896,2.761506967
2972.86,2.241333
2973.824,6.597925767
2974.789,8.0767
2975.753,2.519563793
2976.717,-2.97727
2977.681,-3.601546333
2978.646,-0.934098333
2979.61,4.342016533
2980.574,8.142799
2981.538,5.859774
2982.502,3.658252
2983.467,3.611197733
2984.431,3.9272461
2985.395,4.507063667
2986.359,4.268766333
2987.323,3.197762
2988.288,5.211979333
2989.252,10.86437
2990.216,13.11862
2991.18,9.024592333
2992.145,5.673380333
2993.109,4.7731363
2994.073,2.5382243
2995.037,-1.191569333
2996.002,-1.298339633
2996.966,1.661596667
2997.93,2.868254
2998.894,2.3887941
2999.859,1.889192667
3000.823,1.979541167
3001.787,4.441845667
3002.751,8.458047333
3003.716,9.940916333
3004.68,9.4364845
3005.644,10.21876633
3006.608,10.898543
3007.573,8.028921667
3008.537,4.400162667
3009.501,4.273714
3010.465,6.186165667
3011.429,8.063515667
3012.394,9.335570667
3013.358,9.205038667
3014.322,8.345612333
3015.286,8.001375
3016.25,7.475903
3017.215,6.064681
3018.179,5.019791667
3019.143,5.104337667
3020.107,4.643351
3021.072,2.5587484
3022.036,1.832169333
3023,4.200439667
3023.964,6.588932333
3024.929,6.622534333
3025.893,6.532706667
3026.857,8.446949667
3027.821,9.964991667
3028.786,9.490867
3029.75,9.152928667
3030.714,9.367121
3031.678,8.179322667
3032.643,6.044596667
3033.607,5.3949315
3034.571,6.262184333
3035.535,7.578231
3036.5,8.587884
3037.464,8.005419
3038.428,6.254435333
3039.392,5.723966333
3040.356,6.317536767
3041.321,6.901732267
3042.285,7.356119667
3043.249,7.832121
3044.213,7.929174667
3045.177,6.175496667
3046.142,3.828336667
3047.106,3.957251
3048.07,5.800716
3049.034,7.628247333
3049.999,8.899227
3050.963,8.187036
3051.927,7.063931
3052.891,7.187541333
3053.856,7.857242333
3054.82,9.390698
3055.784,9.758513
3056.748,8.016446333
3057.713,6.127864667
3058.677,5.1863292
3059.641,4.301774667
3060.605,2.581933667
3061.57,1.956787333
3062.534,4.988785
3063.498,6.878514
3064.462,6.396681
3065.427,5.469018667
3066.391,4.323429333
3067.355,4.76971
3068.319,6.805763333
3069.283,7.278491667
3070.248,5.6223628
3071.212,4.9470944
3072.176,5.986751233
3073.14,5.375935333
3074.104,3.264607667
3075.069,3.705037433
3076.033,5.627091667
3076.997,7.317734
3077.961,8.581118833
3078.926,9.001839167
3079.89,8.746752
3080.854,7.322307
3081.818,5.620670667
3082.783,5.158870567
3083.747,6.026546667
3084.711,8.043351667
3085.675,9.686100667
3086.64,9.398170333
3087.604,8.884789767
3088.568,9.392846667
3089.532,9.732339
3090.497,9.302832333
3091.461,7.306796667
3092.425,3.950903667
3093.389,2.823486333
3094.354,5.697192333
3095.318,7.921199333
3096.282,6.182763667
3097.246,6.559545667
3098.21,9.922592
3099.175,12.073029
3100.139,12.95274267
3101.103,12.13457
3102.067,10.099504
3103.031,7.012873667
3103.996,3.804020333
3104.96,4.301928667
3105.924,7.714526667
3106.888,9.08457
3107.853,8.472273
3108.817,6.123307333
3109.781,3.369181
3110.745,2.946352667
3111.71,3.9441895
3112.674,6.273942333
3113.638,7.707113667
3114.602,6.664738333
3115.567,4.824145667
3116.531,3.275496667
3117.495,3.300220667
3118.459,7.061369333
3119.424,9.733991667
3120.388,6.415665667
3121.352,4.617000333
3122.316,6.477506667
3123.281,6.910626867
3124.245,5.169783667
3125.209,4.700301
3126.173,6.168432667
3127.137,9.535798333
3128.102,14.29582667
3129.066,15.18565333
3130.03,11.951969
3130.994,12.39321067
3131.958,15.75593367
3132.923,14.77661133
3133.887,11.76125467
3134.851,12.14943133
3135.815,13.78102967
3136.78,13.137898
3137.744,12.02985
3138.708,12.42243
3139.672,12.80711967
3140.637,11.21418567
3141.601,9.738241
3142.565,10.99325367
3143.529,12.82115867
3144.494,15.350555
3145.458,15.835415
3146.422,13.28845167
3147.386,10.24234067
3148.351,7.671947667
3149.315,7.576025333
3150.279,10.21323833
3151.243,11.47143733
3152.208,10.038411
3153.172,9.531893667
3154.136,9.701090667
3155.1,8.928965
3156.064,7.422688667
3157.029,5.553442333
3157.993,4.588745
3158.957,5.987409667
3159.921,8.314045333
3160.885,9.691896333
3161.85,10.58757533
3162.814,11.89763067
3163.778,12.54676167
3164.742,10.64264967
3165.707,7.999909333
3166.671,5.198339667
3167.635,4.546256333
3168.599,6.673893333
3169.564,9.471818667
3170.528,12.101463
3171.492,12.62874267
3172.456,10.79556333
3173.421,8.566950333
3174.385,6.764248
3175.349,6.690657
3176.313,8.209863
3177.278,8.730762333
3178.242,8.464078667
3179.206,8.040210333
3180.17,7.966600333
3181.135,8.663385667
3182.099,9.171135667
3183.063,8.87080931
3184.027,8.234660667
3184.991,7.193247033
3185.956,6.605891
3186.92,8.537784667
3187.884,10.127776
3188.848,8.697346667
3189.813,7.369800867
3190.777,6.506886
3191.741,7.361595367
3192.705,10.08250967
3193.669,10.15788533
3194.634,6.718563333
3195.598,3.806526667
3196.562,3.018286
3197.526,4.571801667
3198.491,8.276424333
3199.455,8.835977667
3200.419,7.144327067
3201.383,7.836092433
3202.348,9.822296667
3203.312,11.41720367
3204.276,12.02958933
3205.24,10.835571
3206.205,8.875425
3207.169,7.477784333
3208.133,6.161654
3209.097,3.343449
3210.062,2.410091333
3211.026,8.503654
3211.99,10.669873
3212.954,5.973071333
3213.918,5.069523
3214.883,9.118309
3215.847,10.01017167
3216.811,6.600284667
3217.775,3.821891333
3218.74,3.005305767
3219.704,4.826108333
3220.668,8.750099
3221.632,9.041813
3222.596,7.192039667
3223.561,6.687418667
3224.525,6.744075333
3225.489,6.539803
3226.453,5.305379333
3227.418,2.344352333
3228.382,-0.173567567
3229.346,-0.770588973
3230.31,-0.496378667
3231.275,0.557495
3232.239,1.205623
3233.203,0.850569667
3234.167,0.932243
3235.132,1.0388834
3236.096,-0.42959822
3237.06,-2.681576867
3238.024,-2.631902
3238.989,-0.962019667
3239.953,-1.489282067
3240.917,-3.175733
3241.881,-2.861809533
3242.845,-1.614794733
3243.81,-3.378214367
3244.774,-5.558405067
3245.738,-3.756949033
3246.702,-2.343522033
3247.667,-3.980403667
3248.631,-4.7368
3249.595,-3.322046
3250.559,-2.3547854
3251.523,-3.121777333
3252.488,-5.384683333
3253.452,-9.813338667
3254.416,-11.759667
3255.38,-10.61741533
3256.345,-9.15866
3257.309,-7.971802333
3258.273,-9.022055667
3259.237,-10.729336
3260.202,-9.521403667
3261.166,-7.195826967
3262.13,-5.841724
3263.094,-5.117870333
3264.059,-4.946875333
3265.023,-5.110620233
3265.987,-5.685612
3266.951,-7.158920333
3267.916,-10.78659433
3268.88,-10.802969
3269.844,-6.2492608
3270.808,-2.155436302
3271.772,-0.365364853
3272.737,-1.983935667
3273.701,-6.209644667
3274.665,-7.553336333
3275.629,-6.227919933
3276.594,-6.507551
3277.558,-7.770905333
3278.522,-6.983211667
3279.486,-5.530444333
3280.45,-5.6933687
3281.415,-5.593368532
3282.379,-4.054906523
3283.343,-1.954003713
3284.307,0.181534667
3285.272,1.278678667
3286.236,0.224300167
3287.2,0.195540333
3288.164,2.58409013
3289.129,3.767748967
3290.093,3.677954467
3291.057,1.464965693
3292.021,-0.998934
3292.986,2.098372233
3293.95,6.887589667
3294.914,5.788786
3295.878,2.319059333
3296.843,1.274072433
3297.807,2.893498
3298.771,10.53575733
3299.735,14.87984333
3300.699,5.743571133
3301.664,1.750643
3302.628,6.345199333
3303.592,8.626017333
3304.556,6.801912333
3305.521,6.355745667
3306.485,7.757268767
3307.449,6.531575633
3308.413,3.281624333
3309.377,1.938183667
3310.342,1.944075333
3311.306,2.2434404
3312.27,2.710237667
3313.234,3.484879333
3314.199,2.935709467
3315.163,-0.245711333
3316.127,-1.074080167
3317.091,3.139062667
3318.056,6.085896667
3319.02,3.611401433
3319.984,1.996289133
3320.948,2.820589333
3321.913,1.544303333
3322.877,-0.990567767
3323.841,-1.101383467
3324.805,0.266137867
3325.77,1.562736
3326.734,1.755623333
3327.698,-0.526416333
3328.662,-3.358789333
3329.626,-3.96438
3330.591,-3.353548233
3331.555,-2.199861667
3332.519,-1.565112333
3333.483,-2.372705
3334.448,-1.288867033
3335.412,1.844840667
3336.376,3.197942333
3337.34,2.063574167
3338.304,-1.372355
3339.269,-5.325235667
3340.233,-5.317114
3341.197,-2.7638833
3342.161,-1.150276667
3343.126,-0.610628333
3344.09,-1.509049667
3345.054,-3.031006103
3346.018,-5.403312333
3346.983,-5.478175
3347.947,-2.4515552
3348.911,-1.168115667
3349.875,-3.166276467
3350.84,-4.736369
3351.804,-5.035473667
3352.768,-5.152173
3353.732,-5.0377197
3354.697,-6.607934667
3355.661,-7.940291
3356.625,-4.327018333
3357.589,-0.731323333
3358.553,-1.891487633
3359.518,-2.021378667
3360.482,2.428719333
3361.446,5.39615
3362.41,1.806673133
3363.375,-1.287899
3364.339,-0.661841
3365.303,0.380647627
3366.267,1.993725667
3367.232,4.038622667
3368.196,5.359651667
3369.16,4.096834333
3370.124,2.5727864
3371.089,3.794555667
3372.053,5.643579
3373.017,5.681243
3373.981,4.759213
3374.946,3.149129333
3375.91,2.753580993
3376.874,3.745525333
3377.838,5.116081667
3378.802,6.591953
3379.767,7.398282667
3380.731,7.457477333
3381.695,6.147249
3382.659,4.024558933
3383.624,2.487972
3384.588,1.8203044
3385.552,3.1414712
3386.516,4.675586333
3387.48,4.434522333
3388.445,4.593147867
3389.409,6.010164
3390.373,5.906942
3391.337,4.052132
3392.302,2.426326667
3393.266,1.771565633
3394.23,4.231372
3395.194,8.519276433
3396.159,8.085914
3397.123,4.971753
3398.087,2.4273764
3399.051,1.475415
3400.016,4.787988
3400.98,5.749795333
3401.944,1.500610667
3402.908,-0.867675667
3403.873,1.896826267
3404.837,4.25638
3405.801,4.126034067
3406.765,3.270963267
3407.729,1.090356333
3408.694,-0.630810333
3409.658,-1.641129633
3410.622,-1.767553833
3411.586,-1.411328
3412.551,-2.19222
3413.515,-2.534652
3414.479,-0.931754333
3415.443,-0.797892333
3416.407,-5.067097667
3417.372,-7.064087333
3418.336,-4.175114
3419.3,-2.337785
3420.264,-1.351814633
3421.229,-1.526619567
3422.193,-1.756835567
3423.157,1.187841167
3424.121,3.232038333
3425.086,0.474022667
3426.05,-4.306851
3427.014,-9.273257
3427.978,-10.78743533
3428.943,-3.956429
3429.907,0.504850333
3430.871,1.675667
3431.835,0.175553
3432.8,-2.719498333
3433.764,-4.98081
3434.728,-5.7930835
3435.692,-3.083129733
3436.656,-0.272151333
3437.621,-2.803499667
3438.585,-6.286035333
3439.549,-4.771704267
3440.513,-3.900114333
3441.478,-6.525366
3442.442,-5.846411333
3443.406,-1.542439333
3444.37,-1.230932667
3445.334,-4.714494
3446.299,-5.029020333
3447.263,-2.888011667
3448.227,-1.996842667
3449.191,-1.873185
3450.156,-0.858715667
3451.12,-0.736246943
3452.084,-5.412036167
3453.048,-6.65496275
3454.013,-3.075577667
3454.977,-0.801383233
3455.941,-1.107381333
3456.905,-3.032495
3457.87,-5.295215
3458.834,-5.172868
3459.798,-3.335017667
3460.762,0.524567333
3461.727,2.817913
3462.691,-2.609473333
3463.655,-7.445321267
3464.619,-8.940137
3465.583,-6.784066
3466.548,-1.808048667
3467.512,0.166341067
3468.476,-2.201375267
3469.44,-2.4217772
3470.405,-0.378491333
3471.369,-1.941577
3472.333,-5.185148333
3473.297,-7.068246
3474.261,-7.949422767
3475.226,-6.387093667
3476.19,-4.89160089
3477.154,-4.62937
3478.118,-6.391463333
3479.083,-10.31195467
3480.047,-11.24411567
3481.011,-8.883968333
3481.975,-8.459986667
3482.94,-9.062483667
3483.904,-8.868945533
3484.868,-8.779199667
3485.832,-11.811158
3486.797,-13.48271567
3487.761,-11.522069
3488.725,-10.885262
3489.689,-13.95708133
3490.654,-15.22586
3491.618,-13.14091767
3492.582,-10.071704
3493.546,-6.608203333
3494.51,-5.855247667
3495.475,-7.329483333
3496.439,-12.26483567
3497.403,-16.03215533
3498.367,-16.19709467
3499.332,-13.83666167
3500.296,-9.7405693
