Raman.Shift,Mud Tank,Run Product (0 Hr),Avg. Starting Material,Run Product (8 Hr),Run Product (1 Hr)
299.2819,0.0,-1.56234598,-0.47979880333333336,0.0,-0.230071899
300.2461,2.423145,-1.58766868,-0.4866780876666667,-1.0746705,-0.177706656
301.2103,3.453701,-1.77736842,-0.5873530370000001,-0.8412015,-0.266554222
302.1746,4.80127,-2.44733574,-0.4995059176666667,0.6703215,-0.658927731
303.1388,5.384395,-2.7435982,-0.2316505183333333,2.185172,-0.897415984
304.103,4.268633,-1.929168884,0.03889433333333334,3.221719,-0.646659167
305.0673,1.005352,0.3463448,0.27693929666666667,3.76398925,0.2314566
306.0315,-1.330254,1.5003176,0.50943394,3.74318535,0.721689383
306.9957,-2.696758,0.3779948,0.5453956983333333,2.2712095,0.423946111
307.96,-3.062227,-1.11708148,0.2339244,1.0321135,-0.020026652
308.9242,-1.8871,-2.1213434,-0.07193533000000003,1.102582,-0.356305244
309.8884,1.116016,-2.3001818,-0.20429439733333332,2.9414735,-0.490463042
310.8527,4.129873,-2.12509858,-0.11413772999999999,4.97525605,-0.425858664
311.8169,5.614775,-1.864803274,-0.014476233333333347,5.8072647,-0.086655489
312.7811,6.299922,-1.59219602,-0.08710934166666666,6.14183475,0.358803289
313.7454,6.550742,-1.40002482,-0.2038157016666667,6.422395595,0.7799338
314.7096,6.637617,-1.34499926,-0.212484643,6.9508374,1.091053867
315.6738,6.723164,-1.33538722,-0.030256353999999996,7.724559,1.362975122
316.6381,7.312246,-1.08918704,0.1741826,8.6162255,1.838761789
317.6023,8.320029,-0.62324442,-0.31603099166666665,9.643371,2.483231133
318.5665,9.57208,0.139528884,-1.2131655423333332,10.9657775,3.26999779
319.5308,10.92413,1.29441049,-1.7883600800000001,12.7086925,4.197622078
320.495,12.35976,3.0017664,-1.4414092716666669,14.943452,5.343043556
321.4592,13.74423,4.0210072,0.06533621333333328,17.21335,6.104512556
322.4235,15.08423,4.1278442,0.9375722166666666,19.59207,6.336293667
323.3877,16.31094,3.9920846,0.898249875,21.887945,6.443116667
324.3519,17.52011,4.1078338,0.6732964899999999,23.81311,6.711443667
325.3162,19.00737,4.6495078,0.7687269033333334,24.991815,7.219393111
326.2804,19.87903,5.047058,1.3057640633333334,27.235295,7.738170556
327.2446,19.04565,4.8474498,1.6140206199999998,31.431195,8.161515111
328.2089,18.23493,4.63694334,1.6222221666666667,36.115875,8.572906778
329.1731,18.67236,4.878702,1.4982060783333333,40.10794,8.982633889
330.1373,21.01708,5.8647022,1.3231143796666667,42.60368,9.357180111
331.1016,24.56186,7.2046964,1.1138510166666666,44.683645,9.960100111
332.0658,29.05957,8.43141054,1.0164944083333334,47.335325,10.96798256
333.03,33.8757,9.6728976,1.1439110866666666,50.479975,12.29389811
333.9943,38.20008,11.1058272,1.4093887833333334,53.92832,13.89133444
334.9585,41.28432,12.8818196,1.74629472,57.48716,15.71460667
335.9227,43.5149,14.9797812,2.0939633816666667,61.588065,17.78069333
336.887,47.00384,17.0072136,2.4248610833333335,67.74327,19.97463333
337.8512,51.6231,18.934565,2.581329566666667,75.76419,22.26570778
338.8154,57.57791,20.8434682,2.5599317166666666,85.519535,24.66879222
339.7797,65.04855,22.7360822,2.6394013600000004,96.801425,27.14454667
340.7439,74.10839,24.2184332,3.1307448683333328,109.40585,29.42769
341.7081,84.83332,27.061304,4.243287550000001,124.70875,32.74324778
342.6724,94.80953,31.089654,5.298522599999999,139.3316,36.39375889
343.6366,107.4706,36.334294,6.056293983333333,157.9433,41.28827556
344.6008,124.8631,42.547834,6.9222991,182.74115,47.94097111
345.5651,145.4128,49.017116,8.165279483333334,209.97775,55.87114333
346.5293,178.1775,58.3423,9.65774895,257.956,67.57378444
347.4935,207.3164,67.643114,12.095267333333334,311.01025,78.79868889
348.4578,253.5424,80.82813,15.178375166666664,389.218,95.00907111
349.422,324.5742,98.434808,19.233081166666665,501.3437,117.0376689
350.3862,416.3935,118.220892,24.6772175,645.46045,141.88162
351.3505,587.4926,156.728232,31.859947166666668,873.86345,192.0242222
352.3147,931.5544,220.850006,40.4392485,1265.4065,281.5280444
353.2789,1375.528,311.2587,50.63703233333333,1754.3685,406.6201778
354.2432,1832.994,441.67978,61.35642049999999,2267.099,578.1459
355.2074,2219.171,626.74512,70.87100116666666,2731.6795,808.1899889
356.1716,2506.952,864.49362,77.44547083333333,3122.564,1092.2537
357.1359,2479.271,1001.80954,80.39773466666666,3191.4435,1232.300656
358.1001,2099.594,1043.17894,78.3812605,2914.5475,1226.924322
359.0643,1583.495,1007.25248,71.02865883333334,2470.4275,1127.058278
360.0286,1149.712,900.8944,60.946740166666665,2031.22,973.2273111
360.9928,811.8359,669.21876,50.64164116666666,1565.893,716.5657
361.957,558.7009,484.36952,39.268158,1192.0995,514.7533444
362.9213,401.4271,353.46602,30.040409166666667,920.0271,376.2041111
363.8855,301.2859,258.92122,22.872756916666663,715.88235,278.7868222
364.8497,230.33,189.20384,17.289620416666665,556.58455,207.5982444
365.814,186.3289,145.92266,13.066048666666667,442.16005,163.8353111
366.7782,156.6022,116.91265,10.365611092666667,357.74745,133.9780011
367.7424,134.1661,95.764546,8.573335633333334,293.7568,110.7208356
368.7067,116.8747,79.954292,7.426774891666668,244.08655,92.32432222
369.6709,103.626,67.743288,6.62919965,204.5424,77.76612667
370.6351,93.84827,57.91869,5.8888076,172.15805,66.3498
371.5994,86.47867,50.15885,4.961771724999999,147.3239,57.61905444
372.5636,77.77316,42.873648,4.0333522,128.0959,49.57722556
373.5278,68.3625,36.209016,3.5384690066666664,113.2722,42.31376333
374.4921,60.1227,30.784174,3.381617643333333,101.36435,36.37866889
375.4563,54.90373,27.1760692,3.2814985416666667,90.891255,32.28473
376.4205,53.40992,25.714522,2.9348796000000004,82.179585,30.38630444
377.3848,51.48725,24.39451,2.2120796833333336,75.03006,28.27993444
378.349,49.00988,23.349204,1.77475947,69.39748,25.69394778
379.3132,46.40542,22.32748,1.8003216333333334,64.91646,23.25026333
380.2775,43.59726,21.03287,1.9447508083333336,61.364065,21.56041667
381.2417,39.47053,19.184736,1.87346107,58.83703,20.94352778
382.2059,38.21313,17.7602892,1.4205571849999998,56.89345,20.24259556
383.1702,41.48141,16.868872,1.165942588,55.47487,19.10526556
384.1344,46.16122,16.2905936,1.2662050406666665,54.497655,17.98370667
385.0986,49.51012,15.9188862,1.4857422333333332,53.7836,17.20360667
386.0629,49.87212,15.751087,1.6470650000000002,53.163865,16.9252
387.0271,51.85838,15.7448608,1.6594582333333332,53.34541,16.97322922
387.9913,59.05072,15.3173894,1.6586568533333332,54.97935,16.87412944
388.9556,69.29356,15.1232592,1.8263614,57.448165,17.01028367
389.9198,82.30674,16.0184516,2.1035836210000003,60.49323,17.85075511
390.884,97.67871,18.558182,2.4116192186666665,63.894545,19.70362567
391.8483,112.6935,22.096438,2.6702571716666665,67.250625,22.29098111
392.8125,117.9891,24.499674,2.8384819300000004,69.535905,25.08942556
393.7767,115.4441,25.971714,2.8864747583333332,70.83716,27.92781889
394.741,108.1593,26.43547,2.8126537500000004,70.555535,29.41366444
395.7052,98.01192,25.735634,2.7310000533333336,68.09397,28.33572667
396.6694,84.33582,23.641162,2.8053018916666663,62.979775,24.07534889
397.6337,71.93987,21.539598,3.235133715,58.67871,20.93394333
398.5979,59.06028,19.1179772,3.226913585,54.44139,18.91910533
399.5621,48.38879,16.9789966,2.4209303566666667,51.27323,17.542936
400.5264,41.7249,15.477313,1.6133545233333333,49.990675,16.67358878
401.4906,39.6205,14.699785,1.2682561093333333,50.9116,16.36534967
402.4548,39.09312,14.231782,1.5045020426666664,52.120635,16.19046756
403.4191,39.58098,13.9157132,1.8061286250000002,51.877675,16.04662533
404.3833,40.77337,13.8059696,2.0341045016666666,52.57034,15.93815711
405.3475,42.86808,13.8914648,2.234659103333333,56.11523,15.75384411
406.3118,45.81566,14.1914338,2.359260326333333,62.979645,15.49398333
407.276,48.73009,14.880604,2.4049317796666667,70.473845,15.52453222
408.2402,49.47336,16.30565,2.5597944866666666,74.07389,16.34729222
409.2045,49.8968,18.1206834,3.395818188333333,76.65206,17.67512889
410.1687,51.89544,20.144276,4.485441566666666,80.747085,19.40083222
411.1329,56.30788,22.294732,5.2432732,87.57745,21.46630889
412.0972,62.68225,24.570112,5.373532123333334,96.809245,23.84500222
413.0614,69.17155,26.997288,4.95416642,107.85125,26.6296
414.0256,76.0924,29.641176,4.933702186666666,121.20385,29.94672
414.9899,81.18756,32.100948,5.407385486666667,131.09515,32.45443
415.9541,82.9421,34.403084,5.814082666666667,134.3242,33.29233778
416.9183,81.30431,36.529472,5.916193083333333,130.8361,32.44649778
417.8826,80.44717,37.478088,5.70979385,127.9679,32.29873333
418.8468,79.74077,36.064154,5.527434566666667,125.72015,33.45223333
419.811,80.51629,34.822802,5.588874266666667,124.11875,34.61521556
420.7753,83.31113,34.38872,5.615827499999999,122.5159,35.34062
421.7395,88.02386,34.762908,5.3239466,121.23285,35.70957333
422.7037,93.77744,35.378754,4.7260600833333335,122.11705,36.39167444
423.668,98.79126,35.398758,4.269362011666666,126.9408,37.43071
424.6322,106.345,36.109046,4.62654565,134.43355,39.35330111
425.5964,116.1111,37.832024,5.258375975,142.1928,42.07443667
426.5607,129.4735,40.719124,5.849581033333333,151.67605,45.83400556
427.5249,148.2535,44.694942,6.362984683333334,166.38165,50.93288667
428.4891,172.8667,49.358418,6.929747799999999,190.03195,57.40114889
429.4534,208.6443,55.676712,7.7326611666666665,225.92385,66.38304111
430.4176,259.187,64.269344,8.872744433333333,273.5167,78.09323444
431.3818,326.1741,75.485398,11.02006155,333.88535,92.94035667
432.3461,417.8003,90.681438,14.368187333333333,415.74925,113.36842
433.3103,556.5198,113.422288,18.79035,542.5862,145.7711311
434.2745,758.8005,140.381494,23.865378333333336,718.25085,185.9863622
435.2388,995.1453,188.084814,30.456464999999998,956.54145,256.3080222
436.203,1338.02,264.07354,36.60515683333333,1331.05,373.0545778
437.1672,1704.564,359.71584,42.95627316666667,1758.0915,517.6225556
438.1315,1926.565,462.96202,48.86687833333334,2075.13,659.1533778
439.0957,1928.384,610.08238,52.9089375,2267.995,837.1532889
440.0599,1821.415,702.2455,54.30148383333333,2294.349,935.7170111
441.0242,1573.854,712.16818,53.19866466666667,2082.071,912.0591
441.9884,1261.078,663.55038,48.91130666666667,1737.588,809.5265111
442.9526,969.7209,581.7671,42.529146499999996,1383.865,677.6598556
443.9169,749.0745,467.53742,35.49281033333333,1079.676,531.9313
444.8811,589.2901,355.2864,28.884366166666666,839.92885,400.8439667
445.8453,468.6791,272.77606,23.232562333333334,663.29985,304.5206444
446.8096,380.5798,214.9504,18.86809883333333,538.39065,236.9130444
447.7738,316.3484,173.926694,15.682758583333333,449.41075,188.9175889
448.738,268.5517,142.664078,13.35366425,382.3807,152.4037578
449.7023,237.1996,121.415948,11.4975381,337.21725,127.7330867
450.6665,208.7939,103.591178,10.185148216666667,295.64935,107.6873944
451.6307,182.8849,88.82589,8.99433635,257.13485,91.91885111
452.595,160.2053,76.643458,7.970051333333333,222.51635,79.32904444
453.5592,141.8489,66.964956,7.088370633333334,192.62305,69.29531222
454.5234,129.079,60.613022,6.3556455666666665,167.6514,62.59162111
455.4877,117.1178,54.711302,5.8506812833333335,147.62375,56.57449444
456.4519,104.3787,49.076818,5.480769249999999,132.35015,51.10117556
457.4161,93.4706,44.076758,5.102297433333334,120.43845,46.31852444
458.3804,86.85782,39.937796,4.7390484666666675,112.03105,42.41762444
459.3446,85.43536,36.661162,4.434567075,107.45845,39.43794444
460.3088,83.83914,34.0441,4.218255016666666,102.968,36.84383778
461.2731,78.59019,32.500772,4.0229700799999994,94.64062,34.48487444
462.2373,72.75697,31.166536,3.808869779666667,87.055775,32.28082
463.2015,67.9143,29.331902,3.5928525199999997,83.498055,30.09372111
464.1658,64.72203,26.826492,3.332880841666667,84.92372,27.91198667
465.13,62.84086,24.35577,3.020315275,88.987935,25.99823111
466.0942,62.02485,23.46295,2.7209715249999995,91.519045,25.16522222
467.0585,61.81832,23.5002826,2.8776931299999995,93.20154,24.87877778
468.0227,62.40265,24.0170942,3.386439733333333,95.296595,24.52437111
468.9869,63.87427,24.851646,3.913956283333333,98.29663,23.87650333
469.9512,65.62499,25.907548,4.386858449999999,101.685785,23.06186333
470.9154,64.13831,26.644394,4.830788276,102.536265,22.71724444
471.8796,57.6582,27.444972,5.022088175,101.08806,23.46518667
472.8439,51.95669,27.3472,4.7460541916666665,97.072405,23.52652111
473.8081,48.37392,25.63387,4.497558066666667,88.89487,22.32587111
474.7723,46.23376,22.683064,4.406986833333334,77.57345,20.10302333
475.7366,43.18168,20.0908986,4.3840187183333335,67.26772,17.83368111
476.7008,37.4552,18.5017176,4.132806651666667,58.74585,15.38282889
477.665,32.41487,17.0035462,3.301494293333333,51.579425,13.32797667
478.6293,29.17609,15.459533,2.5692674516666667,45.75078,11.88937722
479.5935,27.19532,13.9199198,2.293264316666667,41.25439,10.92902244
480.5577,25.18162,12.4753876,2.35318825,38.22062,10.17814556
481.522,21.75156,11.0956338,2.3588885533333332,37.33542,9.467659778
482.4862,18.35298,9.7870152,1.7236831183333334,36.907925,8.778466111
483.4504,16.39279,8.498224,0.6871682943333334,35.527465,8.069570889
484.4147,15.65846,7.3520798,0.12110765833333333,33.29937,7.398055111
485.3789,15.75042,6.6443286,0.11254307200000002,30.40498,6.907865222
486.3431,16.25925,6.719935,0.4127865366666666,26.95806,6.766285
487.3074,17.0653,7.510395,0.5783834166666667,23.08946,6.933544778
488.2716,16.72457,7.2277936,0.4827149683333333,20.726045,6.506869222
489.2358,15.12025,5.6652188,0.4058968216666667,20.028485,5.346398444
490.2001,13.20017,3.918841,0.34801201666666665,19.78512,4.166859889
491.1643,11.92306,3.098576,0.2871325963333333,18.67833,3.746825667
492.1285,11.65322,3.6064154,0.17990186666666666,16.044705,4.499313889
493.0928,11.02166,3.9369142,-0.03926858899999999,14.72384,4.781606333
494.057,9.291299,4.0770676,-0.13672899333333333,14.94603,4.259755333
495.0212,7.788105,4.1027508,-0.0005049400000000093,15.76279,3.697507222
495.9855,7.426309,3.9755714,0.28335163666666663,16.82276,3.599855667
496.9497,8.447881,3.6749216,0.68394719,18.067135,4.092281778
497.9139,9.676484,3.500885,1.1759544083333333,19.15408,4.527822111
498.8782,10.02586,3.52125942,1.6216814800000001,18.77604,4.210406333
499.8424,10.62931,3.7712878,1.7601237333333335,19.00222,3.880973556
500.8066,12.41017,4.431046,1.7048271583333336,21.336325,4.084904667
501.7709,15.42759,5.4922894,1.6200423333333334,26.03296,4.916707889
502.7351,18.75071,6.6974128,1.6108906366666667,31.996135,5.940514222
503.6993,20.79808,7.4955408,1.6810065566666665,38.358945,6.192401111
504.6636,21.88393,8.0336132,1.6163574883333334,44.223125,6.002978667
505.6278,22.34734,8.7483166,1.31089984,47.02035,6.217491
506.592,22.20506,9.751828,1.0204454243333332,45.99031,7.064347444
507.5563,21.50572,10.7546216,0.8659614416666667,42.04076,8.167805111
508.5205,20.48854,10.9167564,0.8274600086666667,38.02881,8.388586222
509.4847,19.30939,9.5728082,0.6943193566666667,33.95492,6.919763889
510.449,17.42672,8.4209926,0.3128776716666666,29.8458,5.705708333
511.4132,14.4777,7.5760044,0.08757978333333331,25.66392,4.830752778
512.3774,11.01502,6.9062428,0.1658193233333333,21.52972,4.206446144
513.3417,7.769111,6.1584582,0.3961737816666666,17.493255,3.679959578
514.3059,4.280938,5.1266482,0.4655989983333333,13.12348,3.220716922
515.2701,2.065098,4.1478896,0.0754210916666667,9.657644,2.845596732
516.2344,2.245693,3.36260308,-0.3983557543333333,7.4896205,2.5957862
517.1986,3.451611,2.7046694,-0.6809349133333334,6.2457125,2.416127922
518.1628,4.224014,2.1396316,-0.7608755333333334,5.6996795,2.285433411
519.1271,3.655117,1.66869994,-0.6560450036666667,5.815988,2.212680111
520.0913,2.626504,1.21392628,-0.3894838966666667,6.108985,2.078221144
521.0555,2.527314,0.5408595,-0.03630742333333333,5.844641,1.614299611
522.0198,2.815596,-0.22013552,-0.032596086666666656,5.15643,0.989862872
522.984,2.552656,-0.92850264,-0.4260445293333333,4.176852,0.428307189
523.9482,1.114961,-1.495489248,-0.8643155583333333,2.99594105,0.078141889
524.9125,-1.351611,-1.909111,-0.99007304,1.6262085,-0.060813189
525.8767,-1.976006,-1.454592164,-0.6563333366666667,0.412985,0.232288589
526.8409,-0.3419922,0.12210592,-0.35735320433333334,-0.8387145,1.095760211
527.8052,1.241846,1.476985,-0.08334958500000005,-1.3766663,1.801397967
528.7694,1.727119,1.964651,0.15346574166666668,-0.3993195,2.019893078
529.7336,1.156572,1.6266444,0.29511883899999997,1.9976683,1.769986823
530.6979,0.8128321,1.39510308,0.32302881,3.3781555,1.456339656
531.6621,1.1479,1.29031506,0.3754459316666667,2.3200439,0.821235433
532.6263,1.158896,1.3158715,0.8037688443333334,1.30985715,0.419797868
533.5906,0.2692285,1.64999718,1.084791155,0.77773115,0.536931489
534.5548,-1.119785,2.1260026,0.7227142696666666,0.7939576,1.015868478
535.519,-1.958242,2.33333256,-0.21756716833333334,1.2459504,1.418018489
536.4833,-1.203897,1.82094124,-1.162938765,2.2071135,1.402079367
537.4475,0.1643945,1.1833291,-1.0406339873333332,3.5439305,1.253403978
538.4117,1.348428,0.739395,-0.07872507499999999,4.975107,1.068140324
539.376,2.354912,0.54109956,0.7491358133333333,6.588565,0.938609952
540.3402,3.385254,0.65175076,1.2883872433333334,8.647762,1.027295029
541.3044,4.68209,1.15623172,1.5815013433333334,11.4633825,1.525013756
542.2687,6.25583,1.99667842,1.758268046666667,15.01116,2.387395844
543.2329,7.770029,2.5035399,1.7330675400000002,18.410215,2.934896744
544.1971,9.243056,2.64580762,1.770357781666667,21.74703,3.1194804
545.1614,10.21267,2.824442828,1.9552707400000002,24.31405,3.395535933
546.1256,10.18419,3.51643796,2.230598315,25.385965,4.361906222
547.0898,8.922022,5.030095,2.5752624183333332,24.693335,6.485467778
548.0541,7.657842,5.7826998,3.0735505219999997,23.47453,7.415632222
549.0183,6.077744,5.5935486,3.1560727683333334,22.20057,6.726785667
549.9825,4.898789,5.11950114,2.4153648886666663,20.217695,5.667243333
550.9468,4.764678,4.544123219,1.439263848333333,16.476865,4.674176667
551.911,5.636377,3.8988772,0.6417671716666667,11.006547,3.822376922
552.8752,6.056914,3.3198802,0.22564415000000002,6.5885745,3.144033233
553.8395,4.170127,3.43916336,0.0590484233333333,5.9666965,3.118236889
554.8037,2.267637,3.22221142,-0.07612060333333336,6.1885225,2.915188558
555.7679,1.723926,1.6946104,-0.1780684416666667,6.4382935,1.786077211
556.7322,2.423916,-0.85063784,-0.14255011000000004,6.3261505,-0.052404556
557.6964,3.188144,-3.1709792,0.08899652666666669,5.600815,-1.658936222
558.6606,2.243526,-3.3999772,0.42479647833333334,3.56337875,-1.605484174
559.6249,0.07314453,-2.13032638,0.36692671,0.79676812,-0.352008167
560.5891,-1.562871,-1.53522166,-0.5247866833333333,-0.7343384,0.491286222
561.5533,-2.575723,-1.76414084,-1.1043271000000001,-0.9056274,0.816057289
562.5176,-3.083144,-2.3441092,-1.1501208753333334,-0.42943725,0.736453516
563.4818,-3.141572,-2.58508844,-0.8702837683333332,-0.3058013,0.375830311
564.446,-2.216641,-2.40560575,-0.636374345,-0.546023375,-0.5242983
565.4103,-2.087432,-2.03010964,-0.29397513666666664,-1.04924645,-0.942290089
566.3745,-3.317207,-1.04414546,-0.2365233,-2.1293425,-0.663074089
567.3387,-4.688467,-0.190286852,-0.8764351033333333,-3.149988,-0.158692878
568.303,-5.224365,-0.151614672,-1.706130971,-3.545801,0.331846322
569.2672,-4.710625,-1.15036442,-2.1597421513333335,-3.152719,0.850595267
570.2314,-4.319121,-2.07460154,-1.8955706796666665,-2.903018,0.916024644
571.1957,-4.362461,-2.53109156,-1.3157753383333333,-3.6292645,-0.036365668
572.1599,-4.844043,-2.81635866,-0.9567387626666667,-4.264055,-1.126870223
573.1241,-6.065078,-3.131849,-0.7075821499999999,-3.9718,-1.977484467
574.0884,-7.844512,-3.4939958,-0.4093849233333334,-2.6770812,-2.4387061
575.0526,-9.336201,-3.6935304,0.014269253333333343,-1.2178435,-2.550966322
576.0168,-8.881573,-3.2256782,0.49155777500000003,-0.914581,-2.214685389
576.9811,-7.566699,-2.4440887,0.49537195166666664,-1.1301818,-1.587172122
577.9453,-7.033486,-1.92277924,-0.20343221833333333,-1.056793,-0.766295263
578.9095,-7.573828,-1.74670129,-0.6143937383333333,-0.5805145,0.1927125
579.8738,-8.706396,-1.66844259,-0.1943522,0.120813,1.066909962
580.838,-9.436807,-1.18551526,0.8515433416666666,0.7430602,1.426489471
581.8022,-9.646182,0.00269202,1.456245025,1.3352141,1.023634011
582.7665,-9.884492,0.7139643,0.9929296733333334,1.4192751,0.665772422
583.7307,-10.29575,0.76088264,0.44314828066666667,0.4500977,0.274497307
584.6949,-10.46936,0.4782102,-0.09564735,-0.56636045,-0.028308094
585.6592,-9.768682,0.21806556,-0.49948461666666666,-0.384173615,-0.031334862
586.6234,-7.629111,0.02557582,-0.5987290833333333,1.56605235,0.463745529
587.5876,-6.287666,-0.24944558,-0.19788698166666666,3.1847015,0.6696556
588.5519,-6.990752,-0.77932182,0.30413056,3.9126405,0.178907812
589.5161,-8.003819,-1.238148,0.41573520066666664,4.2243625,-0.390144867
590.4803,-8.05372,-1.33017344,0.2634055966666667,4.3396115,-0.579114756
591.4446,-6.826602,-1.01139392,0.03460522166666668,4.351782,-0.281541
592.4088,-5.501133,-0.69426606,-0.13076606666666668,4.300894,0.057943933
593.373,-6.182608,-1.105565692,-0.24113804166666664,4.3405025,-0.208332133
594.3373,-7.295879,-1.71144302,-0.3287116066666667,4.2839995,-0.709566735
595.3015,-7.206494,-1.987901,-0.41063636333333325,3.913519,-1.188027558
596.2657,-5.652373,-1.84642896,-0.42887249666666677,3.2136935,-1.561710211
597.23,-3.424697,-1.5508787,-0.26990739599999997,2.312964,-1.838978222
598.1942,-2.160645,-1.668561092,0.06334254000000002,1.44514146,-2.044051111
599.1584,-2.04377,-2.40845834,0.2740364033333334,0.6210085,-2.189208378
600.1227,-2.606797,-2.5967802,0.13910429166666669,0.1068665,-1.996055647
601.0869,-4.714209,-1.80782058,-0.014201633333333352,0.0365755,-1.092702711
602.0511,-7.128653,-0.72419688,-0.13699608500000002,0.0946565,-0.089170644
603.0154,-8.063154,-0.32949588,-0.26848177,-0.122192365,0.135756167
603.9796,-6.825459,-1.059942014,-0.47122516333333336,-0.7112745,-0.812594959
604.9438,-5.668525,-1.5328948,-0.7570247683333333,-1.350244,-1.646795933
605.9081,-4.682138,-1.2895379,-1.0248991143333335,-2.48283235,-2.365801111
606.8723,-3.82375,-0.9241848,-1.39781728,-3.160657,-2.786773556
607.8365,-3.331338,-0.84014239,-1.7293656966666668,-2.296872,-2.590703244
608.8008,-3.259404,-1.140689978,-1.7154241133333332,0.2838745,-1.732579699
609.765,-2.891357,-1.5152852,-1.130738505,2.545792,-0.955804733
610.7292,-0.6932226,-1.77186026,-0.11284670333333331,1.518259,-1.339538333
611.6935,1.74082,-1.9811288,0.31167708333333327,-0.3680542,-2.036941111
612.6577,3.333965,-2.25779132,0.21521514066666672,-1.38165745,-2.544148222
613.6219,3.832383,-2.5456546,0.02730524666666671,-1.16608445,-2.686906556
614.5862,3.487197,-2.5901876,-0.13161990999999998,-0.39262555,-2.457280133
615.5504,2.64792,-1.89449748,-0.2652690876666666,-0.331514,-1.802766711
616.5146,1.219883,-0.28193052,-0.25113887566666665,-1.0901214,-0.63681789
617.4789,0.1252832,1.1006737,0.027172995000000005,-0.81057285,0.407042422
618.4431,-0.7098828,2.24098748,0.32392175333333334,0.84954535,1.395185156
619.4073,-1.148027,2.984609948,0.6736003816666667,3.1545655,2.112416567
620.3716,-0.7374805,2.99168972,1.0223989716666668,5.2841645,2.142094749
621.3358,1.376426,1.728752074,1.2673164066666667,7.5351895,0.995482667
622.3,2.351484,1.141800302,1.3069447866666666,8.880173,0.4566677
623.2643,1.090693,1.89529658,1.2746690483333334,8.5774715,1.096460978
624.2285,-0.4769043,2.84207422,1.3248058016666666,8.0798465,1.861922167
625.1927,-1.25582,3.25765784,1.418312265,8.3043695,2.097260578
626.157,-0.9980762,2.9756476,1.49560675,9.426303,1.666868322
627.1212,-0.3023926,2.520957599,1.506015045,10.69927,1.0717166
628.0854,1.174463,2.23916332,1.4404184850000001,11.799355,0.658516147
629.0497,2.355918,2.03892652,1.25148777,12.58922,0.302795367
630.0139,2.262568,1.92863374,0.9258973333333333,12.95348,-0.109778767
630.9781,0.9981738,1.8775697,0.6344065333333332,12.871285,-0.555412211
631.9424,-0.647793,1.815254,0.5012425533333333,12.38139,-0.891866807
632.9066,-1.654053,1.6340574,0.5353615150000001,11.541615,-0.896423219
633.8708,-1.727978,1.33313364,0.5617460416666668,10.3112415,-0.565418867
634.8351,-0.4462402,0.98344852,0.496083518,8.494495,-0.446244731
635.7993,2.330166,0.48105224,0.4226661566666667,5.720752,-0.612446667
636.7635,5.490684,0.19478754,0.342555328,3.117961,-0.788154396
637.7278,8.006894,0.640174216,0.27694702666666665,2.108554,-0.662255967
638.692,9.989161,2.13863082,0.26143150266666665,3.291287,-0.154202444
639.6563,11.17696,3.31878418,0.333862091,4.27103,0.414762078
640.6205,12.17043,4.2484506,0.41385578,5.085977,1.274744412
641.5847,12.27139,4.8108628,0.35718570166666663,5.7575595,1.938092722
642.549,10.39211,4.8832684,0.2502549533333333,6.3185805,2.138646112
643.5132,6.692939,4.4791258,0.26899123433333333,6.692926,1.8746334
644.4774,3.384971,3.7989242,0.5105860043333333,6.6291505,1.408143122
645.4417,2.411338,2.67203031,0.8675927893333334,5.6110885,0.690404911
646.4059,2.093486,1.58447862,0.7653432916666668,4.3997065,0.021964382
647.3701,1.710039,0.89923748,0.2078540386666667,3.3896175,-0.351212706
648.3344,1.158984,0.53927008,-0.149675712,2.6134995,-0.502827711
649.2986,0.4983398,0.19711032,-0.06510756666666666,1.943813,-0.686204178
650.2628,-0.242959,-0.492360698,0.3337248166666667,1.208412,-1.201554433
651.2271,-1.030215,-1.39200832,0.6369202566666666,0.527264426,-1.924580271
652.1913,-1.758945,-1.5772438,0.9308673013333334,0.58329765,-1.971479818
653.1555,-2.49915,-1.0538176,1.0497807650000002,1.3933565,-1.317384733
654.1198,-2.916358,-0.46698604,0.7644904650000001,2.1657685,-0.720655642
655.084,-2.631221,-0.31498266,0.3776074483333333,2.310199,-0.858783789
656.0482,-1.539648,-0.64003728,0.22209375666666667,1.774731,-1.855731711
657.0125,-0.9155273,-0.86697526,0.441202226,0.92968445,-2.3916018
657.9767,-0.644707,-1.12069984,0.7515119266666668,-0.947656075,-2.307343333
658.9409,-0.7453613,-1.12802448,1.1346983583333332,-2.20134585,-1.990731922
659.9052,-1.722461,-0.5921414,1.4277854833333332,-2.0196795,-1.333887446
660.8694,-3.13166,0.25845786,1.3966532416666668,-0.78707565,-0.511172433
661.8336,-3.643379,0.74849946,0.9832723716666667,0.2993654,0.003913656
662.7979,-1.840752,0.22600482,0.34454081466666664,0.62717603,-0.26365304
663.7621,-0.2611328,-0.263773222,-0.20855668666666663,0.5528673,-0.556795044
664.7263,-0.7028613,0.1601309,-0.6663150266666668,0.1619461,-0.158647991
665.6906,-2.265742,1.00880974,-0.7347531016666666,-0.330981,0.486935154
666.6548,-3.545664,1.53062028,-0.20315677500000007,-0.6293185,0.630057136
667.619,-3.502139,1.1665311,0.55314864,-0.5115615,-0.27534292
668.5833,-2.542822,0.10806436,0.8931799149999998,-0.08310545,-1.868047189
669.5475,-2.556504,-0.960547,0.6518585583333333,0.21259764,-2.662733333
670.5117,-3.403887,-1.9831638,0.36226227833333335,0.3699249,-2.793833333
671.476,-3.959355,-2.6862087,-0.19670941666666666,0.36826015,-2.8052064
672.4402,-3.600625,-2.9686871,-0.6212880783333333,0.136969,-2.984013333
673.4044,-2.502363,-2.87679392,-0.46342400999999994,-0.26606595,-3.268454111
674.3687,-1.831963,-2.5148216,0.33949854000000007,-0.4481491,-3.194988889
675.3329,-1.818203,-1.23767014,1.0324901933333333,-0.5472931,-2.181261944
676.2971,-1.931289,-0.47614716,0.6354677533333333,-0.1071152,-1.496204367
677.2614,-2.603779,-0.54950376,0.05397609,1.4458818,-1.458954533
678.2256,-3.201113,-1.02059658,-0.0801227616666667,3.353162,-1.6808605
679.1898,-2.682725,-1.40365964,0.2521559433333334,4.562308,-1.593427156
680.1541,-0.3198926,-1.63790358,0.6745614933333334,4.577286,-0.894433634
681.1183,1.67917,-1.58520228,0.6553842200000001,4.1758625,-0.2995875
682.0825,1.520488,-0.79086502,0.151660705,3.7137025,-0.284222467
683.0468,0.677666,0.08079038,-0.041900481666666635,3.351254,-0.567565642
684.011,0.4638965,0.2903949,0.1644678323333333,3.231392,-1.1065382
684.9752,1.349707,-0.36053306,0.5184130983333334,3.405275,-1.778864011
685.9395,2.69418,-1.27412708,0.8609719616666668,3.7989105,-2.228714619
686.9037,3.170664,-1.1138688,1.223197936,4.2690095,-1.470222756
687.8679,2.963418,-0.0015563,1.3842409199999999,4.884509,0.277891344
688.8322,2.829062,0.98314968,1.0385451146666667,5.8946745,1.384076192
689.7964,2.773272,1.7142901,0.7054814466666666,7.4517975,1.519718011
690.7606,2.878145,2.111887586,0.56695204,9.1254725,1.084735656
691.7249,3.362803,1.985879406,0.6267450613333333,10.160497,0.756646767
692.6891,4.44875,0.876370932,0.8111119233333333,10.136648,0.553317567
693.6533,5.238818,0.17994692,1.1883828526666667,10.2250605,0.423086834
694.6176,5.980098,0.15863345,1.5242758543333332,10.64787,0.370189689
695.5818,6.595254,0.4365917,1.5483354,11.185205,0.414549311
696.546,6.839453,0.823754614,1.3617542766666668,11.57785,0.620233378
697.5103,6.638115,1.23862884,1.1626944216666668,11.767963,0.972470293
698.4745,6.447588,1.5390148,1.0980311893333334,12.1274905,1.241237378
699.4387,6.894316,1.4927969,1.1197134050000002,13.4997175,1.140530456
700.403,7.228115,1.34792906,1.0262182833333333,14.672695,0.973666078
701.3672,6.899346,1.28887078,0.8514228733333334,14.75986,0.909652858
702.3314,6.125772,1.33497,0.765023905,14.00382,0.960802078
703.2957,5.523232,1.40434988,0.8434968953333334,13.2093,1.063092456
704.2599,5.745,1.37885432,1.0638925816666667,13.2272,1.139971856
705.2241,6.727256,1.26210456,1.3209610626666668,14.038095,1.193806311
706.1884,7.635518,1.17995446,1.60139791,15.129215,1.28214166
707.1526,8.343418,1.1073786,1.765982902,16.46664,1.406611767
708.1168,8.73461,1.14274734,1.8605787933333335,17.46917,1.5142012
709.0811,8.742422,1.417288804,1.8859512906666664,17.719425,1.641919411
710.0453,8.426123,1.957741118,1.822077495,17.236145,1.812359767
711.0095,8.154433,2.3434365,1.6590352900000003,16.61401,1.581298211
711.9738,8.122451,2.701639184,1.4671866933333335,15.794635,0.289588961
712.938,8.052227,2.7320045,1.1934104026666665,14.987185,-0.640844749
713.9022,7.758008,2.04031548,0.9353319833333334,14.207385,-0.686071889
714.8665,7.298233,1.02564194,0.9207152433333333,13.41229,-0.195769811
715.8307,6.885605,0.45822232,1.2009238666666668,12.520415,0.107298278
716.7949,6.726885,0.81259958,1.5804875449999998,11.433685,-0.190311833
717.7592,6.495781,1.43774874,1.6053409953333333,10.478605,-0.527569638
718.7234,5.87375,1.99140458,1.1033557803333334,9.945804,-0.395452289
719.6876,5.002773,2.35430788,0.6529678306666667,9.585463,-0.067294044
720.6519,4.03084,2.30959144,0.12762006333333334,9.0428545,0.134193378
721.6161,3.074805,1.78476744,-0.215813175,8.1838975,0.0490154
722.5803,2.198584,0.992539,-0.009744626666666681,7.299394,-0.214820878
723.5446,1.39084,0.47792404,0.9012902450000001,7.299237,-0.377120256
724.5088,0.5167481,0.2066504,1.3967630883333333,8.117578,-0.447192311
725.473,0.3282715,0.107794016,1.0285183583333335,8.2574585,-0.474597811
726.4373,1.431914,0.25344306,0.4515069093333333,7.2750335,-0.437175983
727.4015,3.005537,0.5293167,-0.14984538666666666,5.688269,-0.378080951
728.3657,3.487334,0.72313714,-0.62678482,4.464058,-0.400206856
729.33,2.488066,0.83132564,-0.8161269416666667,4.012967,-0.604440578
730.2942,1.440811,0.8789419,-0.518174195,3.0871875,-0.634997482
731.2584,0.1509277,0.9217741,-0.0811136833333334,0.6617233,-0.161691668
732.2227,-1.046426,0.84092608,0.09567181666666665,-1.5019716,0.1941522
733.1869,-2.04041,0.48196648,0.045513406666666624,-1.97178945,-0.188042756
734.1511,-2.757519,-0.13738898,-0.21879728833333326,-0.66344915,-1.299622178
735.1154,-2.959385,-0.700696498,-0.7245315016666667,0.71670365,-2.139358889
736.0796,-1.78999,-0.85616866,-1.478662025,0.5977952,-1.306058093
737.0438,-0.5468262,-0.90932018,-1.6962191716666666,0.0421295,-0.306645446
738.0081,-0.3487305,-1.17206984,-1.036204907,-0.147992,-0.587897983
738.9723,-1.093809,-1.58406052,-0.469100181,0.044411,-1.914858556
739.9365,-2.219102,-1.92042,-0.2223579533333333,0.3806355,-3.265495111
740.9008,-3.136719,-1.9458076,-0.221032859,0.61496255,-3.555237
741.865,-3.808154,-1.6452358,-0.313312376,0.75333395,-2.812206333
742.8292,-3.846572,-0.9139984,-0.634551035,0.7762636,-2.178734611
743.7935,-3.059863,0.51520182,-0.7532644116666667,0.61403365,-1.578861189
744.7577,-2.513643,1.424395878,-0.23357275133333336,0.546185475,-1.243281736
745.7219,-3.146465,0.7472034,0.45464678166666667,0.82919935,-1.492075022
746.6862,-4.721875,-1.2222222,0.725248585,1.3880875,-2.213061889
747.6504,-5.189551,-2.1085301,0.3207868446666667,1.6240695,-2.488326856
748.6146,-3.233936,-0.508119244,-0.3527207683333333,1.1798675,-1.801145722
749.5789,-1.430693,0.7261686,-0.4377918316666667,0.799141,-1.178355278
750.5431,0.02792969,0.84556696,-0.1276474883333333,0.58083365,-0.712398433
751.5073,0.9730762,0.394081402,0.14183678866666669,0.52436525,-0.460812267
752.4716,1.058457,0.05440748,0.30509637666666667,0.55235295,-0.542510506
753.4358,0.03216797,0.136291664,0.40629138000000004,0.60260465,-1.038152383
754.4,-1.20374,0.40983348,0.46604993000000006,0.880064455,-1.568636588
755.3643,-1.865088,0.759103298,0.33631285566666663,1.939084,-1.565627408
756.3285,-1.8729,1.02867686,0.31276127233333334,3.262787,-1.356607911
757.2927,-0.5245703,0.8984717,0.5729460266666666,4.3447465,-1.346350909
758.257,2.191524,0.34244192,0.784151325,5.021385,-1.628497322
759.2212,5.163574,-0.27555852,0.6805550883333334,5.3569105,-1.970800967
760.1854,6.07251,-0.23543676,0.2911826953333333,5.424347,-1.908407944
761.1497,4.106846,0.6856451,0.04417177333333333,5.12049,-1.295416686
762.1139,2.695303,1.444315,0.32079367833333333,4.760466,-0.795653996
763.0781,1.989766,2.381976104,0.5786245433333334,4.035764,-0.196332822
764.0424,1.584189,2.85317988,0.530541575,3.4780285,0.115067844
765.0066,1.20665,2.00753554,0.30280965833333334,3.5580335,-0.391982017
765.9708,0.8835645,-0.29203132,0.12077188833333334,4.3313995,-1.8151308
766.9351,0.7541211,-1.7809778,0.14389152333333333,5.3608565,-2.731872889
767.8993,1.249189,-1.127699048,0.33317837999999994,7.538751,-2.267821667
768.8635,1.543164,-0.28456574,0.6811340186666666,8.942035,-1.705823111
769.8278,1.04834,0.17810826,1.161268175,8.0703675,-1.466142856
770.792,0.0511914,0.2613202,1.4349425633333333,5.843774,-1.4949534
771.7562,-0.728457,0.19525896,1.3077319699999999,4.402119,-1.531520367
772.7205,-0.6995215,0.126950466,0.8701992433333334,5.4877565,-1.385473111
773.6847,-0.2105859,0.078747916,0.47449379666666663,7.624496,-1.153960489
774.6489,0.04492188,0.142270178,-0.005535094333333324,7.833986,-0.968702233
775.6132,0.108125,0.23996654,-0.226008475,6.792851,-0.850449243
776.5774,0.03882812,0.1483482,0.12717423833333338,6.043336,-0.885434256
777.5416,-0.1493164,-0.2589848,0.6196264016666666,6.408014,-1.124830067
778.5059,-0.3967383,-0.8432096,0.7808182433333334,7.5982575,-1.509353192
779.4701,-0.4188867,-1.0637264,0.44765678333333336,8.4215775,-1.801947761
780.4343,0.04829102,-0.5036178,0.015915982666666707,8.431729,-1.979039311
781.3986,0.5286816,-0.217072,-0.04129189333333335,8.8310825,-2.083990022
782.3628,1.057412,-0.6242064,0.013577429999999982,9.7847745,-2.220149756
783.327,1.455801,-1.0422268,-0.07011702766666668,10.963605,-2.220090033
784.2913,1.501748,-0.52899009,-0.2951737016666667,12.14025,-1.757754967
785.2555,1.144902,1.24421128,-0.481230611,13.36379,-0.668761059
786.2197,0.9317676,2.55608106,-0.39126506166666664,14.23595,0.070336783
787.184,1.207637,1.97964692,-0.001816835000000035,14.20317,-0.366391886
788.1482,1.56793,1.20963918,0.3205444333333334,14.041015,-0.981957162
789.1124,1.663311,1.27800392,0.6151509433333333,14.209825,-1.262451002
790.0767,1.579648,2.152850332,0.7884270916666667,14.682295,-1.164370656
791.0409,1.748545,3.121275356,0.7241447416666666,15.13438,-0.908574122
792.0051,2.690312,3.4468321,0.4694672933333333,15.25554,-0.693293296
792.9694,4.183731,3.2861572,0.3664433206666667,15.1148,-0.541641544
793.9336,5.357041,3.40306056,0.596567235,14.83349,-0.488404656
794.8978,6.199883,3.77073688,0.7966182750000002,14.423545,-0.5280198
795.8621,6.455859,4.0466144,0.8112675816666668,14.37469,-0.64629004
796.8263,5.711699,3.9316916,0.7464368566666666,15.08146,-0.888878108
797.7905,4.091152,3.48252618,0.7842963516666667,16.471035,-1.226816756
798.7548,3.475957,3.46321376,1.03487801,17.66941,-1.265365678
799.719,5.430664,4.3921758,1.37151475,18.42572,-0.838325697
800.6832,6.687149,5.1462786,1.450354916666667,19.355685,-0.261025777
801.6475,6.633721,5.6968738,1.378684676,20.39204,0.785862678
802.6117,5.940635,6.0365268,1.3920300083333335,21.68016,1.815340278
803.5759,5.131094,6.12839598,1.5689483933333335,23.525165,2.142052911
804.5402,4.171514,5.9352378,1.8216659916666667,26.08549,1.470781744
805.5044,3.989492,5.59577258,1.973989305,28.3957,0.727079833
806.4686,6.171836,4.73981252,2.0272942,29.36379,0.506705756
807.4329,9.034287,4.11059598,2.062248783333333,30.146185,0.613329856
808.3971,11.35362,4.47504144,1.8837135666666665,31.371515,0.974518644
809.3613,12.89486,5.82458696,1.7383815599999999,33.281225,1.548140156
810.3256,14.09773,7.5448342,1.8496536433333333,36.035745,2.328179944
811.2898,15.51756,8.8498636,2.1953941366666663,39.926465,3.335227033
812.254,17.12926,9.6961532,2.426148801666667,44.8907,4.533380222
813.2183,18.72849,10.333237,2.2421742793333332,48.83446,5.242816644
814.1825,20.23684,10.6227478,2.2453978199999995,51.26236,5.322285578
815.1467,22.32104,11.2598538,2.8077302926666667,54.721735,5.503707633
816.111,25.46089,12.7091774,3.630479008333334,61.388045,6.310431444
817.0752,29.58738,14.9491566,4.26741875,71.00014,7.703649778
818.0394,33.93148,17.5321534,4.446085983333333,79.549045,9.036520778
819.0037,39.17353,21.4506008,4.299412258333334,86.4959,10.32588478
819.9679,43.57749,24.369526,4.196474366666666,92.39951,11.45798156
820.9321,47.13664,25.371138,4.170923900000001,97.947205,12.36215878
821.8964,49.69247,25.384658,4.3094112,102.38205,13.12062822
822.8606,50.98605,25.476328,4.772727413333333,104.72025,13.94729144
823.8248,50.87447,26.056926,5.284768725,104.5321,14.927184
824.7891,49.61153,26.572876,5.2390299916666665,102.4228,15.52448
825.7533,46.69691,26.41651,4.255187535,98.015035,14.68548111
826.7175,43.21487,25.815362,3.6085658533333334,92.612505,13.221902
827.6818,40.13625,24.820014,3.3507414900000003,87.27127,11.82810544
828.646,37.64442,23.476372,3.289565786666667,82.220805,10.665654
829.6102,35.51799,21.8840446,3.54721736,77.294375,9.630520667
830.5745,33.49556,20.1661542,4.011412296666666,72.29904,8.576751556
831.5387,31.56521,18.2102816,4.171384883333334,67.090105,7.449279111
832.5029,29.65017,16.5261164,3.4574956166666664,62.72586,6.590474222
833.4672,27.74223,14.9293118,2.5641224166666667,59.222885,6.020074978
834.4314,26.01348,13.8401772,2.173380341666667,56.438735,5.650005211
835.3956,24.49998,13.7561804,2.1763542333333334,54.82802,5.541503667
836.3599,23.1769,14.4226742,2.4278320833333336,53.974815,5.630820889
837.3241,22.04921,14.7310224,2.8416380633333334,52.160815,5.638114333
838.2883,21.12938,14.0835124,3.3350114166666667,48.01972,5.386028111
839.2526,20.50076,13.3819584,3.3889612833333334,44.40334,5.173638556
840.2168,20.57703,13.1484366,2.660458398333333,42.80246,5.273297889
841.181,20.74274,13.047758,2.2433611133333335,42.03984,5.408555333
842.1453,20.22939,12.5877826,2.5366162376666668,40.806135,5.211604889
843.1095,18.77256,11.6346638,3.0109068666666663,38.60444,4.577848444
844.0737,16.9503,10.722133,2.963200691666666,36.133535,3.863641091
845.038,15.6757,10.959395,2.26382866,34.665215,3.698200978
846.0022,14.88435,11.852974,1.714185081,33.86757,3.908122822
846.9664,14.24032,11.6910512,1.5916859383333335,32.347255,3.883958556
847.9307,13.72096,10.2328502,1.5715426399999999,29.867845,3.550237444
848.8949,13.4308,8.4490478,1.5129938516666668,27.64347,3.151578622
849.8591,13.57123,7.5145334,1.4174432999999997,27.336725,3.015951122
850.8234,14.26964,7.6477946,1.3907835366666668,29.477695,3.241828556
851.7876,14.47177,7.2901388,1.553786696666667,30.114965,3.112760222
852.7518,13.59456,5.78746816,1.7972761383333333,27.73649,2.257996073
853.7161,12.86013,4.62451484,1.7254656633333332,25.73356,1.525297211
854.6803,12.67175,4.21447582,1.3912777466666666,25.3555,1.070526878
855.6445,12.91951,4.39540454,1.10618482,25.96675,0.906689956
856.6088,13.40531,4.927490298,1.0475238066666668,26.194185,1.083253084
857.573,14.17983,5.864514,1.1676499500000002,25.372005,1.718103489
858.5372,14.75591,6.7218198,1.2379436750000001,24.57855,2.3914993
859.5015,14.28045,7.1182098,1.1219788716666665,24.61479,2.912414556
860.4657,13.50704,7.1824802,1.08917964,25.10561,3.187123611
861.4299,13.35263,6.8993662,1.3133716933333333,25.86245,2.923279989
862.3942,14.03753,6.36407,1.5675898129999999,26.78919,2.165346233
863.3584,15.03518,5.89288,1.6891181100000001,27.78157,1.419145056
864.3226,15.4584,5.995653,1.6308299516666667,28.65699,1.495562432
865.2869,15.22981,6.7527032,1.3778380333333333,29.393955,2.494659222
866.2511,15.80583,6.8928024,0.65659102,30.062485,2.815831256
867.2153,17.48103,5.9836694,0.005999531666666669,30.76519,2.074720518
868.1796,19.21361,5.2206662,-0.06865040333333332,31.17333,1.410164544
869.1438,20.41274,5.6125668,0.29743844033333333,30.84544,1.754848411
870.108,21.11185,6.9783766,0.7386629550000001,29.90527,2.945517044
871.0723,21.64373,7.613032,0.9620919149999999,29.517325,3.458216933
872.0365,22.29534,6.510974,1.0035239450000002,30.549565,2.367985511
873.0007,22.416,5.69331648,1.087969505,31.21885,1.53446955
873.965,21.32282,5.87465524,1.1950469526666667,31.099025,1.582585681
874.9292,19.88015,6.50837124,1.3660681950000002,30.358715,2.040021622
875.8934,19.23903,7.04022944,1.8084270383333336,29.10099,2.458469789
876.8577,19.74956,7.25260662,2.25074202,27.42583,2.6547103
877.8219,20.25145,7.3054056,2.175914195,25.632475,2.675505533
878.7861,18.70746,7.5680196,1.3521693166666668,23.90458,2.580674644
879.7504,16.25756,7.684655,0.8120294499999999,22.38919,2.327090444
880.7146,15.23699,6.7818044,0.9645026126666666,21.59627,1.694564822
881.6788,15.81574,4.85412288,1.2888611083333334,21.521305,0.705179281
882.6431,16.63421,2.98153706,1.725669816,21.2756,-0.086129355
883.6073,16.22701,2.360137848,2.1197455233333335,19.843805,-0.021270304
884.5715,14.48529,3.09796718,2.1463833666666665,17.10467,0.986274992
885.5358,13.03384,3.480967684,1.4725798416666667,14.995735,1.408576833
886.5,11.67101,3.08644646,0.48244090666666667,13.84303,0.726037811
887.4642,10.73529,2.8090652,0.13591088333333334,12.804475,0.145166146
888.4285,10.83795,3.0561186,0.27426880566666667,11.66066,0.040064767
889.3927,11.31756,3.44516738,0.41994475,10.615515,0.125091133
890.3569,10.95802,3.27527716,0.3500553176666667,10.1131435,-0.1066619
891.3212,9.195068,2.23334124,0.11276257166666666,10.41326,-0.867167067
892.2854,7.664844,1.36817736,-0.11882083333333333,10.5097595,-1.543391578
893.2496,7.708047,1.53665182,-0.33300743000000005,9.2441805,-1.803688311
894.2139,8.281094,2.03229342,-0.357901695,7.821019,-1.756459211
895.1781,8.732822,2.45273746,-0.06637508500000004,7.1412595,-1.268715174
896.1423,8.935371,2.67482904,0.21375965666666671,7.3058025,-0.479060306
897.1066,9.033008,2.69453982,0.19409698833333333,8.0101395,0.209909989
898.0708,9.163028,2.49387102,-0.11560963166666667,8.9904815,0.354694611
899.035,9.357979,2.09422442,-0.38022747000000007,10.099995,-0.008869194
899.9993,9.960332,1.82103916,-0.32392228666666667,9.6668395,-0.388378651
900.9635,11.0258,1.709744766,-0.2716002866666667,7.460419,-0.826239433
901.9277,11.63987,1.55951683,-0.5319922723333333,5.3070575,-1.104638633
902.892,11.31586,1.12161934,-0.8686083066666667,3.924469,-1.108224489
903.8562,10.38112,0.56505082,-0.8881422543333333,3.2249325,-0.888715967
904.8204,9.620254,0.489382,-0.43299729000000003,2.8935075,-0.5681479
905.7847,8.934609,1.29365732,0.1921851683333333,3.1591795,-0.016186821
906.7489,8.598858,1.82544528,0.22567092499999997,3.229222,0.346999333
907.7131,8.815742,1.88474632,-0.65852698,2.666223,0.456779833
908.6774,9.121709,1.65372146,-1.1742147813333332,2.09624925,0.390339456
909.6416,9.214531,1.0010419,-0.9483646099999999,2.068822,0.116780233
910.6058,9.129443,0.092436612,-0.4544802616666666,2.557063,-0.307876089
911.5701,9.160381,-0.48052718,-0.08102763833333333,3.06390855,-0.729143956
912.5343,9.562109,-0.04322906,0.16377434333333338,3.2298034,-1.035817633
913.4985,10.14887,0.81290804,0.31093975,2.987874,-1.204305322
914.4628,10.59562,0.83649696,0.36548147333333336,2.0901869,-1.254618867
915.427,10.92548,0.2274621,0.195638793,0.76106405,-1.183458038
916.3912,11.13138,-0.34008788,-0.5930047740000001,-0.1713303,-0.936605433
917.3555,11.14318,-0.50827792,-1.5532600499999998,-0.22545167,-0.459824897
918.3197,11.04471,-0.3237506,-1.9678418183333335,0.363794,0.14787081
919.2839,11.30901,0.084499496,-1.4770036783333333,0.757608,0.511506361
920.2482,12.3578,1.11395364,-0.5867600153333333,0.6749085,0.455228192
921.2124,13.22761,1.703857918,-0.176566475,0.9446565,0.430949589
922.1766,13.98517,1.62879614,-0.11385809166666666,1.98258535,0.481493822
923.1409,14.5349,1.36085356,-0.12404997166666666,2.975102,0.523948206
924.1051,14.70667,1.16058496,-0.2453350513333333,3.2768755,0.469952711
925.0693,14.55161,1.06110674,-0.4091236413333333,2.9091125,0.329905416
926.0336,14.4683,1.06701632,-0.4452942366666666,2.51687485,0.242403774
926.9978,14.7134,1.27020731,-0.25102423333333335,2.5440734,0.302161182
927.962,15.02242,1.52836146,-0.1983827483333334,2.4682922,0.426780074
928.9263,15.26177,1.8060235,-0.5621622916666666,1.868382195,0.641785
929.8905,15.37521,2.01383094,-0.7200057000000001,0.93009945,0.840981022
930.8547,15.23853,1.95683598,-0.46869773666666664,-0.1035495,0.780310578
931.819,14.80625,1.56235772,-0.10136636,-1.08925763,0.372509094
932.7832,14.24944,1.062079922,0.028058437999999995,-2.0054903,-0.080772292
933.7474,14.02104,1.040905186,-0.16323211166666662,-2.826932,0.175355053
934.7117,14.32561,1.66406488,-0.41322286633333344,-3.552107,1.379590956
935.6759,14.56103,1.80715072,-0.398245135,-3.40359815,1.792422111
936.6401,14.31882,1.15826256,-0.3466870653333333,-1.7854064,0.925960433
937.6044,14.41546,0.428243382,-0.61097083,0.000908,-0.158881528
938.5686,15.98,0.20058502,-1.1536149643333333,1.0129976,-0.630914552
939.5328,18.84726,0.450094332,-1.54821043,1.2377823,-0.512540594
940.4971,20.18393,0.71432778,-1.3324371733333333,0.7637405,-0.274958378
941.4613,18.0603,0.9680572,-0.519749745,-1.53486625,0.123145717
942.4255,16.29361,1.04124714,0.014166011666666645,-2.944318,0.450681562
943.3898,15.84761,0.77802312,0.13476282166666667,-2.0793535,0.648539378
944.354,16.3879,0.41207064,0.14694529999999997,-0.2449646,0.744172841
945.3182,17.7649,0.16459578,0.15385713166666665,1.1042954,0.759414022
946.2825,19.73917,0.13746224,0.14521185166666664,1.430742,0.711279918
947.2467,21.50132,0.33203622,0.05199034833333333,1.370944,0.62197192
948.2109,21.7648,0.83383902,-0.16683828999999997,1.7828142,0.467118644
949.1752,21.1785,1.50310738,-0.34968411666666666,2.4961013,0.318885931
950.1394,21.67985,1.96832734,-0.4785995516666666,3.00518485,0.472689067
951.1036,23.40827,2.2068336,-0.5270211180000001,3.3001265,0.946509761
952.0679,25.28314,2.19528038,-0.382649005,3.2777955,1.211363189
953.0321,26.35683,1.7554419,-0.12082653,2.6620255,0.626276682
953.9963,26.61701,0.94005454,0.077507403,1.50157025,-0.714932702
954.9606,26.83098,0.89825626,0.06801092166666667,1.124461,-0.967405822
955.9248,26.25457,2.65482638,-0.11067181833333335,2.16705445,1.216808789
956.889,26.627,3.8694208,-0.46418095800000003,3.2040847,2.740350111
957.8533,28.63086,3.9965338,-1.0715762599999998,4.1180815,2.992994
958.8175,31.42919,3.7799772,-1.3345419416666668,5.048605,2.756344356
959.7817,34.26524,3.94289006,-0.81089053,6.122701,2.696275668
960.746,36.98312,4.5887784,0.012272963333333331,7.360167,2.952290789
961.7102,39.8417,5.1248934,0.28630410666666667,8.6088015,3.298279233
962.6744,42.2076,4.6977718,-0.16656593,8.98119,3.384713744
963.6387,45.61574,4.4510242,-0.46779199666666665,10.179598,3.727150869
964.6029,50.07705,5.536601,-0.4188845743333333,12.937626,4.5874961
965.5671,56.93995,7.7584238,-0.14467647000000006,17.92794,6.107407436
966.5314,65.19858,10.1752546,0.33750086,24.48044,8.137568333
967.4956,74.40537,12.2103242,1.045758266,32.27569,10.60528533
968.4598,92.68973,14.5118202,1.9054255633333337,45.477165,14.13436922
969.4241,148.0753,19.121279,2.8328798993333333,78.405445,20.65232756
970.3883,247.3594,21.3721592,4.0608639066666665,133.1007,24.40949089
971.3525,381.2352,40.409246,6.469911416666666,210.68135,49.03950889
972.3168,636.7107,86.99803,9.5701027,355.6323,111.4894
973.281,847.7986,140.052748,12.474059433333332,482.8684,178.8263289
974.2452,873.1599,195.531482,15.156653116666666,527.5145,237.6956056
975.2095,723.711,249.28114,17.08553965,492.2101,284.3863556
976.1737,554.223,266.37194,17.401386066666667,426.78355,291.9026222
977.1379,386.4177,211.48482,15.826546283333334,321.989,224.5406111
978.1022,254.5209,147.71858,13.695091133333333,225.7535,150.7993067
979.0664,181.0233,101.763876,10.178974083333333,160.567,100.7651956
980.0306,144.9543,70.115418,7.113773141666667,117.9708,68.46801889
980.9949,126.1387,49.31772,5.016772796666667,90.205075,47.73101
981.9591,114.284,36.813162,3.684399883333333,72.490205,34.82068222
982.9233,107.5644,29.709736,2.8206727533333336,61.564255,27.37525667
983.8876,103.4682,23.860956,2.3017253733333334,52.846655,22.143483
984.8518,102.0868,19.5224844,1.9948726703333335,46.520715,19.29881033
985.816,101.1132,17.1636358,2.0685489133333337,41.259285,17.40284156
986.7803,100.0301,17.207662,2.220009623333333,36.77721,16.61316189
987.7445,100.8068,17.729854,1.9643063850000002,34.07794,16.18236611
988.7087,105.0921,17.494988,1.3816769133333333,34.57361,15.60560967
989.673,112.2934,16.713222,0.9634383433333333,37.49952,14.98081644
990.6372,119.5611,16.475616,1.1220203416666665,39.19443,14.82018233
991.6014,125.4014,17.06389,1.7511212466666668,38.03069,15.31596656
992.5657,134.3169,17.918988,2.223454580333333,38.51153,16.05216644
993.5299,145.678,18.76047,2.56687304,41.57146,16.79002833
994.4941,161.1841,19.96671,2.862011053333333,46.38131,17.82492222
995.4584,179.5708,21.460516,2.7975960279999996,51.19647,19.13784033
996.4226,202.6423,23.464848,2.796731416666667,56.818875,20.89236944
997.3868,231.8503,26.36365,3.1136223583333336,65.477975,23.32861511
998.3511,263.3775,30.174542,3.8294650723333334,77.78238,26.41565233
999.3153,315.2725,35.863144,5.2878201,97.56581,30.90358467
1000.28,367.3923,42.186946,7.176498216666666,117.2523,35.26255167
1001.244,450.907,50.857526,10.867394716666666,145.18905,41.20140122
1002.208,709.7628,66.684816,15.974785116666666,219.7391,53.09645556
1003.172,1174.096,85.897246,23.469760333333337,348.68225,66.82247333
1004.136,1910.876,127.788366,35.76659433333333,550.67575,102.4577244
1005.101,3241.308,236.0281,53.635660666666666,906.505,205.4798244
1006.065,5760.675,434.07022,74.55158533333334,1555.726,400.3853589
1007.029,6981.639,629.87154,94.20841116666668,1917.335,590.8164889
1007.993,6334.5,929.01238,113.07080733333333,1912.9965,878.5145444
1008.958,5221.224,1108.31308,121.5646015,1752.317,1048.596156
1009.922,3820.254,1022.82706,117.73321983333335,1413.0045,957.6320444
1010.886,2401.686,770.65362,106.58840633333334,994.47595,704.9495778
1011.85,1349.503,521.37978,87.48987399999999,649.65955,463.4768
1012.815,824.385,336.20206,62.871996333333335,438.0,296.6199889
1013.779,571.8215,202.81654,42.547809666666666,304.8711,182.2977167
1014.743,426.9156,133.207788,28.77214766666667,223.91375,120.8296178
1015.707,342.1974,98.071696,19.229626,172.7385,88.32775889
1016.672,282.6925,75.020348,13.504558399999999,135.064,66.88022
1017.636,239.6918,58.77176,10.012619599999999,106.83,52.13073667
1018.6,208.0985,47.120242,7.928407983333333,85.63418,41.78876222
1019.564,183.3689,38.092894,6.761286116666667,69.286695,33.78768444
1020.528,165.1814,31.633486,6.1503509166666674,57.679165,28.07883422
1021.493,148.129,26.284312,5.789116683333333,48.66773,23.42539289
1022.457,130.7018,22.613526,5.531224515999999,44.287615,20.47489844
1023.421,116.7807,19.45928,4.7086277333333335,39.86602,17.80653444
1024.385,107.7413,16.7127024,3.3193943499999996,34.68078,15.18107311
1025.35,101.407,14.3941834,2.14933855,29.73991,12.884876
1026.314,96.23543,12.6014168,1.525319163,25.99459,11.26925322
1027.278,92.01414,11.3458346,1.2829056883333334,23.547645,10.34760233
1028.242,88.03249,10.3694658,1.2339383993333333,21.79563,9.619805889
1029.207,83.51026,9.5821714,1.543054025,20.682395,8.809344778
1030.171,79.17853,9.002395,1.6462117866666668,19.73826,8.154656689
1031.135,75.40414,8.6138912,0.9234867133333333,18.49002,7.907225078
1032.099,72.17007,8.3293368,0.2065542533333334,17.171485,7.857017
1033.063,69.78262,8.1549504,-0.09818608166666658,16.305655,7.678402778
1034.028,68.35442,8.082025,-0.12200962433333336,16.099945,7.249549333
1034.992,67.24057,7.9322604,-0.16058557499999995,16.153515,6.713629556
1035.956,64.99246,7.3083586,-0.326999415,15.638985,6.318445111
1036.92,61.11483,6.105476,-0.3796572866666666,14.350825,6.083119322
1037.885,58.04431,5.2511754,0.11451442999999999,13.4693125,5.869645878
1038.849,55.98793,4.6942874,0.8823549483333334,13.390015,5.649486734
1039.813,54.46449,4.43728818,1.1934625,13.15833,5.4688746
1040.777,53.56737,4.7164508,0.9781606333333333,12.1110955,5.369913778
1041.742,53.1065,5.2674758,0.6563153833333334,10.655587,5.322891444
1042.706,52.42586,5.394388,0.5785833166666667,9.8729015,5.267646222
1043.67,51.13343,4.8523198,0.7157979399999999,10.185012,5.213524111
1044.634,50.14778,4.3026092,0.7591124316666668,10.2954885,5.095717667
1045.599,50.58809,4.2153502,0.681254645,9.3556535,4.915149
1046.563,51.14933,4.1103088,0.5365281466666666,8.3265855,4.648851033
1047.527,50.72299,3.3936464,0.05515794066666666,7.8459785,4.073744536
1048.491,49.4705,2.3296364,-0.31872123833333327,7.8532875,3.384912422
1049.455,48.26692,1.82849454,-0.006336108333333312,7.944589,3.168005189
1050.42,47.75172,2.56617986,0.8597447749999999,7.817833,3.858526333
1051.384,47.6251,3.941202,1.4289839273333333,7.5063705,4.974074667
1052.348,47.03482,3.9461146,0.99786792,7.106091,4.868501333
1053.312,46.00173,2.538974,0.205678765,6.619786,3.483988267
1054.277,45.25324,1.62250458,0.15871665499999998,6.329859,2.573319033
1055.241,45.16377,1.55233832,0.5380789583333333,6.3182175,2.484717778
1056.205,45.10551,1.8477784,0.6378587093333333,6.4766465,2.790431556
1057.169,44.34125,2.1364154,0.21655592499999998,6.8265415,3.208002889
1058.134,42.89359,2.4238638,-0.326347975,7.354242,3.730191133
1059.098,41.72482,2.65407618,-0.3165888150000001,7.503314,4.006955189
1060.062,40.76512,3.0445994,0.4416907166666666,6.9705385,3.946104444
1061.026,40.2677,3.130914,0.832367425,6.2267535,3.678650333
1061.99,41.07071,2.4673509,0.3578436976666666,5.245183,3.065882889
1062.955,42.04263,1.5357673,0.045430439666666676,4.32332585,2.370116033
1063.919,41.76979,0.73179588,0.3507274433333334,3.77692095,1.779796244
1064.883,40.18332,0.227390154,0.9357373383333334,3.61892075,1.3870676
1065.847,38.67084,0.134559318,1.3811488333333335,3.55919805,1.312169733
1066.812,38.63314,0.65032682,1.5564460916666667,3.2940416,1.754050313
1067.776,39.58291,1.49958126,1.458036955,2.9136337,2.463255533
1068.74,39.75867,1.50515654,0.7963867916666666,2.96283411,2.376789089
1069.704,39.25769,0.723744626,0.003860339999999981,3.416342,1.555728811
1070.669,38.97967,0.2231726,-0.22643706666666666,3.3419985,1.036151178
1071.633,39.36724,0.5871127,0.052497280000000056,2.0084688,1.415653978
1072.597,40.12313,1.3045031,0.40974616166666666,0.31800665,2.133587689
1073.561,40.78317,1.4185287,0.5684645203333334,0.0010425,2.141258222
1074.526,41.41481,0.7664122,0.6001409216666665,1.4295808,1.259197833
1075.49,41.69101,0.25814702,0.7369392916666667,2.5655577,0.479165556
1076.454,41.268,-0.0557773,0.9813642750000001,3.1932265,-0.32465
1077.418,40.6499,-0.104592272,1.2965752666666666,3.361409,-0.704204923
1078.382,39.46824,0.42403982,1.8701106799999998,2.719705,-0.046235956
1079.347,38.39515,1.08393694,2.2824913233333333,1.76434035,0.931118252
1080.311,38.53514,1.16896972,2.318351191666667,1.104248,1.0466687
1081.275,40.17932,0.5013592,1.9815899049999999,0.96741,-0.019060544
1082.239,42.08679,-0.15523472,1.2726879126666668,1.2204787,-1.0273391
1083.204,42.80785,0.14636414,0.13515086166666668,1.8794065,-0.400409351
1084.168,42.84963,1.07205652,-0.7765792693333333,2.7421251,1.294645633
1085.132,43.60432,1.57419112,-0.7581149500000001,3.1445407,2.256157289
1086.096,44.97874,1.63354182,-0.29494295000000004,3.0658445,2.473590576
1087.061,46.04602,1.56734062,0.3434432920000001,2.815544,2.487181122
1088.025,46.25198,1.60050282,1.03396811,2.535858,2.620653611
1088.989,45.71735,1.6833886,1.5066802766666667,2.2401245,2.797814678
1089.953,44.82656,1.5731582,1.5151519043333332,1.99023585,2.756015356
1090.917,43.50491,1.1497474,1.142651825,1.8409364,2.411761811
1091.882,42.75781,0.77153694,0.8950799266666668,1.80114005,2.029683033
1092.846,42.21682,0.51651402,0.8254700756666665,1.72136225,1.547153067
1093.81,42.17409,0.215012,0.6915782383333333,1.76332865,1.122593411
1094.774,43.0952,-0.38018866,0.39007802333333336,2.24791995,0.754039756
1095.739,44.49253,-1.00546548,0.20959312833333332,2.836786,0.523707833
1096.703,45.68663,-1.09464272,0.4866540816666666,2.9138015,0.651879856
1097.667,46.4706,-0.40335274,1.0895642733333333,2.2349409,1.237456778
1098.631,46.82307,0.400113462,1.4062067833333334,1.2350711,1.816426026
1099.596,46.1729,0.5255351,1.0634199263333333,0.258253,1.751816544
1100.56,45.12444,0.126186052,0.6241571349999999,-0.6163926,1.280325389
