Raman.Shift,Zircon_005,Zircon_006,Zircon_007
299.2819,-1.3117166,1.31955275,-0.360857619
300.2461,-1.346307447,0.01679385,-0.050497976
301.2103,-1.246546715,-0.23868200000000006,0.362163684
302.1746,-1.722671467,0.8003825,-0.015135251000000016
303.1388,-1.8365039150000002,1.81977815,-0.744164864
304.103,-1.0068029840000001,2.53524604,-0.9992351070000001
305.0673,0.93117008,3.0377387999999996,-0.45793611999999995
306.0315,1.2923369500000002,3.27976446,-0.135210897
306.9957,-0.28292437499999995,2.1892347,-0.46934700900000004
307.96,-1.6647024799999999,1.6854461,-0.827511452
308.9242,-2.4799420750000003,2.341464985,-1.020783564
309.8884,-2.6151460999999996,4.2969333,-0.9180753500000001
310.8527,-2.60866486,5.8677464,-0.492369544
311.8169,-2.4793673739999997,6.2558157,0.12278631100000001
312.7811,-2.060646145,6.6974752,0.5329409890000001
313.7454,-1.651906195,7.2101738950000005,0.85548398
314.7096,-1.513238829,7.6843493,1.163235465
315.6738,-1.6652747200000002,7.897309,1.610881684
316.6381,-1.6315320400000002,8.1336875,2.341096989
317.6023,-0.674242345,10.0111793,3.114513733
318.5665,1.002617777,13.0393935,3.972789524
319.5308,2.81155109,15.743898,5.010356218
320.495,4.354270575,16.8789425,6.379276696
321.4592,4.180621899999999,15.458432299999998,7.503806916
322.4235,3.6443264500000003,16.1305075,7.468657266999999
323.3877,3.696173575,19.728561499999998,6.203661567
324.3519,4.12928845,23.424673900000002,5.058535647
325.3162,4.62234335,24.9441055,4.988086351
326.2804,4.47426165,25.402713000000002,6.226256716
327.2446,3.8998201999999997,28.538660999999998,7.159616851
328.2089,3.48014714,33.5337995,7.445111978
329.1731,3.6668659249999997,38.315846,7.491945729000001
330.1373,4.8122347,41.4796651,7.564319372
331.1016,6.610926699999999,43.79592685,8.100034911
332.0658,8.218504715,46.5330874,8.93364276
333.03,9.3695155,50.0915947,9.553927250000001
333.9943,10.49093155,53.9586957,10.24768804
334.9585,11.99196404,57.5356448,11.31709327
335.9227,14.076056475,60.904313,13.086279909999998
336.887,16.31344451,65.7301725,15.40691667
337.8512,18.4503499,72.897314,17.87281018
338.8154,20.58818675,82.25068850000001,20.51312502
339.7797,22.445413499999997,93.20468199999999,23.11375429
340.7439,23.270131375,105.156071,25.233536219999998
341.7081,24.41604375,119.31533999999999,28.05205538
342.6724,27.2135555,132.84046850000001,30.86542109
343.6366,31.91581625,150.61549,34.86568136
344.6008,37.7936235,174.47644300000002,40.19299131
345.5651,43.80911625,200.4453945,46.11566013
346.5293,52.696611250000004,246.9645235,55.23770284
347.4935,60.889380499999994,297.6549895,62.62188088999999
348.4578,72.4543355,372.905951,74.15978910999999
349.422,87.7143255,481.122815,90.2797929
350.3862,104.1705295,619.8824000000001,107.47838
351.3505,138.1579195,841.029315,147.8488282
352.3147,196.7011185,1224.05139,225.7142964
353.2789,279.90083999999996,1703.807655,336.6277858
354.2432,402.5911425,2207.1763800000003,493.087896
355.2074,581.3161175,2662.927105,709.7583829
356.1716,816.0836375,3046.15584,984.73543
357.1359,954.3346849999999,3109.058285,1120.967522
358.1001,998.5611225,2831.88599,1119.059868
359.0643,967.5039075,2393.48794,1030.660434
360.0286,867.0833675,1963.38003,892.0380931
360.9928,641.5433875,1508.118735,650.090414
361.957,463.53283500000003,1146.6776750000001,463.2073803999999
362.9213,338.2395575,884.640665,336.6957811
363.8855,248.26867125,688.1057,248.5977502
364.8497,182.17069425000003,534.7320725000001,184.6150064
365.814,141.5122505,425.06192550000003,146.1456991
366.7782,113.958616322,344.318303,119.2643485
367.7424,93.4995306,282.8944965,98.1281476
368.7067,77.640715425,234.4885865,81.95553762
369.6709,65.09435175,195.59205849999998,69.47780547
370.6351,55.120639499999996,163.9538045,59.685673200000004
371.5994,47.790707725000004,140.56784050000002,51.85794104
372.5636,41.2477085,123.0400115,44.15899696
373.5278,34.914967399999995,109.0307478,37.23385711
374.4921,29.50306155,97.2351013,31.64417711
375.4563,25.858910575,86.667404,27.981244000000004
376.4205,24.6023249,78.1696355,26.70381224
377.3848,23.852583550000002,71.68108600000001,25.53459584
378.349,23.09897205,66.4684005,23.548980819999997
379.3132,21.8387081,62.047397000000004,21.207133329999998
380.2775,20.244365275,58.433449499999995,19.445284469999997
381.2417,18.53952925,55.878169,18.92721232
382.2059,18.059420725,53.848139,18.72710348
383.1702,17.6284973,52.692274000000005,17.630408496
384.1344,16.582058418000003,52.8652555,15.52602623
385.0986,15.46843065,53.31776985,13.662665669999999
386.0629,14.769708,53.0959574,13.0332916
387.0271,14.69169455,52.39338575,14.00004502
387.9913,14.3969845,52.865516899999996,14.93239688
388.9556,14.33796755,54.752995750000004,15.01166037
389.9198,15.294260996999999,57.600806999999996,15.156617850000002
390.884,17.71315695,61.1169845,16.091353564000002
391.8483,20.884829025,64.8505105,17.89193307
392.8125,22.78078725,67.7242403,20.10453122
393.7767,24.139642225,69.3296211,22.60800529
394.741,24.85784615,69.12910860000001,23.979753440000003
395.7052,24.5137185,66.40646066,23.05215135
396.6694,22.636245675,60.362180849999994,19.28195369
397.6337,20.491571775,53.880622,17.074656410000003
398.5979,18.181083724999997,48.930465999999996,15.686182050000001
399.5621,16.56017095,47.249692499999995,14.72250808
400.5264,15.49223495,47.756227,14.05305126
401.4906,14.740197302,49.781344849999996,13.65042419
402.4548,13.785927000000001,51.21229895,13.031152481999998
403.4191,13.021521475,50.72612445,12.673981730000001
404.3833,12.668780674999999,50.465316800000004,13.07805573
405.3475,12.62218675,53.0097112,13.42466365
406.3118,12.903427075,59.37901035,13.304843726000001
407.276,13.674781105,67.10116365,12.888241125999999
408.2402,15.174101,71.0376129,12.83573486
409.2045,16.867614175,72.6481241,12.74467945
410.1687,18.6662725,75.173455,12.996141020000001
411.1329,20.5427195,80.7023785,14.363573290000001
412.0972,22.51286225,89.350559,17.2403416
413.0614,24.58961665,100.456482,21.56954009
414.0256,26.9420807,113.703299,25.34525974
414.9899,29.274993000000002,123.16749549999999,26.98588304
415.9541,31.376112499999998,126.24589449999999,26.95536678
416.9183,32.96662025,123.29651649999998,25.800353780000002
417.8826,33.01339375,121.6829115,25.919034529999998
418.8468,31.236812500000003,120.28402100000001,27.13340013
419.811,30.730671,118.437938,27.621535760000004
420.7753,31.029217,116.6243715,27.744169
421.7395,31.841317000000004,115.801438,28.090736529999997
422.7037,32.57918025,117.7974475,29.33267044
423.668,32.625937725,123.4999675,30.83627674
424.6322,33.40798015,130.300353,32.30792701
425.5964,35.165264725,136.97808115,34.18078687
426.5607,38.151427500000004,145.6157484,36.91326056
427.5249,42.207632749999995,159.8480544,40.86483747
428.4891,46.6827945,183.2379915,46.08148749
429.4534,51.897903500000005,218.933306,53.95441011
430.4176,58.5339315,266.240703,64.48641064
431.3818,67.43871775000001,325.18480700000003,76.62739527
432.3461,80.0552595,404.2106905,92.428596
433.3103,99.93347299999999,526.950877,118.5242191
434.2745,123.6473065,697.7901245,151.5851402
435.2388,167.119294,929.2474850000001,213.19811219999997
436.203,239.29782749999998,1297.7820299999998,321.2827898
437.1672,331.30253250000004,1719.70849,455.55005360000007
438.1315,431.320435,2032.5313700000002,586.7929578000001
439.0957,576.1232924999999,2222.101265,758.2792989
440.0599,666.8611525,2245.6057100000003,856.9401971
441.0242,677.136185,2032.689815,836.8762859999999
441.9884,631.536035,1691.039735,741.3552010999999
442.9526,554.5451425,1342.56057,618.5988036
443.9169,445.650425,1044.4727599999999,482.54310399999997
444.8811,338.37464750000004,810.46394,360.5675307
445.8453,259.95062499999995,638.88411,272.0641324
446.8096,204.8378285,518.3718090000001,210.4401604
447.7738,165.30707225,433.12239800000003,166.7772869
448.738,134.83365824999998,368.992239,133.5616458
449.7023,114.323685,325.6261005,111.9238849
450.6665,97.22878175,284.40972600000003,94.73397
451.6307,83.12510425,246.63968949999997,81.13178831
452.595,71.356557,213.56403699999998,69.65810444
453.5592,62.088391,185.22464150000002,60.30517382
454.5234,56.448516,160.8809365,54.45965391
455.4877,51.793580250000005,139.9399015,49.62402084
456.4519,46.94515225000001,124.24111800000001,44.89956556
457.4161,42.1933718,113.0690055,40.26446284
458.3804,37.997546899999996,105.7885355,36.38324264
459.3446,34.406354975,102.2101558,33.63734444
460.3088,31.19591045,98.3659571,31.63930518
461.2731,29.173265699999998,90.408832,29.9752585
462.2373,27.894823625,82.754229,28.427469035999998
463.2015,26.3848917,79.027114,26.73311485
464.1658,24.322392875,80.605608,24.735555270000003
465.13,22.306135474999998,85.35064349999999,22.62421131
466.0942,21.825279724999998,88.9072335,21.25178942
467.0585,21.85884736,90.96121844999999,20.12745518
468.0227,22.0511022,92.914887,18.71275191
468.9869,22.51708475,95.567973,17.197852729999997
469.9512,23.196177249999998,98.427016,15.87142773
470.9154,23.524614871999997,98.5423595,15.338564240000002
471.8796,24.224538074999998,96.632289,16.07512707
472.8439,24.624742925,92.6349525,16.44826811
473.8081,23.354654000000004,84.48107,15.526212910000002
474.7723,20.7669646,72.9736645,13.397947729999999
475.7366,18.450013345,62.407819499999995,11.182410710000001
476.7008,16.947451245,54.075374,9.209151290000001
477.665,14.843710699999999,48.398166,8.764588289999999
478.6293,12.688022,43.930806245,8.77305962
479.5935,10.7530268,39.98132315,8.489189340000001
480.5577,9.23290035,36.806221699999995,7.775466360000001
481.522,8.2067338,35.6205212,6.994792918
482.4862,7.989322225,35.4114645,6.901570231
483.4504,8.250847027,34.64554975,7.137358228999999
484.4147,8.203409725,32.918455800000004,6.564316411
485.3789,8.0556384,30.345179249999997,5.218726955999999
486.3431,8.2332027,27.03718215,3.93553554
487.3074,8.81803225,23.150109099999998,3.8301081779999997
488.2716,7.844386875,20.536738,4.631438041999999
489.2358,5.777723475,19.693908,4.350780304
490.2001,3.66182375,19.5022578,3.6627032890000004
491.1643,2.678525841,18.50349025,3.480317787
492.1285,3.38913165,15.890823150000001,4.330773889
493.0928,4.539242505,14.479285849999998,4.541637945
494.057,5.246186600000001,14.5300975,3.916755813
495.0212,5.3986808,15.0408266,3.125055442
495.9855,5.03410865,15.727353099999998,2.786670407
496.9497,4.01362085,16.585638,3.1832379580000003
497.9139,2.585745275,17.3098815,3.759297111
498.8782,1.44317042,16.596863499999998,3.6026273929999997
499.8424,1.7577058,16.446026500000002,3.170377856
500.8066,3.1295750250000003,18.482125999999997,3.126093167
501.7709,4.9098035,23.1114115,3.5606152890000002
502.7351,6.47997635,29.297373999999998,4.024039762
503.6993,7.30495935,36.111383,3.5875248909999997
504.6636,7.793666614999999,42.486908500000006,3.130069287
505.6278,8.3791355,46.0113735,3.6629490799999997
506.592,9.396621617,45.48584071,4.862686844000001
507.5563,10.674282555,41.4602012,6.230818631
508.5205,11.335016750000001,36.89956985,6.617185996000001
509.4847,10.455362200000001,32.730528650000004,5.178643169000001
510.449,9.864905775,29.93665315,3.2323089929999997
511.4132,9.25784035,26.5407535,2.009343978
512.3774,8.2055827,21.98543885,1.953929424
513.3417,6.736497175,16.7674983,2.639155958
514.3059,5.258993725,11.4544475,3.360606902
515.2701,4.763721275,7.935563049999999,3.7255827320000003
516.2344,4.526952205,6.29289645,3.823228388
517.1986,3.7204309999999996,6.2203173,3.4685662619999995
518.1628,2.47206046,7.1041365,2.831174151
519.1271,1.12558694,8.204314,2.335602122
520.0913,-0.045450270000000126,8.2620815,2.352952884
521.0555,-1.1280208,6.64188095,2.594862231
522.0198,-1.33447802,5.2122375000000005,2.146186132
522.984,-0.37751689,4.1351772,1.197129827
523.9482,0.7726639270000002,3.1052895499999997,0.293586889
524.9125,1.0977781999999998,1.77322,-0.244494769
525.8767,0.9584831860000003,0.4208405,-0.219642251
526.8409,1.960910345,-0.9888244,0.479125299
527.8052,2.7950735250000003,-1.8075666499999998,1.164258547
528.7694,2.763038175,-1.0305115,1.3923006779999998
529.7336,1.863476923,1.4922008,1.153265283
530.6979,1.03730973,3.3611375,0.862064576
531.6621,0.4417677849999999,2.5957289,0.267759913
532.6263,-0.025132032999999998,0.85980215,-0.200450132
533.5906,0.11698250499999996,-0.386815,-0.019881150999999986
534.5548,1.169245075,-0.4727814,1.071222194
535.519,2.599746435,0.55271597,2.497540549
536.4833,3.282034415,2.4033870000000004,3.2335289869999997
537.4475,2.494620675,4.512335625,2.09560924
538.4117,0.914846805,6.422243,-0.318272256
539.376,0.02556456000000007,7.7113175,-1.916014988
540.3402,0.12682026000000002,8.53486833,-2.2000425310000002
541.3044,1.0590019700000002,9.6929845,-1.3518625239999997
542.2687,2.22649192,12.1393675,-0.24542929600000019
543.2329,3.0259457999999997,15.252785500000002,0.3707177239999999
544.1971,3.1313323449999997,18.51754093,0.5523714000000002
545.1614,2.528784628,21.5233397,0.6160922129999999
546.1256,2.2986944850000004,22.995895649999998,1.277924102
547.0898,3.459877125,21.9043609,3.1188724980000004
548.0541,4.7601191,18.9084645,3.783626856
549.0183,5.306723175,16.552239,3.1937237869999997
549.9825,5.68611493,15.1578635,2.914366377
550.9468,5.800311494000001,12.721424,2.8556378470000006
551.911,5.334227923,8.811840499999999,2.656431184
552.8752,4.29804955,5.9225131,2.154992833
553.8395,3.7706659599999997,6.45896485,2.1173206689999997
554.8037,3.85305857,6.2342165000000005,2.4670092180000003
555.7679,3.025944325,5.3264193,2.100822811
556.7322,0.6179699100000001,4.668397499999999,0.564391024
557.6964,-2.52760795,4.51971925,-1.4882013019999998
558.6606,-4.172154975,3.8513147500000002,-2.395631834
559.6249,-3.16479833,1.8557536199999998,-1.477301847
560.5891,-0.5616726599999999,0.21021255000000005,0.147546322
561.5533,0.48921296000000014,-0.16351949999999993,1.133576889
562.5176,-0.15713275000000015,-0.006015049999999966,1.576417492
563.4818,-1.3003775649999998,-0.19418934999999998,1.5903587909999999
564.446,-1.8449246649999997,-0.5305677249999999,0.808688
565.4103,-2.02164244,-1.0285067,-0.08957162900000004
566.3745,-1.17953671,-1.69324155,-0.25421388899999997
567.3387,0.39603754799999996,-1.24938985,-0.016310118000000012
568.303,1.387236301,-0.000911499999999954,0.36649876200000003
569.2672,0.8638247299999999,1.1901125000000001,0.972801071
570.2314,-0.4972974670000001,0.7270645,1.39535011
571.1957,-1.8016558850000002,-1.327328,0.8795881720000001
572.1599,-2.7272191120000002,-2.621023,0.01117451699999994
573.1241,-3.5292634499999997,-2.5953033000000003,-0.8338202670000001
574.0884,-4.24923835,-1.5677991999999998,-1.56459078
575.0526,-4.678730900000001,-0.5954130000000001,-2.2310040819999997
576.0168,-4.292411725,-0.899133,-2.638073189
576.9811,-3.374629925,-1.0102721499999998,-2.262656402
577.9453,-2.413306665,0.29499849999999994,-1.017262683
578.9095,-1.914971505,1.44546055,0.17818888000000002
579.8738,-1.90129709,1.3946947,0.608939362
580.838,-1.7694587350000002,0.17230044999999994,0.026562670999999982
581.8022,-0.651044155,-0.5134524,-0.8426983889999999
582.7665,0.9543136999999999,-0.6452144000000002,-0.4888764980000001
583.7307,1.5890817080000001,-1.3228773500000002,-0.11017155299999998
584.6949,0.97789755,-1.14212945,0.334715606
585.6592,-0.05313597000000003,0.482152585,0.8719943179999999
586.6234,-0.6528109049999999,3.098507145,1.4058647089999998
587.5876,-0.33418755499999997,3.742473,0.7902870200000001
588.5519,-0.03567332000000001,3.0604495000000003,-0.624941368
589.5161,-0.28655705,2.8554781,-1.220057019
590.4803,-0.5979063400000001,3.13809465,-0.9000817959999999
591.4446,-0.694551245,3.811824,-0.16224133999999998
592.4088,-0.81402306,4.763954,0.106939133
593.373,-1.658274767,6.063798500000001,-0.655504933
594.3373,-2.44822727,6.41995515,-1.122603315
595.3015,-2.72107675,5.6620372,-0.9714609179999999
596.2657,-2.3415523599999997,4.24139437,-0.807670191
597.23,-1.4191327,2.13115245,-0.979190484
598.1942,-0.5948358920000001,-0.3571520399999999,-1.5055104309999998
599.1584,-0.7255482900000001,-2.0495970000000003,-2.023622138
600.1227,-0.7550855750000001,-1.844406,-2.303790647
601.0869,-0.06282388000000005,-1.0286830999999999,-1.729835911
602.0511,0.363572373,0.11059250000000001,-0.7818876419999999
603.0154,-0.06811668000000004,0.9668821850000001,-0.409252273
603.9796,-1.092447864,1.13264764,-1.210335759
604.9438,-0.67011415,0.5943268749999999,-2.183073153
605.9081,0.5776533500000001,-0.7200095649999998,-2.921117803
606.8723,1.1528347,-1.3463662,-2.484632016
607.8365,0.87019786,-0.3465210000000001,-1.0632974040000003
608.8008,-0.09740552799999991,2.16785265,0.4864300410000002
609.765,-1.2234494750000002,3.9462255500000003,0.744141507
610.7292,-2.26321111,2.1222369,-1.1136252729999998
611.6935,-3.0598641,-0.09179074999999998,-2.169500511
612.6577,-3.85027107,-1.0084,-1.9705713440000001
613.6219,-4.3037801,-0.6937547500000001,-1.483026496
614.5862,-3.73583495,-0.031451549999999995,-1.2779470529999999
615.5504,-1.715849105,-0.2677904,-1.249331423
616.5146,0.5175781049999999,-1.2214844,-0.551546888
617.4789,0.9321847249999999,-0.8180207,0.501460262
618.4431,1.28708498,0.86346585,1.3634018959999998
619.4073,1.7616210730000001,2.94331045,1.525859347
620.3716,1.85335902,4.693984805,0.803408229
621.3358,0.6905798240000001,6.610520350000001,-0.843625153
622.3,0.05400560200000015,7.8223009999999995,-1.31849996
623.2643,0.717595255,7.3822779999999995,-0.3546513419999999
624.2285,1.5800829950000002,6.4373065,0.792035987
625.1927,1.9323181649999999,6.1075798,1.3644531580000003
626.157,1.5926122999999999,6.884473750000001,1.104912622
627.1212,1.089358224,8.2490183,0.43552254
628.0854,0.8419611449999997,9.788825,-0.255007133
629.0497,1.44517502,10.766816949999999,-1.035513393
630.0139,2.91894439,11.08507035,-2.009371767
630.9781,3.8790422,11.167463,-2.756282311
631.9424,3.3679135000000002,11.3481395,-2.915003467
632.9066,1.4728161750000002,11.5667386,-2.366390139
633.8708,0.0193451899999999,11.032736365,-1.658363407
634.8351,-0.35697223,9.252670680000001,-1.352250215
635.7993,-0.78698601,6.5179476,-1.409602487
636.7635,-0.95788646,4.04425825,-1.5894436299999999
637.7278,-0.3947385339999999,3.19467165,-1.5443019470000001
638.692,1.182646322,4.48577555,-1.177001004
639.6563,2.3585447050000004,5.51546805,-0.8710227700000001
640.6205,3.3026482,6.20873246,-0.14377598800000002
641.5847,4.037924175,6.4005143,0.996519442
642.549,4.363272500000001,6.3878737,1.838583952
643.5132,4.149908277000001,6.4105468,1.67925642
644.4774,3.514103575,6.3705935,0.41976273399999997
645.4417,2.357657342,5.5815995,-1.568511489
646.4059,1.645910545,4.2057595,-2.141550418
647.3701,1.75144493,2.6786021499999997,-1.1159669220000001
648.3344,1.6859474300000001,1.5614398,-0.14841822500000001
649.2986,0.61205327,0.9676593,0.07032927200000005
650.2628,-1.445030198,0.5956480500000001,-0.6372954330000001
651.2271,-2.99937612,0.07586507600000003,-1.776573891
652.1913,-2.49053125,-0.25880455,-3.0086920719999997
653.1555,-1.4898878,0.3994674050000001,-3.036767733
654.1198,-0.835651115,1.6070710400000001,-2.086764502
655.084,-0.818953635,2.33823705,-1.515673209
656.0482,-1.23686653,2.0526134000000003,-2.203066131
657.0125,-1.399059178,0.90476835,-3.15820846
657.9767,-1.6724248899999998,-1.392227125,-3.565583013
658.9409,-2.394468805,-2.9856217000000003,-3.3441068219999996
659.9052,-2.59726145,-3.0250976,-2.6067057460000003
660.8694,-1.757735415,-1.8024855,-1.669529033
661.8336,-0.34816649499999996,-0.4923936,-1.057478504
662.7979,0.516424545,0.23763453,-1.198153709
663.7621,0.860202178,0.6906038,-1.192836884
664.7263,1.53692615,0.94667365,-0.32122571099999997
665.6906,2.3659111900000003,0.538316955,0.464795054
666.6548,2.5334828050000002,-0.5964285,0.20377493600000002
667.619,1.6541196,-1.6318311,-1.3021077399999998
668.5833,0.19943106500000002,-1.6383268999999998,-3.083732189
669.5475,-1.141889325,-0.78472731,-3.4396417329999998
670.5117,-2.346434475,0.0890318,-3.2364563929999997
671.476,-2.9599078999999997,1.3732788,-2.9463976
672.4402,-3.182040065,2.187761,-2.9575881330000002
673.4044,-3.40341277,1.8202925499999998,-3.437921731
674.3687,-3.77651315,0.5459778499999999,-3.945919909
675.3329,-3.05035789,-0.67312925,-3.3402086239999997
676.2971,-1.76815021,-0.10856935,-2.109150427
677.2614,-1.13807726,1.75049885,-1.336926353
678.2256,-1.324348705,3.2488285500000003,-1.03240664
679.1898,-1.8732115900000001,3.4048694,-0.722904436
680.1541,-2.42135208,2.5160465,-0.07343011399999999
681.1183,-2.4247758800000003,2.51938225,0.23031369000000002
682.0825,-1.374703795,3.8380575,-0.27972080699999996
683.0468,-0.026764995,4.1057095,-1.088764322
684.011,1.0900377749999999,3.1368805,-2.305073072
684.9752,1.0346442649999998,2.1240555,-3.4480611310000002
685.9395,-0.500738255,1.9413985699999998,-3.727507399
686.9037,-2.498642288,2.5278840000000002,-2.013917576
687.8679,-2.6846585999999997,3.3432295000000005,0.349550384
688.8322,-1.35971712,4.689944,1.816038148
689.7964,0.004269649999999903,6.63086255,1.9342290709999999
690.7606,1.069921361,8.890250645,0.6610676160000001
691.7249,1.503617606,10.533975499999999,-1.0148051169999999
692.6891,0.670580782,10.637196999999999,-2.1747770529999997
693.6533,-0.325242538,9.716261,-2.128072766
694.6176,-0.772971423,8.92065145,-1.543814451
695.5818,-0.6456814999999999,8.92756,-0.890538689
696.546,-0.16939793599999997,9.3070005,-0.20102740200000002
697.5103,0.536817615,9.601444,0.352717253
698.4745,1.3088521119999998,9.874631,0.4301659979999999
699.4387,1.8829769250000001,11.052814999999999,-0.16188728400000008
700.403,1.92194931,12.569963999999999,-0.576278022
701.3672,1.58151968,13.5362595,-0.713664162
702.3314,1.108743225,13.62138134,-0.725604202
703.2957,0.20374417999999994,13.67997564,-0.7374681700000001
704.2599,-1.0436158049999997,14.4104122,-0.812447964
705.2241,-1.6244186900000002,15.037758,-0.882216627
706.1884,-0.45203178999999993,14.0427131,-0.80356392
707.1526,0.4195549420000001,13.825871500000002,-0.5627447809999999
708.1168,0.46856463999999987,14.334022999999998,-0.25820548
709.0811,0.318300504,14.7019385,0.10054033899999992
710.0453,0.49408209300000006,14.4787645,0.567166807
711.0095,0.77676235,14.0568275,0.728048991
711.9738,1.2521158839999997,13.5005355,-0.368348319
712.938,1.852422992,13.6674614,-2.021770849
713.9022,1.8508837299999998,13.879081600000001,-2.974332689
714.8665,1.2199206900000001,12.873108700000001,-2.6130129909999997
715.8307,0.59098882,10.318826699999999,-1.426651522
716.7949,0.584071805,7.1740675000000005,-0.44362919300000003
717.7592,0.879330365,6.1537,-0.460269249
718.7234,1.163352315,8.580741900000001,-1.5124052650000002
719.6876,1.2531002299999998,10.176104800000001,-1.515631686
720.6519,0.7411382900000001,10.359912000000001,0.002728838000000011
721.6161,-0.16960818499999997,9.364581450000001,1.4701466
722.5803,-0.8834367500000001,7.52815835,1.461624402
723.5446,-0.682660735,5.4234279999999995,-0.044597215999999995
724.5088,-0.322922025,5.1872845000000005,-1.177615651
725.473,-0.15965815900000002,6.564973500000001,-1.600215711
726.4373,0.165242742,7.16997525,-1.5984381429999999
727.4015,0.64949035,6.77548185,-1.135931291
728.3657,1.04835979,6.16780395,-0.548820996
729.33,1.259933765,5.896541099999999,-0.46824197799999995
730.2942,1.300095825,4.713464800000001,-1.127906122
731.2584,1.24092835,1.964557,-1.540338568
732.2227,0.73384983,-0.055145200000000116,-1.4326134
733.1869,-0.28133762000000007,-0.017002749999999844,-1.516065576
734.1511,-1.3170437050000001,1.8557449,-1.982769638
735.1154,-1.613337523,3.6076017,-1.9440214089999999
736.0796,-0.8099566850000001,3.6692945999999997,0.012216606999999824
737.0438,-0.22315320500000002,3.0105515,1.127423094
738.0081,-0.03570811500000004,2.366632,-1.130268987
738.9723,-0.3450658769999999,2.029111,-3.7312526559999997
739.9365,-1.2558182,1.6166065,-4.498994051
740.9008,-2.258516043,1.05242575,-3.01689318
741.865,-2.5143184,0.88659045,-1.1364431049999997
742.8292,-1.391230075,1.6155013,-0.6370875309999999
743.7935,0.31135971500000004,2.01994655,-0.5211387489999999
744.7577,0.6844430079999999,1.812407125,-1.068832262
745.7219,-0.7554135750000001,1.6266848,-2.150883842
746.6862,-3.013801575,1.7744357,-2.983576469
747.6504,-3.407229075,1.85821105,-2.386129965
748.6146,-0.979427469,1.44695733,-0.538765022
749.5789,0.528650225,1.21471255,-0.08303295799999999
750.5431,0.5317493849999999,1.14106913,-0.575873873
751.5073,-0.05690347299999998,0.865567005,-0.776539513
752.4716,-0.5005090200000001,0.16329959999999993,-0.513829786
753.4358,-0.549262336,-0.62765815,-0.34120972299999985
754.4,-0.52879827,-0.47760604500000003,-0.6704841279999999
755.3643,-0.667183027,1.79337,-1.0025656500000002
756.3285,-0.4796514649999999,3.709087,-1.232863403
757.2927,-0.034331,4.424364000000001,-2.212003789
758.257,0.029546645000000038,4.5544143,-3.201085322
759.2212,-0.30470884499999995,4.5363799,-3.162785307
760.1854,-0.34886146,4.4786147,-1.72279903
761.1497,0.3696005,4.2541862,-0.24558360600000007
762.1139,0.845437375,4.49031525,-0.889006656
763.0781,1.598535754,4.3251895000000005,-1.438191602
764.0424,2.069235155,3.8916405000000003,-1.1062241560000001
765.0066,1.3258561650000003,3.7469645000000003,-0.8076626170000001
765.9708,-0.9003251449999999,4.2303679999999995,-1.46812114
766.9351,-2.43424085,5.1592725999999995,-2.308700509
767.8993,-1.8651813979999998,7.34283425,-2.333957707
768.8635,-0.7684044400000001,8.26640025,-2.589751717
769.8278,0.273806035,6.4841261999999995,-3.4594038559999998
770.792,0.6875685,3.6781120499999997,-4.06036744
771.7562,0.21968441,2.4399027,-3.516925427
772.7205,-0.717561484,4.3164276,-1.980229991
773.6847,-0.831904234,6.9983974,-1.0406911289999998
774.6489,1.020181741,7.404261900000001,-1.400284413
775.6132,2.137940065,6.4314557,-1.709002043
776.5774,1.386577475,5.58898875,-2.050838996
777.5416,-0.13315232500000002,5.7343522,-2.435879947
778.5059,-0.9955541,6.51255775,-2.613763672
779.4701,-0.2686482499999999,6.744336,-2.262754761
780.4343,1.3102447,6.429180500000001,-1.8381012589999999
781.3986,1.24761475,7.541177450000001,-2.1348960420000003
782.3628,0.11168984999999998,9.460844199999999,-2.6728479960000002
783.327,-0.6242939749999998,11.3173801,-2.781446875
784.2913,0.038069235000000035,12.81044635,-2.109489537
785.2555,1.9831089579999999,14.179139035,-0.7793159390000001
786.2197,2.896670935,15.27522905,-0.135736957
787.184,1.3055175449999998,15.5499325,-1.033574506
788.1482,0.3161356799999999,15.1810326,-2.190104562
789.1124,1.34539897,14.3108995,-3.276373382
790.0767,3.085683257,13.935893,-3.716082856
791.0409,4.020474131,14.43306,-3.278887122
792.0051,3.5102233,15.3669305,-2.2764768760000003
792.9694,2.6703339,15.75499615,-1.665344356
793.9336,2.386249035,15.5251513,-1.9529561359999998
794.8978,2.6370629549999998,14.8761314,-2.2367871
795.8621,3.358458975,14.0362423,-2.0534896600000003
796.8263,3.86533185,13.8538323,-1.834201228
797.7905,3.6904699049999996,14.831568,-2.148182536
798.7548,3.32613961,16.3508736,-2.914389158
799.719,3.6745261000000005,17.63468305,-3.4441832970000004
800.6832,4.4469967,18.49235805,-3.049481677
801.6475,5.270200682,19.18349525,-1.714973482
802.6117,5.521407675,20.1960781,-0.361548722
803.5759,4.99272478,21.9125035,0.18354043099999995
804.5402,3.924887125,24.408993,-0.3073685560000001
805.5044,2.9592552050000003,26.587573000000003,-0.750243707
806.4686,1.7148895200000003,27.2752935,-0.461757344
807.4329,0.9633072300000003,27.8935025,-0.17344524399999994
808.3971,1.6844139400000002,29.3372685,0.14825194399999997
809.3613,3.5227779600000004,31.417445,0.498584476
810.3256,5.703603950000001,33.9292815,0.7269127639999999
811.2898,7.410544850000001,37.210375,0.904453373
812.254,8.571992275,41.770883500000004,1.4989112419999997
813.2183,9.4180484,45.9986765,2.2672659060000004
814.1825,9.6849389,48.552237,2.234024018
815.1467,9.91581225,51.568892500000004,1.5774008050000004
816.111,10.816561075,57.4406605,1.2589952439999994
817.0752,12.75647535,66.183706,1.9105087779999996
818.0394,15.516848149999998,73.9713105,3.291302578
819.0037,19.846804525,80.34341450000001,5.183929780000001
819.9679,22.5559006,86.1545505,6.9271433600000005
820.9321,22.8298155,91.963698,8.374216579999999
821.8964,22.369467,96.45179200000001,9.13784362
822.8606,22.4386685,98.3732395,9.013779200000002
823.8248,23.286766125,97.6023115,8.7728262
824.7891,24.141114225000003,95.324648,9.3373038
825.7533,24.589475375,91.2592185,10.50276963
826.7175,24.1768802,86.481261,10.16593024
827.6818,22.76354795,82.4818765,8.62174052
828.646,20.9253284,78.61559749999999,6.95320774
829.6102,18.9426919,73.9498695,5.2747267870000005
830.5745,16.970931450000002,68.4583205,3.5784569159999995
831.5387,14.900209349999997,63.17716099999999,2.1581407109999997
832.5029,13.2477659,60.415259649999996,1.8069382220000003
833.4672,11.8959899,58.61913445,1.9647801779999998
834.4314,11.448232574999999,56.0503226,1.9102212109999996
835.3956,12.2108884,53.5385835,1.8471694669999996
836.3599,13.53989835,51.2281185,1.976796989
837.3241,14.061971250000001,47.7723565,2.170709793
838.2883,13.21209375,42.080958,2.191174511
839.2526,12.12731115,38.406679,2.2580629560000003
840.2168,11.271021025,39.146335,2.825463269
841.181,10.7521395,39.8471585,3.166771993
842.1453,10.198246487,38.118499,2.6789282890000004
843.1095,9.3687283,34.810526499999995,1.6049768439999998
844.0737,8.655507624999998,32.496553500000005,0.6776458910000001
845.038,9.130441300000001,32.9015154,0.4993682979999998
846.0022,10.246167877,33.3678948,0.872048902
846.9664,10.352511875000001,31.212213049999995,1.5824820160000002
847.9307,9.1495075,27.9114195,1.875377724
848.8949,7.532454625000001,25.643424500000002,1.5292357420000002
849.8591,6.7131089,25.9071885,0.994582222
850.8234,7.04954385,28.357422,0.7880016960000003
851.7876,7.1308431500000005,28.242426400000003,0.483234382
852.7518,6.075539785,24.594869,-0.28028296699999977
853.7161,4.78961799,22.3442885,-0.4269314289999999
854.6803,3.8326345199999996,22.548084499999998,0.0859504379999999
855.6445,3.5012700400000005,23.816791300000002,0.6322286960000001
856.6088,3.763558048,24.395724650000002,0.9030742640000001
857.573,4.62455515,23.68994,1.137177489
858.5372,5.4832096749999995,23.084034,1.4107944
859.5015,6.192851225,23.5161572,1.5704693159999998
860.4657,6.332472699999999,24.32781,1.5473921910000001
861.4299,5.49224575,25.22770443,1.0250309290000001
862.3942,4.401004025,26.23161095,-0.016778180999999837
863.3584,3.9729051999999996,27.319335449999997,-1.265999924
864.3226,4.77526035,28.339680395000002,-1.8592251679999998
865.2869,6.2400934,29.2970327,-1.029322778
866.2511,6.7872625,30.4882311,0.5258519960000001
867.2153,5.969553375,31.56484515,1.271182798
868.1796,4.7609675000000005,31.65769585,1.591448604
869.1438,4.369160174999999,30.5633309,2.388048815
870.108,5.048261825,28.99739775,3.5675152039999998
871.0723,5.437665275,28.5840977,3.680535213
872.0365,4.458453974999999,30.057873450000002,1.901625251
873.0007,3.723743355,30.94623495,0.5127492100000002
873.965,3.936011702,30.881366,0.15374736099999997
874.9292,4.670932264999999,29.84021525,0.29775576199999976
875.8934,5.445109315,27.36086705,0.368431749
876.8577,5.93773992,24.30939,0.3337909400000001
877.8219,6.190612815000001,22.314053,0.5809777330000001
878.7861,6.602195350000001,22.0143195,1.3802514440000002
879.7504,6.6513366000000005,21.57983325,1.733677244
880.7146,5.052271682000001,21.0326255,1.094234202
881.6788,2.5817756550000004,20.756708500000002,-0.12446031899999999
882.6431,0.8050829020000001,19.59970135,-1.410785995
883.6073,0.800346298,16.939611499999998,-1.916521824
884.5715,2.2480022799999997,13.598923499999998,-1.0971637079999998
885.5358,3.150881859,12.345100500000001,-0.028442367000000024
886.5,3.12143106,12.8085922,0.27816829099999996
887.4642,3.13869004,12.51746325,-0.305179594
888.4285,3.587042023,11.4552035,-1.108208573
889.3927,3.94911323,10.389648000000001,-1.412821967
890.3569,3.437726045,10.0210445,-1.227177738
891.3212,1.9019005900000001,10.560435595,-1.021189727
892.2854,0.80476861,10.839613349999999,-0.953374178
893.2496,1.03705165,9.7213305,-0.7822158509999999
894.2139,1.6607040449999997,8.152414,-0.6425597509999998
895.1781,2.388052385,6.636240750000001,-0.49988609399999995
896.1423,2.91439579,6.121722,-0.175825526
897.1066,3.12212997,7.128118825,0.082049549
898.0708,3.020605205,9.267131,-0.101860179
899.035,2.7677894280000004,11.15780735,-0.599564142
899.9993,2.77717921,10.11164845,-0.817560791
900.9635,2.9961722660000003,7.1025899,-0.940036973
901.9277,3.222433883,5.06335175,-0.927873119
902.892,3.0372276400000002,4.22043,-0.7139688689999999
903.8562,2.336788245,3.5503462,-0.32144032899999997
904.8204,1.628301,2.30530565,0.1801268199999999
905.7847,1.5777447450000002,1.3308135,0.951536249
906.7489,1.686408705,1.4917495,1.5464956330000001
907.7131,1.99481102,2.9971799,1.991339173
908.6774,1.810404058,3.703857276,2.148693176
909.6416,0.60645345,3.6297048,1.795579713
910.6058,-0.9269833380000001,3.5150633549999997,1.1169842909999999
911.5701,-1.7120151049999999,3.43510625,0.37422918399999994
912.5343,-1.06012381,3.0349122000000004,-0.31535471299999995
913.4985,0.1183567900000001,2.3918778,-0.846577122
914.4628,0.7143413599999999,1.2644297999999998,-1.403150587
915.427,0.628918475,0.04852590000000001,-1.4592926419999999
916.3912,0.59102169,0.04359585000000002,-0.303626831
917.3555,0.81314303,1.19136493,1.461717703
918.3197,0.9099902750000001,2.4491667,2.7322826900000003
919.2839,0.5919161209999999,2.57086165,2.621847121
920.2482,0.748348427,1.732618565,1.523403386
921.2124,1.326981193,1.46222685,0.819955389
922.1766,1.821430615,2.15432935,0.458689622
923.1409,1.886821635,3.0994580000000003,0.24577404600000002
924.1051,1.716758448,3.75370815,0.172951727
925.0693,1.48767669,3.9223828999999997,0.11743599000000002
926.0336,1.24325537,3.99693625,-0.07801396600000002
926.9978,0.95600521,4.3938644,-0.480355018
927.962,1.0018515049999999,4.4581512,-0.441420726
928.9263,1.622636475,3.784231695,0.5958094
929.8905,2.10432614,2.50247795,1.338124422
930.8547,2.18451151,0.4825208,1.372657958
931.819,1.8962764,-1.5036161300000002,0.757047994
932.7832,1.535591397,-2.4459093,-0.19804008099999998
933.7474,1.6482974110000002,-1.9218674499999997,-0.8474053870000001
934.7117,2.426847859,-1.2372934999999998,-0.45833692400000015
935.6759,2.957327845,-1.1935031500000002,-0.37311460899999993
936.6401,2.68124926,-0.2818999,-1.0604715710000001
937.6044,1.988639932,1.0444368,-0.929894388
938.5686,1.4507705199999998,1.936948005,0.655794436
939.5328,1.326897802,1.9925019,2.500567626
940.4971,1.4937665299999998,0.86014855,2.846506342
941.4613,1.9674779249999998,-2.5829909000000004,1.7310988770000002
942.4255,2.015071365,-4.4568731,0.946914402
943.3898,1.310467095,-2.8869445,0.519397938
944.354,0.60222194,-0.41054409999999997,0.27876514100000005
945.3182,0.085029705,1.2773084000000001,0.204395702
946.2825,-0.07873513499999998,1.6778016,0.24478213800000004
947.2467,0.31408659499999997,1.4090726999999998,0.44582180000000005
948.2109,1.4697476200000001,1.23558985,0.8789492640000001
949.1752,2.71701788,1.56703015,1.083098931
950.1394,3.570076615,2.51549065,0.796432647
951.1036,3.9203993500000003,3.3510237000000003,0.763110165
952.0679,3.4141189049999996,3.4645172499999997,0.953749929
953.0321,2.10461935,2.6458895,0.655714822
953.9963,0.645055425,1.3157686000000002,-0.466654146
954.9606,0.687366685,1.10993315,-0.9460211620000001
955.9248,3.0664047549999998,2.57237675,0.7319235689999999
956.889,4.72555795,4.0107389,2.4701016350000002
957.8533,5.186484549999999,5.389724449999999,3.74612908
958.8175,5.073968925,6.3723797,4.142203756
959.7817,4.97554371,6.4638478,3.755146808
960.746,5.14244365,6.492634799999999,3.229338849
961.7102,5.139663100000001,7.8123218,3.221076913
962.6744,4.0226116,9.96885805,3.571903684
963.6387,3.5557354,12.34609605,3.859317609
964.6029,5.670085643,15.0272195,3.62107168
965.5671,8.68144531,19.3737945,4.172560836
966.5314,10.9577519,24.484869600000003,6.338138853000001
967.4956,12.118338982000001,30.533127099999998,9.30255865
968.4598,13.331549050000001,42.64100625,12.43452243
969.4241,16.955197000000002,75.72349315,17.001721712
970.3883,18.22364065,130.93325595,17.542861770000002
971.3525,35.99649025,207.65204070000001,37.071839690000004
972.3168,81.11316,350.75341349999997,93.5428484
973.281,132.42274450000002,475.564936,156.3376181
974.2452,185.70862475,517.0972835,212.46572
975.2095,237.58241425,479.074005,257.9645574
976.1737,254.18615,412.92537,265.742434
977.1379,200.41465975,309.81062499999996,200.3095075
978.1022,138.4631315,215.2413055,129.4816763
979.0664,96.35745874999999,151.667527,84.5341636
980.0306,67.624731275,110.7281715,56.86001469
980.9949,47.63934225,84.7973495,39.76679486
981.9591,34.73910575,68.81811350000001,29.51363032
982.9233,27.167279699999998,59.2675385,23.752411209999998
983.8876,21.1607318,51.5128246,19.27236148
984.8518,16.964121589999998,45.69480715,16.698462979
985.816,15.256645850000002,39.80880145,14.55466832
986.7803,16.01166115,34.509921819999995,13.416422050000001
987.7445,16.788057375,32.12213285,13.18705073
988.7087,16.381853,33.8872896,13.26003433
989.673,15.402848999999998,37.82745885,13.07293556
990.6372,15.313328825,39.23657935,12.57425913
991.6014,16.353329300000002,36.685243299999996,12.11861022
992.5657,17.333684716999997,36.146341,12.332294982
993.5299,17.654609800000003,38.3906835,13.376045909999998
994.4941,18.30439155,42.93755395,14.344963560000002
995.4584,19.33426625,48.85064345,15.217128546
996.4226,20.88217435,55.6473188,16.25640504
997.3868,23.299123625,64.5458585,17.984390910000002
998.3511,26.563846249999997,76.003208085,20.317124778
999.3153,31.449872,93.8057895,23.21341687
1000.28,37.15156775,109.83829200000001,26.18244327
1001.244,43.95280375,133.2636175,27.42937182
1002.208,56.64276975,204.2529735,30.700272960000003
1003.172,70.879526,329.106875,31.006287329999992
1004.136,104.400856,523.539455,45.6817464
1005.101,200.41429,867.13856,119.55309240000001
1006.065,384.173765,1501.3855950000002,280.96746290000004
1007.029,566.7131525,1848.58769,440.09695289999996
1007.993,853.27396,1830.02651,698.0105324
1008.958,1027.7209925,1662.233275,854.578164
1009.922,947.2441325,1323.73013,769.2896824000001
1010.886,704.6916950000001,911.71664,533.9055938
1011.85,468.900045,580.5754549999999,322.571008
1012.815,299.66516,387.718775,194.8221249
1013.779,179.11311,270.25658500000003,112.97223269999999
1014.743,117.77586699999999,199.99552,73.86332579999998
1015.707,88.0859745,156.38338549999997,56.97971689
1016.672,67.782888,123.803919,44.8640858
1017.636,52.97607575,98.81449465,35.90406747
1018.6,42.495283199999996,78.89589925,29.366777820000003
1019.564,34.588015750000004,62.351465499999996,23.94393384
1020.528,28.764104250000003,50.214428999999996,19.96189922
1021.493,23.08861795,41.408675,16.512791890000003
1022.457,18.47648525,37.953258000000005,14.352622642
1023.421,15.334526499999999,35.275437499999995,12.39598724
1024.385,13.520837400000001,32.68631295,10.40922211
1025.35,12.167403649999999,29.5936347,8.809915400000001
1026.314,11.0587715,26.088574965,8.141956065999999
1027.278,10.307040685,22.95320225,8.13212193
1028.242,9.804768652,20.65976135,7.618556489
1029.207,9.401163275,19.05213245,5.991453377999999
1030.171,9.1285844,17.9402455,4.887846429
1031.135,9.27775455,17.399808450000002,5.563113138
1032.099,9.437899225,16.858838535,6.44143828
1033.063,9.270130675,16.641903550000002,6.521532197999999
1034.028,9.013321625,16.842617800000003,5.941608781
1034.992,8.994305575,16.89033895,5.396517156
1035.956,9.014941125,15.871651,5.360194831
1036.92,8.414218,13.817232500000001,5.446941682
1037.885,7.25109165,12.143332999999998,4.852165838
1038.849,5.766227275,11.446985,3.873512014
1039.813,4.64435993,11.42255115,3.4171942000000004
1040.777,4.124035299999999,11.540297599999999,3.5986452780000002
1041.742,4.23126675,11.0609005,3.984840844
1042.706,4.71013047,9.9160425,4.173012802
1043.67,5.2312879,8.6667015,4.205472691
1044.634,5.199310325,7.814635099999999,4.402532646999999
1045.599,4.483305305,6.6371400000000005,5.321943460000001
1046.563,4.1290958,5.889839,5.457226093
1047.527,4.30287735,7.0252158,3.8198024640000003
1048.491,4.1529069750000005,8.4723871,1.8987059620000002
1049.455,3.551617815,8.13359655,1.274882689
1050.42,3.245778135,6.0404555,2.3770712329999997
1051.384,3.58981225,4.522162,4.022721135
1052.348,3.2404481,5.5944270000000005,4.092228073
1053.312,1.8392120250000001,7.5014970000000005,2.685002947
1054.277,0.724106905,7.27779595,2.0476297930000005
1055.241,0.4422354450000001,5.91012,2.388681278
1056.205,1.000731672,5.5502352,2.650313456
1057.169,2.21098205,7.063592915,2.246717049
1058.134,3.5342166749999997,9.25457765,1.698546533
1059.098,4.021314205,9.53768902,1.555108589
1060.062,3.696380275,7.102934455,1.836855464
1061.026,3.1762851750000003,5.30861665,2.0543137330000003
1061.99,2.168312867,4.9980608,2.538512029
1062.955,0.913079725,4.550827,2.629011139
1063.919,-0.4225194700000001,3.66169145,1.997158764
1064.883,-1.459996171,2.7066558,1.17950686
1065.847,-1.794649822,1.75469805,0.9024323729999999
1066.812,-1.144484175,0.6372651,1.536299533
1067.776,0.05826873499999996,-0.11481230000000009,2.558903193
1068.74,0.669686565,0.9873461100000003,2.798586689
1069.704,0.591560826,2.8106980000000004,2.281975591
1070.669,0.688762425,2.6923069649999998,1.899564088
1071.633,1.4551478,0.18107190000000006,2.217523938
1072.597,2.209650175,-2.43829365,2.755502429
1073.561,1.876041375,-2.5532529,2.532647386
1074.526,0.493462075,-0.1678936999999998,1.329199693
1075.49,-0.40774490500000005,1.52784105,-0.02804374399999998
1076.454,-0.500226725,2.2341156,-1.8651825
1077.418,-0.557981272,2.244368,-3.0235007229999997
1078.382,-0.56840643,1.02215555,-2.966572296
1079.347,-0.29815320999999995,-0.49178904999999995,-2.278136168
1080.311,0.12575534499999996,-1.782272,-1.9786505000000003
1081.275,0.22384142499999998,-2.2714695,-2.4474329839999998
1082.239,-0.06391069499999999,-1.1113738000000002,-2.604874363
1083.204,-0.196200185,2.3561704,-0.9400615110000001
1084.168,0.04833076999999997,5.6871066,1.703127691
1085.132,0.0618985700000001,5.5033022,3.684033189
1086.096,-0.18405388,3.68307625,4.558783376
1087.061,-0.42232536600000015,2.28483415,3.9772270819999997
1088.025,-0.4049093799999999,1.6213790500000003,2.4386404309999996
1088.989,0.04782559999999991,1.01189435,1.1415669979999998
1089.953,0.946238637,-0.12216780000000016,0.9498828559999999
1090.917,1.938250675,-1.48115385,1.5173933109999997
1091.882,1.95533834,-1.5435149499999998,1.505296853
1092.846,-0.005873704999999951,0.9849805000000001,0.3295123149999999
1093.81,-1.2105607250000001,2.6155902,-0.378830129
1094.774,-1.50248246,3.2207412,-0.26672176400000003
1095.739,-1.505432655,3.28015151,-0.04846988699999999
1096.703,-1.1563430449999998,2.4470734,-0.279653964
1097.667,-0.24768943999999998,0.6811243999999999,-0.6330828419999999
1098.631,0.6389331619999999,-1.0161939500000001,-0.38974897399999997
1099.596,0.746444875,-2.00516725,0.60406724
1100.56,0.24285242699999998,-2.5533156,1.228110609
