7.140112e+001,1.607691e+002
7.236536e+001,1.486446e+002
7.332959e+001,1.426821e+002
7.429382e+001,1.477654e+002
7.525806e+001,1.649609e+002
7.622229e+001,1.752980e+002
7.718652e+001,1.662776e+002
7.815076e+001,1.276363e+002
7.911499e+001,1.011797e+002
8.007922e+001,8.365973e+001
8.104346e+001,7.573689e+001
8.200769e+001,7.870772e+001
8.297192e+001,9.845455e+001
8.393616e+001,1.233993e+002
8.490039e+001,1.611913e+002
8.586462e+001,2.015097e+002
8.682886e+001,2.270674e+002
8.779310e+001,2.017842e+002
8.875733e+001,1.610150e+002
8.972157e+001,1.237263e+002
9.068580e+001,9.677183e+001
9.165003e+001,7.910777e+001
9.261427e+001,7.055806e+001
9.357850e+001,6.812762e+001
9.454273e+001,6.737679e+001
9.550697e+001,6.537000e+001
9.647120e+001,6.190117e+001
9.743543e+001,5.924868e+001
9.839967e+001,5.885077e+001
9.936390e+001,5.823809e+001
1.003281e+002,5.399349e+001
1.012924e+002,3.931684e+001
1.022566e+002,2.977249e+001
1.032208e+002,3.001135e+001
1.041851e+002,3.738616e+001
1.051493e+002,4.533582e+001
1.061135e+002,4.934325e+001
1.070778e+002,5.055439e+001
1.080420e+002,4.823809e+001
1.090062e+002,4.264768e+001
1.099705e+002,3.529363e+001
1.109347e+002,2.785859e+001
1.118989e+002,2.144043e+001
1.128632e+002,1.982826e+001
1.138274e+002,2.591664e+001
1.147916e+002,4.151213e+001
1.157559e+002,4.912032e+001
1.167201e+002,4.651884e+001
1.176843e+002,4.035237e+001
1.186486e+002,3.877860e+001
1.196128e+002,4.616772e+001
1.205770e+002,5.255350e+001
1.215413e+002,6.005951e+001
1.225055e+002,6.622357e+001
1.234697e+002,6.605367e+001
1.244340e+002,4.721741e+001
1.253982e+002,2.792126e+001
1.263624e+002,1.126396e+001
1.273267e+002,-5.269409e-001
1.282909e+002,-5.339636e+000
1.292551e+002,1.043300e+001
1.302194e+002,3.255293e+001
1.311836e+002,4.836068e+001
1.321478e+002,4.982829e+001
1.331121e+002,3.675581e+001
1.340763e+002,2.488739e+001
1.350405e+002,1.305914e+001
1.360048e+002,5.110657e+000
1.369690e+002,6.078321e+000
1.379332e+002,2.606121e+001
1.388975e+002,3.853572e+001
1.398617e+002,4.127666e+001
1.408259e+002,3.746113e+001
1.417902e+002,3.208360e+001
1.427544e+002,2.528903e+001
1.437186e+002,1.913564e+001
1.446829e+002,1.381799e+001
1.456471e+002,9.522364e+000
1.466113e+002,6.393567e+000
1.475756e+002,3.819006e+000
1.485398e+002,3.205432e+000
1.495040e+002,7.918347e+000
1.504683e+002,1.844214e+001
1.514325e+002,3.223018e+001
1.523967e+002,3.302893e+001
1.533610e+002,2.389620e+001
1.543252e+002,1.357563e+001
1.552894e+002,8.405176e+000
1.562537e+002,1.073081e+001
1.572179e+002,1.118801e+001
1.581821e+002,7.547071e+000
1.591464e+002,3.848657e+000
1.601106e+002,4.844299e+000
1.610748e+002,1.669470e+001
1.620391e+002,2.418269e+001
1.630033e+002,2.142512e+001
1.639676e+002,1.289930e+001
1.649318e+002,5.842737e+000
1.658960e+002,9.658422e+000
1.668603e+002,1.481407e+001
1.678245e+002,1.370542e+001
1.687887e+002,6.816675e+000
1.697530e+002,-1.610425e+000
1.707172e+002,1.535132e+000
1.716814e+002,1.188992e+001
1.726457e+002,1.935360e+001
1.736099e+002,2.009037e+001
1.745741e+002,1.384637e+001
1.755384e+002,7.422290e+000
1.765026e+002,-1.193396e+000
1.774668e+002,-8.021106e+000
1.784311e+002,-1.019081e+001
1.793953e+002,-5.585559e+000
1.803595e+002,-2.380444e+000
1.813238e+002,-2.518347e+000
1.822880e+002,-4.003662e+000
1.832522e+002,-5.190894e+000
1.842165e+002,-4.731482e+000
1.851807e+002,-4.650244e+000
1.861449e+002,-7.188379e+000
1.871092e+002,-1.090858e+001
1.880734e+002,-1.411998e+001
1.890376e+002,-1.466510e+001
1.900019e+002,-1.241393e+001
1.909661e+002,-7.023071e+000
1.919303e+002,1.342932e+000
1.928946e+002,1.045258e+001
1.938588e+002,1.256152e+001
1.948230e+002,2.682251e+000
1.957873e+002,-3.166602e+000
1.967515e+002,-1.495874e+000
1.977157e+002,7.556348e+000
1.986800e+002,1.739095e+001
1.996442e+002,2.959039e+001
2.006084e+002,3.993124e+001
2.015727e+002,4.802370e+001
2.025369e+002,5.365754e+001
2.035011e+002,5.431196e+001
2.044654e+002,4.471774e+001
2.054296e+002,3.253180e+001
2.063938e+002,2.184916e+001
2.073581e+002,1.541652e+001
2.083223e+002,1.255919e+001
2.092865e+002,9.059912e+000
2.102508e+002,6.219897e+000
2.112150e+002,8.488379e+000
2.121792e+002,2.074061e+001
2.131435e+002,4.682325e+001
2.141077e+002,6.107810e+001
2.150719e+002,5.995281e+001
2.160362e+002,5.087937e+001
2.170004e+002,4.457190e+001
2.179646e+002,4.261528e+001
2.189289e+002,4.183804e+001
2.198931e+002,4.047543e+001
2.208573e+002,3.994659e+001
2.218216e+002,4.305598e+001
2.227858e+002,5.452874e+001
2.237500e+002,6.777718e+001
2.247143e+002,8.544038e+001
2.256785e+002,1.038214e+002
2.266427e+002,1.152062e+002
2.276070e+002,9.810720e+001
2.285712e+002,6.702152e+001
2.295354e+002,3.965527e+001
2.304997e+002,2.128875e+001
2.314639e+002,1.106281e+001
2.324281e+002,4.518970e+000
2.333924e+002,1.972790e+000
2.343566e+002,6.819946e-001
2.353208e+002,-1.187866e-001
2.362851e+002,-3.866821e-001
2.372493e+002,-5.258301e-001
2.382135e+002,-6.528931e-001
2.391778e+002,-6.858765e-001
2.401420e+002,-2.837402e-001
2.411062e+002,8.508911e-001
2.420705e+002,1.013355e+000
2.430347e+002,-1.536340e+000
2.439989e+002,-4.895447e+000
2.449632e+002,-7.760364e+000
2.459274e+002,-9.144678e+000
2.468916e+002,-9.163416e+000
2.478559e+002,-8.236792e+000
2.488201e+002,-6.717505e+000
2.497843e+002,-5.409241e+000
2.507486e+002,-5.279419e+000
2.517128e+002,-6.718469e+000
2.526770e+002,-5.734338e+000
2.536413e+002,-8.019654e-001
2.546055e+002,5.110059e+000
2.555697e+002,7.171948e+000
2.565340e+002,7.302490e-001
2.574982e+002,-3.199731e+000
2.584625e+002,-2.018530e+000
2.594267e+002,2.029944e+000
2.603909e+002,4.886902e+000
2.613552e+002,3.011108e+000
2.623194e+002,3.845947e-001
2.632836e+002,-1.356030e+000
2.642479e+002,-2.173499e+000
2.652121e+002,-2.571252e+000
2.661763e+002,-3.242554e+000
2.671406e+002,-3.988904e+000
2.681048e+002,-4.817932e+000
2.690690e+002,-5.655969e+000
2.700333e+002,-6.108521e+000
2.709975e+002,-4.222998e+000
2.719617e+002,1.327905e+000
2.729260e+002,4.974561e+000
2.738902e+002,4.854028e+000
2.748544e+002,1.007007e+000
2.758187e+002,-2.520520e+000
2.767829e+002,-6.233838e+000
2.777471e+002,-9.130603e+000
2.787114e+002,-1.088140e+001
2.796756e+002,-1.135631e+001
2.806398e+002,-1.049636e+001
2.816041e+002,-7.283020e+000
2.825683e+002,-3.651062e+000
2.835325e+002,-4.373169e-001
2.844968e+002,1.928052e+000
2.854610e+002,3.573096e+000
2.864252e+002,5.124695e+000
2.873895e+002,6.272229e+000
2.883537e+002,6.091516e+000
2.893179e+002,3.998828e+000
2.902822e+002,-1.087524e-001
2.912464e+002,-2.686438e+000
2.922106e+002,-3.434509e+000
2.931749e+002,-3.870166e+000
2.941391e+002,-5.160510e+000
2.951033e+002,-7.937451e+000
2.960676e+002,-9.840711e+000
2.970318e+002,-1.089467e+001
2.979960e+002,-1.087494e+001
2.989603e+002,-9.508191e+000
2.999245e+002,-6.562121e+000
3.008887e+002,-2.895545e+000
3.018530e+002,1.567871e+000
3.028172e+002,5.923523e+000
3.037814e+002,9.304321e+000
3.047457e+002,1.098398e+001
3.057099e+002,1.118849e+001
3.066741e+002,1.120747e+001
3.076384e+002,1.090256e+001
3.086026e+002,9.680346e+000
3.095668e+002,6.814771e+000
3.105311e+002,1.506982e+000
3.114953e+002,-1.914954e+000
3.124595e+002,-3.095459e+000
3.134238e+002,-3.063403e+000
3.143880e+002,-2.970276e+000
3.153522e+002,-2.998706e+000
3.163165e+002,-2.857117e+000
3.172807e+002,-2.257275e+000
3.182449e+002,-1.327087e+000
3.192092e+002,-3.916260e-001
3.201734e+002,-5.402832e-002
3.211376e+002,8.951416e-001
3.221019e+002,3.729199e+000
3.230661e+002,7.739722e+000
3.240303e+002,1.204207e+001
3.249946e+002,1.574177e+001
3.259588e+002,1.818696e+001
3.269230e+002,1.814120e+001
3.278873e+002,1.551071e+001
3.288515e+002,1.167736e+001
3.298157e+002,9.105139e+000
3.307800e+002,9.137866e+000
3.317442e+002,8.565332e+000
3.327084e+002,5.849829e+000
3.336727e+002,2.707507e+000
3.346369e+002,2.385791e+000
3.356011e+002,8.642029e+000
3.365654e+002,1.369951e+001
3.375296e+002,1.547430e+001
3.384938e+002,1.499828e+001
3.394581e+002,1.400782e+001
3.404223e+002,1.375784e+001
3.413865e+002,1.360839e+001
3.423508e+002,1.267776e+001
3.433150e+002,1.136130e+001
3.442792e+002,1.045187e+001
3.452435e+002,1.115438e+001
3.462077e+002,1.372642e+001
3.471719e+002,1.694358e+001
3.481362e+002,2.043348e+001
3.491004e+002,2.491544e+001
3.500646e+002,3.188501e+001
3.510289e+002,3.686738e+001
3.519931e+002,5.253988e+001
3.529573e+002,8.027783e+001
3.539216e+002,1.182103e+002
3.548858e+002,1.662552e+002
3.558500e+002,2.496732e+002
3.568143e+002,3.059462e+002
3.577785e+002,3.078580e+002
3.587427e+002,2.693214e+002
3.597070e+002,2.140311e+002
3.606712e+002,1.583332e+002
3.616354e+002,1.089323e+002
3.625997e+002,7.255263e+001
3.635639e+002,4.889556e+001
3.645281e+002,3.534777e+001
3.654924e+002,2.744513e+001
3.664566e+002,2.693289e+001
3.674208e+002,2.598825e+001
3.683851e+002,2.465763e+001
3.693493e+002,2.274989e+001
3.703135e+002,1.983564e+001
3.712778e+002,1.452888e+001
3.722420e+002,1.051480e+001
3.732062e+002,7.799219e+000
3.741705e+002,6.529028e+000
3.751347e+002,7.213904e+000
3.760989e+002,1.194694e+001
3.770632e+002,1.593965e+001
3.780274e+002,1.610195e+001
3.789916e+002,1.371201e+001
3.799559e+002,1.095818e+001
3.809201e+002,1.030250e+001
3.818844e+002,1.112480e+001
3.828486e+002,1.103245e+001
3.838128e+002,1.009125e+001
3.847771e+002,8.947058e+000
3.857413e+002,8.572180e+000
3.867055e+002,9.475317e+000
3.876698e+002,9.985693e+000
3.886340e+002,8.564428e+000
3.895982e+002,7.262231e+000
3.905625e+002,9.511047e+000
3.915267e+002,1.963677e+001
3.924909e+002,2.591746e+001
3.934552e+002,2.491964e+001
3.944194e+002,2.029545e+001
3.953836e+002,1.561176e+001
3.963479e+002,1.245823e+001
3.973121e+002,1.126934e+001
3.982763e+002,1.304855e+001
3.992406e+002,1.622411e+001
4.002048e+002,1.849623e+001
4.011690e+002,1.759882e+001
4.021333e+002,1.401548e+001
4.030975e+002,1.247670e+001
4.040617e+002,1.298387e+001
4.050260e+002,1.425308e+001
4.059902e+002,1.496553e+001
4.069544e+002,1.469899e+001
4.079187e+002,1.500527e+001
4.088829e+002,1.674142e+001
4.098471e+002,1.819459e+001
4.108114e+002,1.766999e+001
4.117756e+002,1.412892e+001
4.127398e+002,1.171921e+001
4.137041e+002,1.277574e+001
4.146683e+002,1.487274e+001
4.156325e+002,1.636002e+001
4.165968e+002,1.634402e+001
4.175610e+002,1.556068e+001
4.185252e+002,1.495637e+001
4.194895e+002,1.465645e+001
4.204537e+002,1.486842e+001
4.214179e+002,1.573690e+001
4.223822e+002,1.729718e+001
4.233464e+002,2.012438e+001
4.243106e+002,2.482189e+001
4.252749e+002,2.803247e+001
4.262391e+002,2.661438e+001
4.272033e+002,1.977769e+001
4.281676e+002,1.854360e+001
4.291318e+002,2.775177e+001
4.300960e+002,3.790370e+001
4.310603e+002,4.430111e+001
4.320245e+002,4.693242e+001
4.329887e+002,5.247659e+001
4.339530e+002,6.575588e+001
4.349172e+002,8.515706e+001
4.358814e+002,1.133620e+002
4.368457e+002,1.490733e+002
4.378099e+002,1.882897e+002
4.387741e+002,2.286020e+002
4.397384e+002,2.643995e+002
4.407026e+002,2.755648e+002
4.416668e+002,2.560779e+002
4.426311e+002,2.139215e+002
4.435953e+002,1.755911e+002
4.445595e+002,1.410131e+002
4.455238e+002,1.114969e+002
4.464880e+002,8.735431e+001
4.474522e+002,6.831834e+001
4.484165e+002,5.447477e+001
4.493807e+002,4.947398e+001
4.503449e+002,4.582197e+001
4.513092e+002,4.154179e+001
4.522734e+002,3.680580e+001
4.532376e+002,3.219862e+001
4.542019e+002,2.822699e+001
4.551661e+002,2.476406e+001
4.561303e+002,2.101093e+001
4.570946e+002,1.741820e+001
4.580588e+002,1.505073e+001
4.590230e+002,1.511840e+001
4.599873e+002,1.786885e+001
4.609515e+002,1.910607e+001
4.619157e+002,1.850347e+001
4.628800e+002,1.725017e+001
4.638442e+002,1.618628e+001
4.648084e+002,1.500737e+001
4.657727e+002,1.515863e+001
4.667369e+002,1.795454e+001
4.677011e+002,2.083613e+001
4.686654e+002,2.211409e+001
4.696296e+002,2.122293e+001
4.705938e+002,1.974911e+001
4.715581e+002,1.865972e+001
4.725223e+002,1.768063e+001
4.734865e+002,1.685089e+001
4.744508e+002,1.611610e+001
4.754150e+002,1.521317e+001
4.763792e+002,1.292804e+001
4.773435e+002,9.815222e+000
4.783077e+002,7.497388e+000
4.792719e+002,6.585254e+000
4.802362e+002,6.855835e+000
4.812004e+002,6.951562e+000
4.821646e+002,6.692956e+000
4.831289e+002,6.326514e+000
4.840931e+002,4.936218e+000
4.850573e+002,3.293713e+000
4.860216e+002,3.849475e+000
4.869858e+002,1.108348e+001
4.879500e+002,1.609161e+001
4.889143e+002,1.468269e+001
4.898785e+002,9.427893e+000
4.908427e+002,4.438098e+000
4.918070e+002,3.007568e+000
4.927712e+002,3.843530e+000
4.937354e+002,4.425500e+000
4.946997e+002,4.844580e+000
4.956639e+002,5.394690e+000
4.966281e+002,6.396887e+000
4.975924e+002,7.923779e+000
4.985566e+002,7.946374e+000
4.995208e+002,5.768018e+000
5.004851e+002,3.462622e+000
5.014493e+002,2.540674e+000
5.024135e+002,3.287500e+000
5.033778e+002,4.243360e+000
5.043420e+002,5.985816e+000
5.053063e+002,7.425464e+000
5.062705e+002,7.792859e+000
5.072347e+002,6.930810e+000
5.081990e+002,5.641748e+000
5.091632e+002,4.176453e+000
5.101274e+002,3.054712e+000
5.110917e+002,2.879187e+000
5.120559e+002,3.648743e+000
5.130201e+002,4.896228e+000
5.139844e+002,5.775794e+000
5.149486e+002,6.145642e+000
5.159128e+002,5.629395e+000
5.168771e+002,3.930017e+000
5.178413e+002,1.796985e+000
5.188055e+002,9.079468e-001
5.197698e+002,2.745984e+000
5.207340e+002,3.546887e+000
5.216982e+002,2.546582e+000
5.226625e+002,8.609009e-001
5.236267e+002,-4.129151e-001
5.245909e+002,-1.117554e+000
5.255552e+002,-8.560425e-001
5.265194e+002,1.236304e+000
5.274836e+002,3.714697e+000
5.284479e+002,5.476599e+000
5.294121e+002,5.903174e+000
5.303763e+002,5.232605e+000
5.313406e+002,2.707581e+000
5.323048e+002,-6.111938e-001
5.332690e+002,-1.999512e+000
5.342333e+002,7.214355e-003
5.351975e+002,4.760352e+000
5.361617e+002,6.846558e+000
5.371260e+002,3.931555e+000
5.380902e+002,2.101001e+000
5.390544e+002,3.271790e+000
5.400187e+002,6.327466e+000
5.409829e+002,7.714831e+000
5.419471e+002,5.145923e+000
5.429114e+002,2.813635e+000
5.438756e+002,1.896606e+000
5.448398e+002,1.895581e+000
5.458041e+002,1.999426e+000
5.467683e+002,1.726489e+000
5.477325e+002,1.130273e+000
5.486968e+002,-9.252930e-002
5.496610e+002,-1.514209e+000
5.506252e+002,-2.095764e+000
5.515895e+002,-9.725830e-001
5.525537e+002,1.783191e+000
5.535179e+002,2.223303e+000
5.544822e+002,-2.811401e-001
5.554464e+002,-2.242639e+000
5.564106e+002,-1.443994e+000
5.573749e+002,2.106335e+000
5.583391e+002,4.244275e+000
5.593033e+002,3.898718e+000
5.602676e+002,2.830981e+000
5.612318e+002,8.459473e-001
5.621960e+002,-1.588757e+000
5.631603e+002,-3.392944e+000
5.641245e+002,-3.355090e+000
5.650887e+002,-2.796875e+000
5.660530e+002,-2.984351e+000
5.670172e+002,-3.661645e+000
5.679814e+002,-4.204749e+000
5.689457e+002,-3.966125e+000
5.699099e+002,-2.865625e+000
5.708741e+002,-3.405518e-001
5.718384e+002,4.246362e+000
5.728026e+002,7.501452e+000
5.737668e+002,5.499158e+000
5.747311e+002,-3.728589e+000
5.756953e+002,-8.333227e+000
5.766595e+002,-4.759705e+000
5.776238e+002,-9.749634e-001
5.785880e+002,-3.871948e-001
5.795522e+002,-2.885620e+000
5.805165e+002,-4.933252e+000
5.814807e+002,-3.403723e+000
5.824449e+002,-1.289465e+000
5.834092e+002,-1.896851e-001
5.843734e+002,-5.224609e-002
5.853376e+002,-4.162598e-002
5.863019e+002,9.212402e-001
5.872661e+002,2.463184e+000
5.882303e+002,2.652893e+000
5.891946e+002,1.481128e+000
5.901588e+002,-1.120972e-001
5.911230e+002,-1.295850e+000
5.920873e+002,-2.228455e+000
5.930515e+002,-2.062903e+000
5.940157e+002,2.523682e-001
5.949800e+002,2.315796e+000
5.959442e+002,2.576025e+000
5.969084e+002,1.020605e+000
5.978727e+002,-8.684082e-002
5.988369e+002,1.827234e+000
5.998011e+002,3.399646e+000
6.007654e+002,2.798779e+000
6.017296e+002,4.192749e-001
6.026938e+002,-2.143372e+000
6.036581e+002,-3.199536e+000
6.046223e+002,-2.949072e+000
6.055865e+002,-2.069824e+000
6.065508e+002,-6.417602e-001
6.075150e+002,1.374634e-001
6.084792e+002,-1.273035e+000
6.094435e+002,-5.884485e+000
6.104077e+002,-7.091998e+000
6.113719e+002,-2.390479e+000
6.123362e+002,1.891675e+000
6.133004e+002,1.863855e+000
6.142646e+002,-2.517444e+000
6.152289e+002,-5.786420e+000
6.161931e+002,-4.562146e+000
6.171573e+002,-2.816931e+000
6.181216e+002,-1.564062e+000
6.190858e+002,-9.052368e-001
6.200500e+002,-5.519165e-001
6.210143e+002,-3.916870e-001
6.219785e+002,-2.949097e-001
6.229427e+002,2.988648e-001
6.239070e+002,1.195349e+000
6.248712e+002,1.597790e+000
6.258354e+002,7.078125e-001
6.267997e+002,-1.629517e+000
6.277639e+002,-2.566296e+000
6.287281e+002,-1.774207e+000
6.296924e+002,-7.727417e-001
6.306566e+002,-5.932617e-002
6.316208e+002,3.625488e-001
6.325851e+002,4.587036e-001
6.335493e+002,-7.594727e-001
6.345135e+002,-1.120178e+000
6.354778e+002,6.510864e-001
6.364420e+002,3.658215e+000
6.374063e+002,6.269580e+000
6.383705e+002,7.357642e+000
6.393347e+002,7.016553e+000
6.402990e+002,5.280921e+000
6.412632e+002,2.775720e+000
6.422274e+002,9.635132e-001
6.431917e+002,9.469360e-001
6.441559e+002,2.597095e+000
6.451201e+002,3.287695e+000
6.460844e+002,2.464990e+000
6.470486e+002,1.927637e+000
6.480128e+002,2.391516e+000
6.489771e+002,3.642554e+000
6.499413e+002,4.766296e+000
6.509055e+002,6.135986e+000
6.518698e+002,6.443982e+000
6.528340e+002,4.769080e+000
6.537982e+002,2.205041e+000
6.547625e+002,-4.688721e-002
6.557267e+002,-1.356287e+000
6.566909e+002,-1.822034e+000
6.576552e+002,-1.189880e+000
6.586194e+002,-8.933105e-002
6.595836e+002,5.547608e-001
6.605479e+002,3.268189e-001
6.615121e+002,-4.706787e-001
6.624763e+002,-7.513672e-001
6.634406e+002,-1.724976e-001
6.644048e+002,-5.972900e-002
6.653690e+002,-1.398560e+000
6.663333e+002,-3.242383e+000
6.672975e+002,-3.541833e+000
6.682617e+002,-1.039453e+000
6.692260e+002,1.097644e+000
6.701902e+002,2.131824e+000
6.711544e+002,2.566064e+000
6.721187e+002,2.641296e+000
6.730829e+002,2.438977e+000
6.740471e+002,2.074011e+000
6.750114e+002,1.681287e+000
6.759756e+002,1.381299e+000
6.769398e+002,1.260034e+000
6.779041e+002,1.339319e+000
6.788683e+002,1.672485e+000
6.798325e+002,2.410181e+000
6.807968e+002,3.891602e+000
6.817610e+002,4.096167e+000
6.827252e+002,1.985046e+000
6.836895e+002,-4.773437e-001
6.846537e+002,-1.469873e+000
6.856179e+002,-7.130371e-001
6.865822e+002,-2.109375e-001
6.875464e+002,-8.542236e-001
6.885106e+002,-1.400342e+000
6.894749e+002,-1.359485e+000
6.904391e+002,-6.848022e-001
6.914034e+002,5.324097e-001
6.923676e+002,2.751404e+000
6.933318e+002,4.778821e+000
6.942961e+002,4.735559e+000
6.952603e+002,3.061694e+000
6.962245e+002,1.203772e+000
6.971888e+002,4.617920e-001
6.981530e+002,8.197632e-001
6.991172e+002,1.046692e+000
7.000815e+002,1.164319e+000
7.010457e+002,1.104175e+000
7.020099e+002,8.076294e-001
7.029742e+002,3.842285e-001
7.039384e+002,1.421631e-001
7.049026e+002,1.935425e-001
7.058669e+002,2.567627e-001
7.068311e+002,2.043457e-002
7.077953e+002,-1.924072e-001
7.087596e+002,3.029663e-001
7.097238e+002,1.970239e+000
7.106880e+002,3.595447e+000
7.116523e+002,2.306506e+000
7.126165e+002,-2.396851e-001
7.135807e+002,-1.257928e+000
7.145450e+002,2.935913e-001
7.155092e+002,3.129920e+000
7.164734e+002,3.657153e+000
7.174377e+002,-3.375244e-002
7.184019e+002,-1.994397e+000
7.193661e+002,-1.242694e+000
7.203304e+002,4.650024e-001
7.212946e+002,1.393311e+000
7.222589e+002,1.347290e+000
7.232231e+002,1.054175e+000
7.241873e+002,2.173340e-001
7.251516e+002,-3.238098e-001
7.261158e+002,5.731201e-003
7.270800e+002,1.088318e+000
7.280443e+002,2.369092e+000
7.290085e+002,3.595630e+000
7.299727e+002,4.303931e+000
7.309370e+002,3.551050e+000
7.319012e+002,1.522925e+000
7.328654e+002,-8.097168e-001
7.338297e+002,-2.644922e+000
7.347939e+002,-4.016162e+000
7.357581e+002,-4.355042e+000
7.367224e+002,-3.020990e+000
7.376866e+002,-1.679938e+000
7.386508e+002,-5.339721e-001
7.396151e+002,3.035339e-001
7.405793e+002,4.374329e-001
7.415435e+002,-8.263122e-001
7.425078e+002,-1.648358e+000
7.434720e+002,-1.182214e+000
7.444362e+002,-9.502564e-002
7.454005e+002,1.041382e+000
7.463647e+002,1.932104e+000
7.473289e+002,2.563550e+000
7.482932e+002,3.056787e+000
7.492574e+002,3.330957e+000
7.502216e+002,2.699133e+000
7.511859e+002,8.534546e-001
7.521501e+002,-1.417969e+000
7.531143e+002,-2.569122e+000
7.540786e+002,-1.861365e+000
7.550428e+002,-1.573407e+000
7.560070e+002,-2.490509e+000
7.569713e+002,-3.033728e+000
7.579355e+002,-1.830951e+000
7.588997e+002,9.932129e-001
7.598640e+002,3.186084e+000
7.608282e+002,3.000500e+000
7.617924e+002,2.394873e+000
7.627567e+002,2.289356e+000
7.637209e+002,2.572571e+000
7.646851e+002,2.631763e+000
7.656494e+002,1.935498e+000
7.666136e+002,1.096716e+000
7.675778e+002,3.563440e+000
7.685421e+002,8.809155e+000
7.695063e+002,1.207216e+001
7.704705e+002,1.065980e+001
7.714348e+002,5.834216e+000
7.723990e+002,2.701721e+000
7.733632e+002,2.819434e+000
7.743275e+002,2.262061e+000
7.752917e+002,1.507385e-001
7.762559e+002,-2.224335e+000
7.772202e+002,-3.706531e+000
7.781844e+002,-4.013147e+000
7.791486e+002,-3.960950e+000
7.801129e+002,-4.094470e+000
7.810771e+002,-4.280615e+000
7.820413e+002,-4.539124e+000
7.830056e+002,-4.747412e+000
7.839698e+002,-4.608447e+000
7.849340e+002,-3.766913e+000
7.858983e+002,-2.268915e+000
7.868625e+002,-1.305621e+000
7.878267e+002,-1.084131e+000
7.887910e+002,-7.073730e-001
7.897552e+002,8.275207e-001
7.907194e+002,3.252307e+000
7.916837e+002,4.116773e+000
7.926479e+002,1.594690e+000
7.936121e+002,-5.684204e-001
7.945764e+002,-1.673437e+000
7.955406e+002,-2.094769e+000
7.965048e+002,-2.214062e+000
7.974691e+002,-2.134430e+000
7.984333e+002,-1.805670e+000
7.993975e+002,-8.576599e-001
8.003618e+002,8.588257e-002
8.013260e+002,2.607117e-001
8.022902e+002,-4.416809e-001
8.032545e+002,-1.557367e+000
8.042187e+002,-2.380438e+000
8.051829e+002,-2.771796e+000
8.061472e+002,-3.506561e+000
8.071114e+002,-5.058887e+000
8.080756e+002,-6.449170e+000
8.090399e+002,-7.370648e+000
8.100041e+002,-7.737866e+000
8.109683e+002,-7.095770e+000
8.119326e+002,-4.179413e+000
8.128968e+002,-1.776746e+000
8.138610e+002,-1.127551e+000
8.148253e+002,-1.445111e+000
8.157895e+002,-1.891632e+000
8.167537e+002,-2.012848e+000
8.177180e+002,-1.728888e+000
8.186822e+002,-3.840759e-001
8.196464e+002,1.462146e+000
8.206107e+002,2.315161e+000
8.215749e+002,1.753046e+000
8.225391e+002,5.671997e-001
8.235034e+002,3.234863e-003
8.244676e+002,1.918701e-001
8.254318e+002,5.843567e-001
8.263961e+002,2.013434e+000
8.273603e+002,2.890100e+000
8.283245e+002,1.838843e+000
8.292888e+002,-5.986816e-001
8.302530e+002,-2.098157e+000
8.312172e+002,-1.125287e+000
8.321815e+002,3.147583e-001
8.331457e+002,1.139319e+000
8.341099e+002,1.457831e+000
8.350742e+002,1.287384e+000
8.360384e+002,6.908264e-001
8.370026e+002,-2.937622e-002
8.379669e+002,-6.240235e-002
8.389311e+002,5.984192e-001
8.398953e+002,5.462891e-001
8.408596e+002,-7.739319e-001
8.418238e+002,-2.290778e+000
8.427880e+002,-2.582953e+000
8.437523e+002,-1.299793e+000
8.447165e+002,-4.934021e-001
8.456807e+002,-3.949646e-001
8.466450e+002,-7.778076e-001
8.476092e+002,-1.934387e+000
8.485734e+002,-3.554938e+000
8.495377e+002,-5.123675e+000
8.505019e+002,-6.419879e+000
8.514661e+002,-7.085809e+000
8.524304e+002,-6.256952e+000
8.533946e+002,-4.707123e+000
8.543588e+002,-3.674194e+000
8.553231e+002,-3.622638e+000
8.562873e+002,-4.115814e+000
8.572515e+002,-4.188110e+000
8.582158e+002,-3.686139e+000
8.591800e+002,-3.191010e+000
8.601442e+002,-2.746558e+000
8.611085e+002,-2.364575e+000
8.620727e+002,-1.759430e+000
8.630369e+002,-9.716552e-001
8.640012e+002,-9.979187e-001
8.649654e+002,-3.078693e+000
8.659296e+002,-5.075629e+000
8.668939e+002,-6.400653e+000
8.678581e+002,-6.928687e+000
8.688223e+002,-6.357562e+000
8.697866e+002,-4.621954e+000
8.707508e+002,-2.429181e+000
8.717150e+002,-1.203632e+000
8.726793e+002,-8.462036e-001
8.736435e+002,-1.011847e+000
8.746077e+002,-1.758734e+000
8.755720e+002,-2.616089e+000
8.765362e+002,-2.923700e+000
8.775004e+002,-2.490930e+000
8.784647e+002,-2.298023e+000
8.794289e+002,-2.663568e+000
8.803931e+002,-2.970496e+000
8.813574e+002,-2.839661e+000
8.823216e+002,-2.559161e+000
8.832858e+002,-2.711615e+000
8.842501e+002,-3.574054e+000
8.852143e+002,-4.633020e+000
8.861785e+002,-5.859308e+000
8.871428e+002,-6.876697e+000
8.881070e+002,-6.931872e+000
8.890712e+002,-5.944263e+000
8.900355e+002,-4.694519e+000
8.909997e+002,-4.448041e+000
8.919639e+002,-5.389923e+000
8.929282e+002,-5.764783e+000
8.938924e+002,-5.465118e+000
8.948566e+002,-4.877973e+000
8.958209e+002,-3.770898e+000
8.967851e+002,-2.425763e+000
8.977493e+002,-2.190210e+000
8.987136e+002,-4.210095e+000
8.996778e+002,-6.066400e+000
9.006420e+002,-7.091022e+000
9.016063e+002,-7.362525e+000
9.025705e+002,-6.353045e+000
9.035347e+002,-4.285699e+000
9.044990e+002,-2.859235e+000
9.054632e+002,-4.895599e+000
9.064274e+002,-9.214666e+000
9.073917e+002,-1.016988e+001
9.083559e+002,-7.498401e+000
9.093201e+002,-4.631726e+000
9.102844e+002,-4.535089e+000
9.112486e+002,-6.999304e+000
9.122128e+002,-7.724835e+000
9.131771e+002,-4.674652e+000
9.141413e+002,-2.425665e+000
9.151055e+002,-1.268188e+000
9.160698e+002,-1.113336e+000
9.170340e+002,-2.462195e+000
9.179982e+002,-5.306720e+000
9.189625e+002,-7.474774e+000
9.199267e+002,-6.393664e+000
9.208909e+002,-4.281873e+000
9.218552e+002,-3.059399e+000
9.228194e+002,-2.763928e+000
9.237836e+002,-3.042676e+000
9.247479e+002,-3.637225e+000
9.257121e+002,-4.388611e+000
9.266763e+002,-4.293017e+000
9.276406e+002,-2.463782e+000
9.286048e+002,-1.873065e+000
9.295690e+002,-4.144061e+000
9.305333e+002,-6.912561e+000
9.314975e+002,-7.179810e+000
9.324617e+002,-4.448425e+000
9.334260e+002,-2.219922e+000
9.343902e+002,-2.906293e+000
9.353545e+002,-3.617065e+000
9.363187e+002,-2.604425e+000
9.372830e+002,-7.703003e-001
9.382472e+002,-7.452393e-002
9.392114e+002,-1.672174e+000
9.401757e+002,-4.306641e+000
9.411399e+002,-5.161853e+000
9.421041e+002,-4.511365e+000
9.430684e+002,-3.314423e+000
9.440326e+002,-1.541363e+000
9.449968e+002,1.682800e-001
9.459611e+002,1.144574e+000
9.469253e+002,1.464801e+000
9.478895e+002,1.235596e+000
9.488538e+002,-6.886109e-001
9.498180e+002,-1.951221e+000
9.507822e+002,-1.556604e+000
9.517465e+002,-2.832642e-001
9.527107e+002,7.590027e-001
9.536749e+002,1.159168e+000
9.546392e+002,1.355444e+000
9.556034e+002,1.493719e+000
9.565676e+002,1.834332e+000
9.575319e+002,3.224524e+000
9.584961e+002,5.613806e+000
9.594603e+002,7.617139e+000
9.604246e+002,7.624097e+000
9.613888e+002,5.574890e+000
9.623530e+002,4.816596e+000
9.633173e+002,6.758020e+000
9.642815e+002,7.989343e+000
9.652457e+002,7.535840e+000
9.662100e+002,6.635388e+000
9.671742e+002,6.426489e+000
9.681384e+002,7.028076e+000
9.691027e+002,8.884875e+000
9.700669e+002,7.850220e+000
9.710311e+002,1.243264e+001
9.719954e+002,3.331394e+001
9.729596e+002,6.463407e+001
9.739238e+002,9.479089e+001
9.748881e+002,1.155257e+002
9.758523e+002,1.249037e+002
9.768165e+002,1.136762e+002
9.777808e+002,7.639851e+001
9.787450e+002,4.758186e+001
9.797092e+002,3.331419e+001
9.806735e+002,2.647064e+001
9.816377e+002,2.108545e+001
9.826019e+002,1.718120e+001
9.835662e+002,1.467540e+001
9.845304e+002,1.521704e+001
9.854946e+002,1.531112e+001
9.864589e+002,1.277153e+001
9.874231e+002,9.582629e+000
9.883873e+002,8.334399e+000
9.893516e+002,9.864795e+000
9.903158e+002,1.263082e+001
9.912800e+002,1.475872e+001
9.922443e+002,1.649926e+001
9.932085e+002,1.827313e+001
9.941727e+002,2.002717e+001
9.951370e+002,2.289468e+001
9.961012e+002,2.709624e+001
9.970654e+002,3.266525e+001
9.980297e+002,4.025254e+001
9.989939e+002,3.870766e+001
9.999581e+002,6.068641e+001
1.000922e+003,1.050628e+002
1.001887e+003,1.751437e+002
1.002851e+003,3.090285e+002
1.003815e+003,4.825569e+002
1.004779e+003,5.899971e+002
1.005744e+003,5.435802e+002
1.006708e+003,4.134291e+002
1.007672e+003,2.944083e+002
1.008636e+003,1.898799e+002
1.009600e+003,1.143531e+002
1.010565e+003,7.448711e+001
1.011529e+003,5.915667e+001
1.012493e+003,4.760026e+001
1.013457e+003,4.094604e+001
1.014422e+003,3.538568e+001
1.015386e+003,3.101670e+001
1.016350e+003,2.736609e+001
1.017314e+003,2.407230e+001
1.018279e+003,2.123260e+001
1.019243e+003,1.919479e+001
1.020207e+003,1.814774e+001
1.021171e+003,1.776019e+001
1.022135e+003,1.873881e+001
1.023100e+003,1.969078e+001
1.024064e+003,1.869323e+001
1.025028e+003,1.609065e+001
1.025992e+003,1.421349e+001
1.026957e+003,1.524051e+001
1.027921e+003,1.861215e+001
1.028885e+003,2.016382e+001
1.029849e+003,1.862726e+001
1.030814e+003,1.822046e+001
1.031778e+003,2.045671e+001
1.032742e+003,2.285311e+001
1.033706e+003,2.294890e+001
1.034671e+003,2.076074e+001
1.035635e+003,1.850609e+001
1.036599e+003,1.643999e+001
1.037563e+003,1.530629e+001
1.038527e+003,1.605822e+001
1.039492e+003,1.757422e+001
1.040456e+003,1.823247e+001
1.041420e+003,1.758901e+001
1.042384e+003,1.695707e+001
1.043349e+003,1.841296e+001
1.044313e+003,2.184943e+001
1.045277e+003,2.312109e+001
1.046241e+003,2.160564e+001
1.047206e+003,2.001991e+001
1.048170e+003,1.951528e+001
1.049134e+003,1.988684e+001
1.050098e+003,2.080547e+001
1.051063e+003,2.263156e+001
1.052027e+003,2.405498e+001
1.052991e+003,2.417803e+001
1.053955e+003,2.397701e+001
1.054919e+003,2.418092e+001
1.055884e+003,2.449450e+001
1.056848e+003,2.397886e+001
1.057812e+003,2.213225e+001
1.058776e+003,2.007904e+001
1.059741e+003,2.015962e+001
1.060705e+003,2.202423e+001
1.061669e+003,2.374913e+001
1.062633e+003,2.534783e+001
1.063598e+003,2.596959e+001
1.064562e+003,2.427205e+001
1.065526e+003,2.058307e+001
1.066490e+003,1.853546e+001
1.067454e+003,1.892636e+001
1.068419e+003,2.019760e+001
1.069383e+003,2.233674e+001
1.070347e+003,2.462687e+001
1.071311e+003,2.693670e+001
1.072276e+003,2.900133e+001
1.073240e+003,3.016385e+001
1.074204e+003,2.983794e+001
1.075168e+003,2.849099e+001
1.076133e+003,2.683389e+001
1.077097e+003,2.502963e+001
1.078061e+003,2.377540e+001
1.079025e+003,2.322366e+001
1.079990e+003,2.341760e+001
1.080954e+003,2.468915e+001
1.081918e+003,2.729949e+001
1.082882e+003,2.917916e+001
1.083846e+003,2.986254e+001
1.084811e+003,3.009011e+001
1.085775e+003,2.959943e+001
1.086739e+003,2.893566e+001
1.087703e+003,2.888505e+001
1.088668e+003,2.957025e+001
1.089632e+003,3.010577e+001
1.090596e+003,2.960972e+001
1.091560e+003,2.837402e+001
1.092525e+003,2.657861e+001
1.093489e+003,2.455940e+001
1.094453e+003,2.414701e+001
1.095417e+003,2.642707e+001
1.096381e+003,2.999875e+001
1.097346e+003,3.193081e+001
1.098310e+003,3.163147e+001
1.099274e+003,3.178182e+001
1.100238e+003,3.351442e+001
1.101203e+003,3.444408e+001
1.102167e+003,3.322190e+001
1.103131e+003,3.099125e+001
1.104095e+003,2.909635e+001
1.105060e+003,2.793845e+001
1.106024e+003,2.751589e+001
1.106988e+003,2.808335e+001
1.107952e+003,2.946946e+001
1.108917e+003,3.145483e+001
1.109881e+003,3.378666e+001
1.110845e+003,3.556136e+001
1.111809e+003,3.621255e+001
1.112773e+003,3.618640e+001
1.113738e+003,3.676070e+001
1.114702e+003,3.878133e+001
1.115666e+003,3.927006e+001
1.116630e+003,3.687675e+001
1.117595e+003,3.465852e+001
1.118559e+003,3.319086e+001
1.119523e+003,3.274926e+001
1.120487e+003,3.420289e+001
1.121452e+003,3.774062e+001
1.122416e+003,4.071583e+001
1.123380e+003,4.017272e+001
1.124344e+003,3.804478e+001
1.125308e+003,3.692928e+001
1.126273e+003,3.688989e+001
1.127237e+003,3.770878e+001
1.128201e+003,3.933738e+001
1.129165e+003,4.119593e+001
1.130130e+003,4.189580e+001
1.131094e+003,4.106075e+001
1.132058e+003,3.979690e+001
1.133022e+003,3.714840e+001
1.133987e+003,3.539463e+001
1.134951e+003,3.579926e+001
1.135915e+003,3.743694e+001
1.136879e+003,3.922100e+001
1.137844e+003,4.080084e+001
1.138808e+003,4.151626e+001
1.139772e+003,4.009948e+001
1.140736e+003,3.791670e+001
1.141700e+003,3.701431e+001
1.142665e+003,3.725301e+001
1.143629e+003,3.788309e+001
1.144593e+003,3.857590e+001
1.145557e+003,3.948837e+001
1.146522e+003,4.088046e+001
1.147486e+003,4.277830e+001
1.148450e+003,4.422501e+001
1.149414e+003,4.550878e+001
1.150379e+003,4.638402e+001
1.151343e+003,4.650811e+001
1.152307e+003,4.639571e+001
1.153271e+003,4.657855e+001
1.154235e+003,4.705566e+001
1.155200e+003,4.738087e+001
1.156164e+003,4.715131e+001
1.157128e+003,4.711470e+001
1.158092e+003,4.857296e+001
1.159057e+003,5.085372e+001
1.160021e+003,5.220548e+001
1.160985e+003,5.192047e+001
1.161949e+003,5.080066e+001
1.162914e+003,5.001435e+001
1.163878e+003,4.962173e+001
1.164842e+003,4.971041e+001
1.165806e+003,5.105261e+001
1.166771e+003,5.170757e+001
1.167735e+003,5.055379e+001
1.168699e+003,4.930580e+001
1.169663e+003,4.980071e+001
1.170627e+003,5.187673e+001
1.171592e+003,5.366515e+001
1.172556e+003,5.402100e+001
1.173520e+003,5.376558e+001
1.174484e+003,5.386351e+001
1.175449e+003,5.422897e+001
1.176413e+003,5.484472e+001
1.177377e+003,5.568298e+001
1.178341e+003,5.655201e+001
1.179306e+003,5.725962e+001
1.180270e+003,5.790138e+001
1.181234e+003,5.901934e+001
1.182198e+003,6.164772e+001
1.183162e+003,6.262886e+001
1.184127e+003,6.002236e+001
1.185091e+003,5.747570e+001
1.186055e+003,5.798926e+001
1.187019e+003,6.044244e+001
1.187984e+003,6.139119e+001
1.188948e+003,5.916380e+001
1.189912e+003,5.630923e+001
1.190876e+003,5.613208e+001
1.191841e+003,5.788432e+001
1.192805e+003,5.977152e+001
1.193769e+003,6.171505e+001
1.194733e+003,6.314851e+001
1.195698e+003,6.348116e+001
1.196662e+003,6.319733e+001
1.197626e+003,6.378959e+001
1.198590e+003,6.576089e+001
1.199554e+003,6.663203e+001
1.200519e+003,6.498405e+001
1.201483e+003,6.376539e+001
1.202447e+003,6.412456e+001
1.203411e+003,6.532349e+001
1.204376e+003,6.650757e+001
1.205340e+003,6.722219e+001
1.206304e+003,6.713419e+001
1.207268e+003,6.594942e+001
1.208233e+003,6.447823e+001
1.209197e+003,6.478493e+001
1.210161e+003,6.649934e+001
1.211125e+003,6.767387e+001
1.212089e+003,6.738416e+001
1.213054e+003,6.668674e+001
1.214018e+003,6.685966e+001
1.214982e+003,6.804402e+001
1.215946e+003,6.990080e+001
1.216911e+003,7.326070e+001
1.217875e+003,7.525237e+001
1.218839e+003,7.346692e+001
1.219803e+003,7.145393e+001
1.220768e+003,7.286858e+001
1.221732e+003,7.653981e+001
1.222696e+003,7.825963e+001
1.223660e+003,7.572626e+001
1.224625e+003,7.185277e+001
1.225589e+003,7.205286e+001
1.226553e+003,7.634969e+001
1.227517e+003,7.837743e+001
1.228481e+003,7.738039e+001
1.229446e+003,7.643087e+001
1.230410e+003,7.720815e+001
1.231374e+003,7.864787e+001
1.232338e+003,7.882994e+001
1.233303e+003,7.761727e+001
1.234267e+003,7.710872e+001
1.235231e+003,7.854506e+001
1.236195e+003,8.004558e+001
1.237160e+003,8.018126e+001
1.238124e+003,7.984322e+001
1.239088e+003,8.072701e+001
1.240052e+003,8.279506e+001
1.241016e+003,8.375136e+001
1.241981e+003,8.128075e+001
1.242945e+003,7.663084e+001
1.243909e+003,7.573512e+001
1.244873e+003,8.121979e+001
1.245838e+003,8.439955e+001
1.246802e+003,8.420925e+001
1.247766e+003,8.277670e+001
1.248730e+003,7.997231e+001
1.249695e+003,7.709418e+001
1.250659e+003,7.738286e+001
1.251623e+003,8.186513e+001
1.252587e+003,8.604961e+001
1.253552e+003,8.615267e+001
1.254516e+003,8.526147e+001
1.255480e+003,8.694720e+001
1.256444e+003,9.009469e+001
1.257408e+003,9.184407e+001
1.258373e+003,9.111803e+001
1.259337e+003,8.921352e+001
1.260301e+003,8.777423e+001
1.261265e+003,8.685870e+001
1.262230e+003,8.730355e+001
1.263194e+003,9.051021e+001
1.264158e+003,9.256932e+001
1.265122e+003,9.274834e+001
1.266087e+003,9.231621e+001
1.267051e+003,9.157045e+001
1.268015e+003,9.112901e+001
1.268979e+003,9.246980e+001
1.269943e+003,9.620084e+001
1.270908e+003,9.959280e+001
1.271872e+003,9.932699e+001
1.272836e+003,9.685166e+001
1.273800e+003,9.588763e+001
1.274765e+003,9.637401e+001
1.275729e+003,9.658884e+001
1.276693e+003,9.555347e+001
1.277657e+003,9.418119e+001
1.278622e+003,9.395235e+001
1.279586e+003,9.487492e+001
1.280550e+003,9.545856e+001
1.281514e+003,9.573730e+001
1.282479e+003,9.595831e+001
1.283443e+003,9.608836e+001
1.284407e+003,9.610281e+001
1.285371e+003,9.567285e+001
1.286335e+003,9.498430e+001
1.287300e+003,9.467385e+001
1.288264e+003,9.515897e+001
1.289228e+003,9.616875e+001
1.290192e+003,9.717052e+001
1.291157e+003,9.814960e+001
1.292121e+003,9.924699e+001
1.293085e+003,1.005423e+002
1.294049e+003,1.010214e+002
1.295014e+003,9.994701e+001
1.295978e+003,9.852171e+001
1.296942e+003,9.772451e+001
1.297906e+003,9.773893e+001
1.298870e+003,9.962910e+001
1.299835e+003,1.044767e+002
1.300799e+003,1.089736e+002
1.301763e+003,1.115875e+002
1.302727e+003,1.124227e+002
1.303692e+003,1.105821e+002
1.304656e+003,1.072082e+002
1.305620e+003,1.052256e+002
1.306584e+003,1.062222e+002
1.307549e+003,1.086876e+002
1.308513e+003,1.098143e+002
1.309477e+003,1.093301e+002
1.310441e+003,1.088457e+002
1.311406e+003,1.075363e+002
1.312370e+003,1.076690e+002
1.313334e+003,1.113244e+002
1.314298e+003,1.150883e+002
1.315263e+003,1.157624e+002
1.316227e+003,1.139146e+002
1.317191e+003,1.121153e+002
1.318155e+003,1.113811e+002
1.319120e+003,1.113129e+002
1.320084e+003,1.115135e+002
1.321048e+003,1.120478e+002
1.322012e+003,1.135613e+002
1.322976e+003,1.158652e+002
1.323941e+003,1.167224e+002
1.324905e+003,1.147363e+002
1.325869e+003,1.119570e+002
1.326833e+003,1.110650e+002
1.327798e+003,1.120071e+002
1.328762e+003,1.143867e+002
1.329726e+003,1.200151e+002
1.330690e+003,1.233659e+002
1.331655e+003,1.210051e+002
1.332619e+003,1.181493e+002
1.333583e+003,1.190182e+002
1.334547e+003,1.219977e+002
1.335511e+003,1.228985e+002
1.336476e+003,1.202280e+002
1.337440e+003,1.170878e+002
1.338404e+003,1.174603e+002
1.339368e+003,1.208826e+002
1.340333e+003,1.228493e+002
1.341297e+003,1.229121e+002
1.342261e+003,1.226597e+002
1.343225e+003,1.223205e+002
1.344190e+003,1.217561e+002
1.345154e+003,1.202433e+002
1.346118e+003,1.185647e+002
1.347082e+003,1.190616e+002
1.348047e+003,1.223772e+002
1.349011e+003,1.245198e+002
1.349975e+003,1.219602e+002
1.350939e+003,1.186101e+002
1.351903e+003,1.183506e+002
1.352868e+003,1.204738e+002
1.353832e+003,1.242349e+002
1.354796e+003,1.292503e+002
1.355760e+003,1.331764e+002
1.356725e+003,1.334726e+002
1.357689e+003,1.310821e+002
1.358653e+003,1.303974e+002
1.359617e+003,1.325378e+002
1.360582e+003,1.331351e+002
1.361546e+003,1.298284e+002
1.362510e+003,1.272897e+002
1.363474e+003,1.280269e+002
1.364438e+003,1.299414e+002
1.365403e+003,1.301102e+002
1.366367e+003,1.285623e+002
1.367331e+003,1.280422e+002
1.368295e+003,1.303927e+002
1.369260e+003,1.335094e+002
1.370224e+003,1.335104e+002
1.371188e+003,1.306944e+002
1.372152e+003,1.300215e+002
1.373117e+003,1.318258e+002
1.374081e+003,1.337444e+002
1.375045e+003,1.351805e+002
1.376009e+003,1.362560e+002
1.376974e+003,1.372311e+002
1.377938e+003,1.381257e+002
1.378902e+003,1.384621e+002
1.379866e+003,1.378247e+002
1.380830e+003,1.371194e+002
1.381795e+003,1.374287e+002
1.382759e+003,1.376343e+002
1.383723e+003,1.359453e+002
1.384687e+003,1.334743e+002
1.385652e+003,1.334275e+002
1.386616e+003,1.369494e+002
1.387580e+003,1.413918e+002
1.388544e+003,1.436033e+002
1.389509e+003,1.436558e+002
1.390473e+003,1.431314e+002
1.391437e+003,1.419367e+002
1.392401e+003,1.409132e+002
1.393365e+003,1.395216e+002
1.394330e+003,1.387044e+002
1.395294e+003,1.393620e+002
1.396258e+003,1.403188e+002
1.397222e+003,1.397970e+002
1.398187e+003,1.382638e+002
1.399151e+003,1.385418e+002
1.400115e+003,1.424843e+002
1.401079e+003,1.475069e+002
1.402044e+003,1.487779e+002
1.403008e+003,1.462319e+002
1.403972e+003,1.453561e+002
1.404936e+003,1.471525e+002
1.405901e+003,1.484588e+002
1.406865e+003,1.477326e+002
1.407829e+003,1.463360e+002
1.408793e+003,1.454090e+002
1.409757e+003,1.451710e+002
1.410722e+003,1.461859e+002
1.411686e+003,1.487127e+002
1.412650e+003,1.507897e+002
1.413614e+003,1.511839e+002
1.414579e+003,1.506796e+002
1.415543e+003,1.496695e+002
1.416507e+003,1.486035e+002
1.417471e+003,1.486572e+002
1.418436e+003,1.500754e+002
1.419400e+003,1.510782e+002
1.420364e+003,1.495166e+002
1.421328e+003,1.465937e+002
1.422292e+003,1.472329e+002
1.423257e+003,1.525793e+002
1.424221e+003,1.566083e+002
1.425185e+003,1.579339e+002
1.426149e+003,1.581516e+002
1.427114e+003,1.571215e+002
1.428078e+003,1.562115e+002
1.429042e+003,1.569265e+002
1.430006e+003,1.585627e+002
1.430971e+003,1.587193e+002
1.431935e+003,1.563433e+002
1.432899e+003,1.537870e+002
1.433863e+003,1.546740e+002
1.434828e+003,1.586958e+002
1.435792e+003,1.599321e+002
1.436756e+003,1.553361e+002
1.437720e+003,1.535028e+002
1.438684e+003,1.574453e+002
1.439649e+003,1.619485e+002
1.440613e+003,1.641000e+002
1.441577e+003,1.648483e+002
1.442541e+003,1.659745e+002
1.443506e+003,1.675569e+002
1.444470e+003,1.682648e+002
1.445434e+003,1.673735e+002
1.446398e+003,1.659215e+002
1.447363e+003,1.643983e+002
1.448327e+003,1.633858e+002
1.449291e+003,1.656032e+002
1.450255e+003,1.714531e+002
1.451219e+003,1.750969e+002
1.452184e+003,1.726197e+002
1.453148e+003,1.677453e+002
1.454112e+003,1.643486e+002
1.455076e+003,1.625766e+002
1.456041e+003,1.640647e+002
1.457005e+003,1.702423e+002
1.457969e+003,1.757555e+002
1.458933e+003,1.783720e+002
1.459898e+003,1.794675e+002
1.460862e+003,1.794230e+002
1.461826e+003,1.785007e+002
1.462790e+003,1.769023e+002
1.463755e+003,1.748281e+002
1.464719e+003,1.724523e+002
1.465683e+003,1.697836e+002
1.466647e+003,1.680757e+002
1.467611e+003,1.709400e+002
1.468576e+003,1.796221e+002
1.469540e+003,1.829351e+002
1.470504e+003,1.760212e+002
1.471468e+003,1.713028e+002
1.472433e+003,1.718782e+002
1.473397e+003,1.734550e+002
1.474361e+003,1.728957e+002
1.475325e+003,1.717623e+002
1.476290e+003,1.732771e+002
1.477254e+003,1.777415e+002
1.478218e+003,1.824122e+002
1.479182e+003,1.851942e+002
1.480146e+003,1.863167e+002
1.481111e+003,1.858964e+002
1.482075e+003,1.835724e+002
1.483039e+003,1.824639e+002
1.484003e+003,1.837593e+002
1.484968e+003,1.841085e+002
1.485932e+003,1.817050e+002
1.486896e+003,1.795341e+002
1.487860e+003,1.806454e+002
1.488825e+003,1.835427e+002
1.489789e+003,1.841853e+002
1.490753e+003,1.817907e+002
1.491717e+003,1.804289e+002
1.492682e+003,1.833136e+002
1.493646e+003,1.875801e+002
1.494610e+003,1.881403e+002
1.495574e+003,1.861480e+002
1.496538e+003,1.854697e+002
1.497503e+003,1.867670e+002
1.498467e+003,1.876796e+002
1.499431e+003,1.861732e+002
1.500395e+003,1.841225e+002
1.501360e+003,1.843118e+002
1.502324e+003,1.864135e+002
1.503288e+003,1.883402e+002
1.504252e+003,1.897637e+002
1.505217e+003,1.898260e+002
1.506181e+003,1.866296e+002
1.507145e+003,1.839063e+002
1.508109e+003,1.860905e+002
1.509073e+003,1.901166e+002
1.510038e+003,1.907496e+002
1.511002e+003,1.875051e+002
1.511966e+003,1.835371e+002
1.512930e+003,1.805770e+002
1.513895e+003,1.790978e+002
1.514859e+003,1.804250e+002
1.515823e+003,1.843271e+002
1.516787e+003,1.860649e+002
1.517752e+003,1.845980e+002
1.518716e+003,1.841253e+002
1.519680e+003,1.873062e+002
1.520644e+003,1.894314e+002
1.521609e+003,1.871532e+002
1.522573e+003,1.834389e+002
1.523537e+003,1.820712e+002
1.524501e+003,1.833144e+002
1.525465e+003,1.849576e+002
1.526430e+003,1.855715e+002
1.527394e+003,1.856820e+002
1.528358e+003,1.862946e+002
1.529322e+003,1.874065e+002
1.530287e+003,1.880332e+002
1.531251e+003,1.880919e+002
1.532215e+003,1.881321e+002
1.533179e+003,1.890073e+002
1.534144e+003,1.886201e+002
1.535108e+003,1.847670e+002
1.536072e+003,1.801975e+002
1.537036e+003,1.777199e+002
1.538000e+003,1.774016e+002
1.538965e+003,1.783274e+002
1.539929e+003,1.798490e+002
1.540893e+003,1.807293e+002
1.541857e+003,1.795702e+002
1.542822e+003,1.772162e+002
1.543786e+003,1.765127e+002
1.544750e+003,1.779563e+002
1.545714e+003,1.788217e+002
1.546679e+003,1.793407e+002
1.547643e+003,1.787935e+002
1.548607e+003,1.757133e+002
1.549571e+003,1.728248e+002
1.550536e+003,1.735799e+002
1.551500e+003,1.762962e+002
1.552464e+003,1.759176e+002
1.553428e+003,1.713860e+002
1.554392e+003,1.678197e+002
1.555357e+003,1.693963e+002
1.556321e+003,1.732878e+002
1.557285e+003,1.741064e+002
1.558249e+003,1.720874e+002
1.559214e+003,1.709388e+002
1.560178e+003,1.714189e+002
1.561142e+003,1.709053e+002
1.562106e+003,1.664280e+002
1.563071e+003,1.622549e+002
1.564035e+003,1.633600e+002
1.564999e+003,1.676848e+002
1.565963e+003,1.701490e+002
1.566927e+003,1.698254e+002
1.567892e+003,1.679450e+002
1.568856e+003,1.647495e+002
1.569820e+003,1.613873e+002
1.570784e+003,1.591503e+002
1.571749e+003,1.577541e+002
1.572713e+003,1.565361e+002
1.573677e+003,1.555898e+002
1.574641e+003,1.551755e+002
1.575606e+003,1.557005e+002
1.576570e+003,1.556751e+002
1.577534e+003,1.534570e+002
1.578498e+003,1.503254e+002
1.579463e+003,1.488706e+002
1.580427e+003,1.489667e+002
1.581391e+003,1.478871e+002
1.582355e+003,1.443872e+002
1.583319e+003,1.418244e+002
1.584284e+003,1.435594e+002
1.585248e+003,1.465620e+002
1.586212e+003,1.465079e+002
1.587176e+003,1.441746e+002
1.588141e+003,1.425795e+002
1.589105e+003,1.425309e+002
1.590069e+003,1.417269e+002
1.591033e+003,1.378692e+002
1.591998e+003,1.332648e+002
1.592962e+003,1.317121e+002
1.593926e+003,1.325456e+002
1.594890e+003,1.320261e+002
1.595854e+003,1.296150e+002
1.596819e+003,1.277723e+002
1.597783e+003,1.275920e+002
1.598747e+003,1.275680e+002
1.599711e+003,1.263981e+002
1.600676e+003,1.248345e+002
1.601640e+003,1.239536e+002
1.602604e+003,1.237854e+002
1.603568e+003,1.237312e+002
1.604533e+003,1.235017e+002
1.605497e+003,1.228075e+002
1.606461e+003,1.216432e+002
1.607425e+003,1.197707e+002
1.608390e+003,1.159020e+002
1.609354e+003,1.100749e+002
1.610318e+003,1.063165e+002
1.611282e+003,1.051174e+002
1.612246e+003,1.055480e+002
1.613211e+003,1.096958e+002
1.614175e+003,1.129006e+002
1.615139e+003,1.112906e+002
1.616103e+003,1.071005e+002
1.617068e+003,1.036400e+002
1.618032e+003,1.015242e+002
1.618996e+003,1.000719e+002
1.619960e+003,9.887193e+001
1.620925e+003,9.770284e+001
1.621889e+003,9.642450e+001
1.622853e+003,9.508429e+001
1.623817e+003,9.347502e+001
1.624781e+003,9.153825e+001
1.625746e+003,9.058360e+001
1.626710e+003,9.179874e+001
1.627674e+003,9.212611e+001
1.628638e+003,8.929874e+001
1.629603e+003,8.548727e+001
1.630567e+003,8.190065e+001
1.631531e+003,7.909840e+001
1.632495e+003,7.828162e+001
1.633460e+003,7.950587e+001
1.634424e+003,8.042152e+001
1.635388e+003,7.912379e+001
1.636352e+003,7.691013e+001
1.637317e+003,7.677840e+001
1.638281e+003,7.840798e+001
1.639245e+003,7.640131e+001
1.640209e+003,6.901610e+001
1.641173e+003,6.425620e+001
1.642138e+003,6.600380e+001
1.643102e+003,6.828691e+001
1.644066e+003,6.863506e+001
1.645030e+003,6.760287e+001
1.645995e+003,6.509756e+001
1.646959e+003,6.178595e+001
1.647923e+003,5.892606e+001
1.648887e+003,5.698151e+001
1.649852e+003,5.604463e+001
1.650816e+003,5.625922e+001
1.651780e+003,5.732831e+001
1.652744e+003,5.927279e+001
1.653708e+003,6.197488e+001
1.654673e+003,6.153578e+001
1.655637e+003,5.660944e+001
1.656601e+003,5.271011e+001
1.657565e+003,5.225444e+001
1.658530e+003,5.221706e+001
1.659494e+003,5.069297e+001
1.660458e+003,4.877943e+001
1.661422e+003,4.769361e+001
1.662387e+003,4.733109e+001
1.663351e+003,4.712696e+001
1.664315e+003,4.687215e+001
1.665279e+003,4.618701e+001
1.666244e+003,4.471120e+001
1.667208e+003,4.273004e+001
1.668172e+003,4.058228e+001
1.669136e+003,3.825999e+001
1.670100e+003,3.621061e+001
1.671065e+003,3.423289e+001
1.672029e+003,3.354093e+001
1.672993e+003,3.565214e+001
1.673957e+003,3.779077e+001
1.674922e+003,3.808437e+001
1.675886e+003,3.738630e+001
1.676850e+003,3.627662e+001
1.677814e+003,3.507466e+001
1.678779e+003,3.463179e+001
1.679743e+003,3.523212e+001
1.680707e+003,3.559602e+001
1.681671e+003,3.439570e+001
1.682635e+003,3.266090e+001
1.683600e+003,3.266531e+001
1.684564e+003,3.401611e+001
1.685528e+003,3.367615e+001
1.686492e+003,3.105121e+001
1.687457e+003,2.812567e+001
1.688421e+003,2.521636e+001
1.689385e+003,2.311370e+001
1.690349e+003,2.295248e+001
1.691314e+003,2.374653e+001
1.692278e+003,2.467943e+001
1.693242e+003,2.542985e+001
1.694206e+003,2.502017e+001
1.695171e+003,2.308937e+001
1.696135e+003,2.160218e+001
1.697099e+003,2.247354e+001
1.698063e+003,2.373470e+001
1.699027e+003,2.241860e+001
1.699992e+003,1.955411e+001
1.700956e+003,1.835065e+001
1.701920e+003,1.905670e+001
1.702884e+003,1.948230e+001
1.703849e+003,1.877565e+001
1.704813e+003,1.795736e+001
1.705777e+003,1.778930e+001
1.706741e+003,1.804728e+001
1.707706e+003,1.882584e+001
1.708670e+003,1.980286e+001
1.709634e+003,1.929425e+001
1.710598e+003,1.680941e+001
1.711563e+003,1.444106e+001
1.712527e+003,1.321377e+001
1.713491e+003,1.225032e+001
1.714455e+003,1.043838e+001
1.715419e+003,8.677643e+000
1.716384e+003,8.820203e+000
1.717348e+003,1.057971e+001
1.718312e+003,1.190637e+001
1.719276e+003,1.214640e+001
1.720241e+003,1.187222e+001
1.721205e+003,1.147820e+001
1.722169e+003,1.087161e+001
1.723133e+003,9.806140e+000
1.724098e+003,8.467969e+000
1.725062e+003,7.595276e+000
1.726026e+003,6.924432e+000
1.726990e+003,7.297821e+000
1.727954e+003,1.023678e+001
1.728919e+003,1.241296e+001
1.729883e+003,1.207334e+001
1.730847e+003,1.052700e+001
1.731811e+003,8.751642e+000
1.732776e+003,6.978137e+000
1.733740e+003,5.109759e+000
1.734704e+003,3.339795e+000
1.735668e+003,2.752441e+000
1.736633e+003,3.950781e+000
1.737597e+003,5.670123e+000
1.738561e+003,6.332733e+000
1.739525e+003,6.115015e+000
1.740490e+003,5.536987e+000
1.741454e+003,4.257092e+000
1.742418e+003,3.659936e+000
1.743382e+003,4.378027e+000
1.744346e+003,4.751422e+000
1.745311e+003,4.130151e+000
1.746275e+003,3.527350e+000
1.747239e+003,3.342682e+000
1.748203e+003,3.744067e+000
1.749168e+003,5.108411e+000
1.750132e+003,7.119184e+000
1.751096e+003,9.213013e+000
1.752060e+003,1.095176e+001
1.753025e+003,1.149272e+001
1.753989e+003,1.003715e+001
1.754953e+003,7.302606e+000
1.755917e+003,4.719678e+000
1.756881e+003,2.259338e+000
1.757846e+003,8.777161e-001
1.758810e+003,7.670776e-001
1.759774e+003,1.458264e+000
1.760738e+003,3.600555e+000
1.761703e+003,5.310864e+000
1.762667e+003,6.168115e+000
1.763631e+003,6.151330e+000
1.764595e+003,5.079877e+000
1.765560e+003,3.307471e+000
1.766524e+003,8.820435e-001
1.767488e+003,-1.875299e+000
1.768452e+003,-3.342590e+000
1.769417e+003,-2.504132e+000
1.770381e+003,-1.048199e+000
1.771345e+003,-1.097699e+000
1.772309e+003,-1.921570e+000
1.773273e+003,-1.363983e+000
1.774238e+003,3.447266e-001
1.775202e+003,8.248230e-001
1.776166e+003,-4.151062e-001
1.777130e+003,-1.088251e+000
1.778095e+003,2.652710e-001
1.779059e+003,1.293976e+000
1.780023e+003,-9.166870e-001
1.780987e+003,-4.142700e+000
1.781952e+003,-4.339038e+000
1.782916e+003,-2.221802e+000
1.783880e+003,-1.294556e+000
1.784844e+003,-2.272736e+000
1.785808e+003,-3.092462e+000
1.786773e+003,-3.000018e+000
1.787737e+003,-2.342157e+000
1.788701e+003,-7.364197e-001
1.789665e+003,7.903808e-001
1.790630e+003,3.069824e-001
1.791594e+003,-1.595783e+000
1.792558e+003,-2.317786e+000
1.793522e+003,-1.369348e+000
1.794487e+003,-1.379883e+000
1.795451e+003,-4.050025e+000
1.796415e+003,-6.733545e+000
1.797379e+003,-5.712097e+000
1.798344e+003,-1.994995e+000
1.799308e+003,-3.492737e-001
1.800272e+003,-1.570843e+000
1.801236e+003,-2.066919e+000
1.802201e+003,-6.860779e-001
1.803165e+003,-1.599121e-001
1.804129e+003,-2.101788e+000
1.805093e+003,-3.545740e+000
1.806057e+003,-2.510541e+000
1.807022e+003,-4.844543e-001
1.807986e+003,1.413220e+000
1.808950e+003,2.611560e+000
1.809914e+003,2.204651e+000
1.810879e+003,2.001648e-001
1.811843e+003,-2.005194e+000
1.812807e+003,-3.404468e+000
1.813771e+003,-4.115241e+000
1.814736e+003,-4.123431e+000
1.815700e+003,-3.561890e+000
1.816664e+003,-3.520966e+000
1.817628e+003,-4.142401e+000
1.818593e+003,-4.064941e+000
1.819557e+003,-2.793518e+000
1.820521e+003,-1.595392e+000
1.821485e+003,-9.829162e-001
1.822449e+003,-5.616272e-001
1.823414e+003,9.277954e-002
1.824378e+003,4.796875e-001
1.825342e+003,-2.273132e-001
1.826306e+003,-1.664349e+000
1.827271e+003,-2.515344e+000
1.828235e+003,-2.484918e+000
1.829199e+003,-2.095929e+000
1.830163e+003,-1.184259e+000
1.831128e+003,-4.781922e-001
1.832092e+003,-9.234314e-001
1.833056e+003,-1.820734e+000
1.834020e+003,-2.099524e+000
1.834984e+003,-1.851532e+000
1.835949e+003,-1.374951e+000
1.836913e+003,-7.666443e-001
1.837877e+003,-7.359253e-001
1.838841e+003,-1.756256e+000
1.839806e+003,-2.514575e+000
1.840770e+003,-1.284698e+000
1.841734e+003,6.611816e-001
1.842698e+003,-7.843872e-001
1.843663e+003,-6.303125e+000
1.844627e+003,-8.203424e+000
1.845591e+003,-3.453058e+000
1.846555e+003,1.033752e-001
1.847520e+003,2.114728e+000
1.848484e+003,2.913623e+000
1.849448e+003,2.157782e+000
1.850412e+003,8.946411e-001
1.851376e+003,-5.414917e-001
1.852341e+003,-1.680963e+000
1.853305e+003,-1.722095e+000
1.854269e+003,-8.674927e-001
1.855233e+003,-1.230469e-001
1.856198e+003,6.470947e-002
1.857162e+003,-4.545227e-001
1.858126e+003,-2.158032e+000
1.859090e+003,-4.095899e+000
1.860055e+003,-4.293884e+000
1.861019e+003,-3.078442e+000
1.861983e+003,-1.820068e+000
1.862947e+003,-5.375854e-001
1.863911e+003,1.103882e-001
1.864876e+003,-1.257935e-001
1.865840e+003,-2.912903e-001
1.866804e+003,2.391602e-001
1.867768e+003,7.703918e-001
1.868733e+003,1.939209e-001
1.869697e+003,-9.479004e-001
1.870661e+003,-7.397034e-001
1.871625e+003,8.310302e-001
1.872590e+003,1.633630e+000
1.873554e+003,1.328101e+000
1.874518e+003,5.670105e-001
1.875482e+003,-9.618286e-001
1.876447e+003,-2.258264e+000
1.877411e+003,-2.747302e+000
1.878375e+003,-2.610718e+000
1.879339e+003,-1.915979e+000
1.880303e+003,-1.010693e+000
1.881268e+003,-2.962829e-001
1.882232e+003,9.702148e-002
1.883196e+003,-3.665771e-002
1.884160e+003,-7.166077e-001
1.885125e+003,-9.950684e-001
1.886089e+003,2.699402e-001
1.887053e+003,2.199237e+000
1.888017e+003,2.233887e+000
1.888982e+003,3.686951e-001
1.889946e+003,-4.977112e-001
1.890910e+003,-1.314575e-001
1.891874e+003,1.507629e-001
1.892839e+003,1.512512e-001
1.893803e+003,-2.135193e-001
1.894767e+003,-1.353485e+000
1.895731e+003,-2.311200e+000
1.896695e+003,-2.102728e+000
1.897660e+003,-1.260461e+000
1.898624e+003,-5.460388e-001
1.899588e+003,-1.120606e-002
1.900552e+003,2.966186e-001
1.901517e+003,2.557556e-001
1.902481e+003,1.747803e-001
1.903445e+003,1.958496e-001
1.904409e+003,3.196899e-001
1.905374e+003,5.328064e-001
1.906338e+003,9.639710e-001
1.907302e+003,2.170764e+000
1.908266e+003,3.346631e+000
1.909230e+003,2.558221e+000
1.910195e+003,3.846436e-002
1.911159e+003,-1.909344e+000
1.912123e+003,-2.185748e+000
1.913087e+003,-1.423560e+000
1.914052e+003,-2.153687e-001
1.915016e+003,1.085828e+000
1.915980e+003,1.864429e+000
1.916944e+003,2.119824e+000
1.917909e+003,1.594659e+000
1.918873e+003,1.708801e-001
1.919837e+003,-1.197998e+000
1.920801e+003,-2.912213e+000
1.921766e+003,-3.248260e+000
1.922730e+003,-3.497681e-001
1.923694e+003,2.106049e+000
1.924658e+003,8.364929e-001
1.925622e+003,-1.763635e+000
1.926587e+003,-3.179511e+000
1.927551e+003,-3.419544e+000
1.928515e+003,-2.582373e+000
1.929479e+003,-5.409973e-001
1.930444e+003,9.305542e-001
1.931408e+003,1.142261e+000
1.932372e+003,8.564636e-001
1.933336e+003,2.909790e-001
1.934301e+003,-4.617981e-001
1.935265e+003,-1.809924e+000
1.936229e+003,-2.924945e+000
1.937193e+003,-2.223303e+000
1.938157e+003,-4.191772e-001
1.939122e+003,1.106506e-001
1.940086e+003,-9.296265e-001
1.941050e+003,-1.242804e+000
1.942014e+003,4.936218e-001
1.942979e+003,2.463055e+000
1.943943e+003,2.451385e+000
1.944907e+003,1.150421e+000
1.945871e+003,4.412476e-001
1.946836e+003,3.299255e-001
1.947800e+003,-1.957031e-001
1.948764e+003,-1.307660e+000
1.949728e+003,-2.420465e+000
1.950693e+003,-3.804016e+000
1.951657e+003,-3.590771e+000
1.952621e+003,3.091553e-001
1.953585e+003,3.984357e+000
1.954549e+003,3.131555e+000
1.955514e+003,-2.064270e-001
1.956478e+003,-1.749524e+000
1.957442e+003,-1.582928e+000
1.958406e+003,-9.756592e-001
1.959371e+003,2.135620e-001
1.960335e+003,1.271381e+000
1.961299e+003,2.203979e+000
1.962263e+003,2.930725e+000
1.963228e+003,3.729065e+000
1.964192e+003,3.925439e+000
1.965156e+003,2.182812e+000
1.966120e+003,1.837463e-001
1.967084e+003,5.654541e-001
1.968049e+003,2.492444e+000
1.969013e+003,3.038104e+000
1.969977e+003,1.648181e+000
1.970941e+003,4.370911e-001
1.971906e+003,6.308960e-001
1.972870e+003,1.552820e+000
1.973834e+003,2.921997e+000
1.974798e+003,4.209167e+000
1.975763e+003,4.151416e+000
1.976727e+003,3.202374e+000
1.977691e+003,2.936822e+000
1.978655e+003,3.313031e+000
1.979620e+003,3.089526e+000
1.980584e+003,2.089532e+000
1.981548e+003,1.990350e+000
1.982512e+003,3.700897e+000
1.983476e+003,5.149463e+000
1.984441e+003,4.095960e+000
1.985405e+003,1.803796e+000
1.986369e+003,1.360205e+000
1.987333e+003,2.773242e+000
1.988298e+003,3.436652e+000
1.989262e+003,2.761926e+000
1.990226e+003,2.770520e+000
1.991190e+003,4.349646e+000
1.992155e+003,5.182324e+000
1.993119e+003,4.337298e+000
1.994083e+003,3.128455e+000
1.995047e+003,1.839050e+000
1.996011e+003,7.247192e-001
1.996976e+003,-8.185425e-002
1.997940e+003,-3.810669e-001
1.998904e+003,6.035461e-001
1.999868e+003,2.826270e+000
2.000833e+003,3.857391e+000
2.001797e+003,2.526508e+000
2.002761e+003,1.266913e+000
2.003725e+003,7.982971e-001
2.004690e+003,1.044794e+000
2.005654e+003,2.574378e+000
2.006618e+003,4.233747e+000
2.007582e+003,5.092786e+000
2.008547e+003,5.099335e+000
2.009511e+003,3.863867e+000
2.010475e+003,1.950824e+000
2.011439e+003,1.011456e+000
2.012403e+003,1.522345e+000
2.013368e+003,2.439258e+000
2.014332e+003,3.081165e+000
2.015296e+003,3.301923e+000
2.016260e+003,2.644958e+000
2.017225e+003,1.622717e+000
2.018189e+003,1.319409e+000
2.019153e+003,1.651074e+000
2.020117e+003,2.766919e+000
2.021082e+003,4.429975e+000
2.022046e+003,4.347180e+000
2.023010e+003,2.042145e+000
2.023974e+003,6.565247e-001
2.024938e+003,1.916028e+000
2.025903e+003,4.038831e+000
2.026867e+003,5.300842e+000
2.027831e+003,5.669110e+000
2.028795e+003,4.955243e+000
2.029760e+003,3.303412e+000
2.030724e+003,2.997705e+000
2.031688e+003,4.623645e+000
2.032652e+003,4.935278e+000
2.033617e+003,3.219751e+000
2.034581e+003,1.637415e+000
2.035545e+003,4.470703e-001
2.036509e+003,1.247986e-001
2.037474e+003,1.373260e+000
2.038438e+003,2.938165e+000
2.039402e+003,3.616321e+000
2.040366e+003,3.705554e+000
2.041330e+003,3.753894e+000
2.042295e+003,3.826251e+000
2.043259e+003,4.225592e+000
2.044223e+003,5.456427e+000
2.045187e+003,5.795178e+000
2.046152e+003,3.578442e+000
2.047116e+003,2.209650e+000
2.048080e+003,3.813098e+000
2.049044e+003,5.677673e+000
2.050009e+003,5.899231e+000
2.050973e+003,5.391504e+000
2.051937e+003,5.199048e+000
2.052901e+003,5.408130e+000
2.053865e+003,5.934448e+000
2.054830e+003,6.570550e+000
2.055794e+003,6.639514e+000
2.056758e+003,5.811170e+000
2.057722e+003,4.872113e+000
2.058687e+003,4.061048e+000
2.059651e+003,3.885626e+000
2.060615e+003,5.291266e+000
2.061579e+003,7.138349e+000
2.062544e+003,8.395605e+000
2.063508e+003,8.823578e+000
2.064472e+003,7.366290e+000
2.065436e+003,4.686261e+000
2.066401e+003,3.447961e+000
2.067365e+003,4.284357e+000
2.068329e+003,5.247009e+000
2.069293e+003,5.115558e+000
2.070258e+003,4.685193e+000
2.071222e+003,4.882196e+000
2.072186e+003,5.493927e+000
2.073150e+003,6.156134e+000
2.074115e+003,6.770477e+000
2.075079e+003,6.856683e+000
2.076043e+003,6.383985e+000
2.077007e+003,5.549963e+000
2.077971e+003,4.487787e+000
2.078936e+003,3.971600e+000
2.079900e+003,4.251587e+000
2.080864e+003,5.138342e+000
2.081828e+003,6.549475e+000
2.082792e+003,8.253095e+000
2.083757e+003,1.005307e+001
2.084721e+003,1.146206e+001
2.085685e+003,1.058743e+001
2.086649e+003,7.349292e+000
2.087614e+003,4.988336e+000
2.088578e+003,3.495514e+000
2.089542e+003,3.082648e+000
2.090506e+003,3.981445e+000
2.091471e+003,4.969696e+000
2.092435e+003,5.789746e+000
2.093399e+003,6.511792e+000
2.094363e+003,7.321021e+000
2.095328e+003,7.838751e+000
2.096292e+003,7.428497e+000
2.097256e+003,6.270074e+000
2.098220e+003,5.133087e+000
2.099185e+003,4.080451e+000
2.100149e+003,3.489880e+000
2.101113e+003,3.353088e+000
2.102077e+003,3.520868e+000
2.103042e+003,4.211865e+000
2.104006e+003,4.880780e+000
2.104970e+003,5.484418e+000
2.105934e+003,6.016101e+000
2.106898e+003,6.339545e+000
2.107863e+003,6.626025e+000
2.108827e+003,7.254297e+000
2.109791e+003,7.997663e+000
2.110755e+003,8.225446e+000
2.111719e+003,7.887122e+000
2.112684e+003,7.514600e+000
2.113648e+003,7.236536e+000
2.114612e+003,6.967377e+000
2.115576e+003,6.425568e+000
2.116541e+003,6.122650e+000
2.117505e+003,6.697626e+000
2.118469e+003,7.111560e+000
2.119433e+003,6.500854e+000
2.120398e+003,5.623383e+000
2.121362e+003,5.140173e+000
2.122326e+003,4.970209e+000
2.123290e+003,4.961291e+000
2.124255e+003,5.077490e+000
2.125219e+003,5.236475e+000
2.126183e+003,5.403351e+000
2.127147e+003,5.389465e+000
2.128112e+003,4.912866e+000
2.129076e+003,4.683753e+000
2.130040e+003,5.384772e+000
2.131004e+003,6.067719e+000
2.131969e+003,5.759674e+000
2.132933e+003,5.122064e+000
2.133897e+003,5.093781e+000
2.134861e+003,5.457635e+000
2.135825e+003,5.720648e+000
2.136790e+003,5.629114e+000
2.137754e+003,4.777771e+000
2.138718e+003,3.171130e+000
2.139682e+003,1.847748e+000
2.140646e+003,1.348132e+000
2.141611e+003,1.538947e+000
2.142575e+003,2.847198e+000
2.143539e+003,4.085986e+000
2.144503e+003,3.708453e+000
2.145468e+003,2.972595e+000
2.146432e+003,4.004352e+000
2.147396e+003,5.738599e+000
2.148360e+003,5.708618e+000
2.149325e+003,4.080512e+000
2.150289e+003,2.543353e+000
2.151253e+003,1.711279e+000
2.152217e+003,1.514203e+000
2.153182e+003,1.970642e+000
2.154146e+003,2.520209e+000
2.155110e+003,2.611487e+000
2.156074e+003,2.533478e+000
2.157039e+003,2.547339e+000
2.158003e+003,2.552722e+000
2.158967e+003,2.553595e+000
2.159931e+003,2.532556e+000
2.160896e+003,2.286743e+000
2.161860e+003,1.935559e+000
2.162824e+003,1.936060e+000
2.163788e+003,2.323578e+000
2.164752e+003,2.630188e+000
2.165717e+003,2.632483e+000
2.166681e+003,2.717877e+000
2.167645e+003,3.296197e+000
2.168609e+003,3.764044e+000
2.169573e+003,3.076428e+000
2.170538e+003,1.916760e+000
2.171502e+003,1.554407e+000
2.172466e+003,1.646759e+000
2.173430e+003,1.476776e+000
2.174395e+003,1.113049e+000
2.175359e+003,9.468994e-001
2.176323e+003,1.003485e+000
2.177287e+003,1.038947e+000
2.178252e+003,9.083313e-001
2.179216e+003,4.401062e-001
2.180180e+003,-4.653931e-001
2.181144e+003,-1.250519e+000
2.182109e+003,-1.255841e+000
2.183073e+003,-8.347718e-001
2.184037e+003,-3.806213e-001
2.185001e+003,-8.655395e-002
2.185966e+003,-5.881531e-001
2.186930e+003,-1.550244e+000
2.187894e+003,-2.200116e+000
2.188858e+003,-2.339551e+000
2.189823e+003,-1.419019e+000
2.190787e+003,3.536316e-001
2.191751e+003,1.099011e+000
2.192715e+003,-6.467895e-002
2.193679e+003,-1.698102e+000
2.194644e+003,-2.576587e+000
2.195608e+003,-2.734643e+000
2.196572e+003,-1.822406e+000
2.197536e+003,-4.285645e-001
2.198500e+003,1.546631e-002
2.199465e+003,-2.385071e-001
2.200429e+003,-5.318359e-001
2.201393e+003,-8.380737e-001
2.202357e+003,-1.341278e+000
2.203322e+003,-2.035962e+000
2.204286e+003,-2.826984e+000
2.205250e+003,-3.568396e+000
2.206214e+003,-3.491650e+000
2.207179e+003,-2.066205e+000
2.208143e+003,-5.248230e-001
2.209107e+003,-3.200134e-001
2.210071e+003,-9.712464e-001
2.211036e+003,-2.154657e+000
2.212000e+003,-3.243042e+000
2.212964e+003,-2.006891e+000
2.213928e+003,4.504456e-001
2.214893e+003,6.598755e-001
2.215857e+003,-1.158954e+000
2.216821e+003,-2.863312e+000
2.217785e+003,-3.804846e+000
2.218750e+003,-3.892163e+000
2.219714e+003,-3.192908e+000
2.220678e+003,-2.738654e+000
2.221642e+003,-3.393567e+000
2.222606e+003,-4.020190e+000
2.223571e+003,-2.753467e+000
2.224535e+003,-9.368652e-001
2.225499e+003,-1.290009e+000
2.226463e+003,-2.694171e+000
2.227427e+003,-2.608246e+000
2.228392e+003,-1.585510e+000
2.229356e+003,-1.653107e+000
2.230320e+003,-2.718988e+000
2.231284e+003,-3.158276e+000
2.232249e+003,-2.674139e+000
2.233213e+003,-2.644061e+000
2.234177e+003,-3.710449e+000
2.235141e+003,-4.460297e+000
2.236106e+003,-3.582135e+000
2.237070e+003,-2.076953e+000
2.238034e+003,-9.538391e-001
2.238998e+003,-2.398193e-001
2.239963e+003,-1.023254e-001
2.240927e+003,-2.191956e-001
2.241891e+003,3.569519e-001
2.242855e+003,9.962829e-001
2.243820e+003,-2.534363e-001
2.244784e+003,-2.949213e+000
2.245748e+003,-4.922302e+000
2.246712e+003,-5.424085e+000
2.247677e+003,-4.449500e+000
2.248641e+003,-1.881708e+000
2.249605e+003,2.341003e-001
2.250569e+003,-1.596802e-001
2.251533e+003,-1.068274e+000
2.252498e+003,-6.601197e-001
2.253462e+003,1.379822e-001
2.254426e+003,4.605164e-001
2.255390e+003,5.033386e-001
2.256354e+003,7.877991e-001
2.257319e+003,9.130310e-001
2.258283e+003,-2.280029e-001
2.259247e+003,-2.211127e+000
2.260211e+003,-3.302692e+000
2.261176e+003,-3.102020e+000
2.262140e+003,-2.761804e+000
2.263104e+003,-2.738550e+000
2.264068e+003,-2.981384e+000
2.265033e+003,-3.835828e+000
2.265997e+003,-4.430627e+000
2.266961e+003,-4.136529e+000
2.267925e+003,-3.532996e+000
2.268890e+003,-2.929584e+000
2.269854e+003,-2.394733e+000
2.270818e+003,-1.612964e+000
2.271782e+003,-1.091034e+000
2.272747e+003,-2.232190e+000
2.273711e+003,-4.402197e+000
2.274675e+003,-4.759607e+000
2.275639e+003,-2.734931e+000
2.276604e+003,-1.353174e+000
2.277568e+003,-1.411255e+000
2.278532e+003,-2.073071e+000
2.279496e+003,-3.791809e+000
2.280460e+003,-5.305914e+000
2.281425e+003,-6.535773e+000
2.282389e+003,-6.970075e+000
2.283353e+003,-5.197601e+000
2.284317e+003,-3.405292e+000
2.285281e+003,-4.084558e+000
2.286246e+003,-5.956683e+000
2.287210e+003,-6.990271e+000
2.288174e+003,-7.134412e+000
2.289138e+003,-6.288031e+000
2.290103e+003,-4.073724e+000
2.291067e+003,-2.868249e+000
2.292031e+003,-3.241058e+000
2.292995e+003,-3.468756e+000
2.293960e+003,-3.506049e+000
2.294924e+003,-3.485016e+000
2.295888e+003,-3.265509e+000
2.296852e+003,-3.293707e+000
2.297817e+003,-3.876019e+000
2.298781e+003,-4.592230e+000
2.299745e+003,-5.128113e+000
2.300709e+003,-5.333606e+000
2.301674e+003,-4.861823e+000
2.302638e+003,-4.089960e+000
2.303602e+003,-5.019061e+000
2.304566e+003,-7.994653e+000
2.305531e+003,-7.609296e+000
2.306495e+003,-3.048340e+000
2.307459e+003,-9.897461e-001
2.308423e+003,-2.343903e+000
2.309387e+003,-3.895935e+000
2.310352e+003,-4.868421e+000
2.311316e+003,-5.471106e+000
2.312280e+003,-5.737958e+000
2.313244e+003,-6.068225e+000
2.314208e+003,-6.904584e+000
2.315173e+003,-7.470770e+000
2.316137e+003,-6.303436e+000
2.317101e+003,-4.624372e+000
2.318065e+003,-6.789197e+000
2.319030e+003,-1.108843e+001
2.319994e+003,-9.537146e+000
2.320958e+003,-3.958331e+000
2.321922e+003,-2.580707e+000
2.322887e+003,-5.087671e+000
2.323851e+003,-6.030780e+000
2.324815e+003,-4.545489e+000
2.325779e+003,-3.030097e+000
2.326744e+003,-2.476953e+000
2.327708e+003,-2.408789e+000
2.328672e+003,-2.558081e+000
2.329636e+003,-3.230902e+000
2.330601e+003,-5.239478e+000
2.331565e+003,-6.936377e+000
2.332529e+003,-5.742731e+000
2.333493e+003,-3.942523e+000
2.334458e+003,-4.835700e+000
2.335422e+003,-6.409198e+000
2.336386e+003,-5.174737e+000
2.337350e+003,-2.657342e+000
2.338314e+003,-1.999420e+000
2.339279e+003,-3.160522e+000
2.340243e+003,-4.769122e+000
2.341207e+003,-6.336322e+000
2.342171e+003,-6.936621e+000
2.343135e+003,-6.044342e+000
2.344100e+003,-5.301721e+000
2.345064e+003,-5.684235e+000
2.346028e+003,-5.796844e+000
2.346992e+003,-4.353778e+000
2.347957e+003,-3.490155e+000
2.348921e+003,-5.224933e+000
2.349885e+003,-6.897217e+000
2.350849e+003,-6.367444e+000
2.351814e+003,-4.919482e+000
2.352778e+003,-3.794653e+000
2.353742e+003,-3.104547e+000
2.354706e+003,-3.074310e+000
2.355671e+003,-3.595276e+000
2.356635e+003,-4.002985e+000
2.357599e+003,-4.239386e+000
2.358563e+003,-4.844403e+000
2.359528e+003,-6.173913e+000
2.360492e+003,-6.837097e+000
2.361456e+003,-6.621722e+000
2.362420e+003,-5.525012e+000
2.363385e+003,-3.132050e+000
2.364349e+003,-2.235400e+000
2.365313e+003,-4.534326e+000
2.366277e+003,-7.316882e+000
2.367241e+003,-8.098389e+000
2.368206e+003,-7.909308e+000
2.369170e+003,-8.523016e+000
2.370134e+003,-9.203382e+000
2.371098e+003,-7.031537e+000
2.372063e+003,-3.155865e+000
2.373027e+003,-2.756567e+000
2.373991e+003,-4.826398e+000
2.374955e+003,-5.657111e+000
2.375919e+003,-5.148004e+000
2.376884e+003,-4.462524e+000
2.377848e+003,-3.905646e+000
2.378812e+003,-3.013702e+000
2.379776e+003,-1.855176e+000
2.380741e+003,-2.314441e+000
2.381705e+003,-5.518152e+000
2.382669e+003,-7.638532e+000
2.383633e+003,-4.838019e+000
2.384598e+003,-1.617065e+000
2.385562e+003,-1.595593e+000
2.386526e+003,-2.704987e+000
2.387490e+003,-3.619855e+000
2.388455e+003,-4.253797e+000
2.389419e+003,-4.219623e+000
2.390383e+003,-4.211871e+000
2.391347e+003,-5.769208e+000
2.392312e+003,-7.904236e+000
2.393276e+003,-7.865393e+000
2.394240e+003,-5.820093e+000
2.395204e+003,-5.026324e+000
2.396168e+003,-6.068774e+000
2.397133e+003,-6.996088e+000
2.398097e+003,-8.168384e+000
2.399061e+003,-8.360529e+000
2.400025e+003,-6.879132e+000
2.400990e+003,-5.810010e+000
2.401954e+003,-5.743360e+000
2.402918e+003,-5.876074e+000
2.403882e+003,-5.890704e+000
2.404846e+003,-5.854279e+000
2.405811e+003,-5.851605e+000
2.406775e+003,-5.471826e+000
2.407739e+003,-4.022498e+000
2.408703e+003,-2.387335e+000
2.409668e+003,-3.137653e+000
2.410632e+003,-5.681976e+000
2.411596e+003,-7.542920e+000
2.412560e+003,-8.512426e+000
2.413525e+003,-6.577148e+000
2.414489e+003,-2.742383e+000
2.415453e+003,-1.546356e+000
2.416417e+003,-3.000629e+000
2.417382e+003,-4.176996e+000
2.418346e+003,-4.330976e+000
2.419310e+003,-4.669495e+000
2.420274e+003,-5.690210e+000
2.421239e+003,-6.381903e+000
2.422203e+003,-6.091388e+000
2.423167e+003,-5.293701e+000
2.424131e+003,-3.615106e+000
2.425095e+003,-2.479584e+000
2.426060e+003,-3.367889e+000
2.427024e+003,-4.515338e+000
2.427988e+003,-4.623541e+000
2.428952e+003,-4.307983e+000
2.429917e+003,-3.790411e+000
2.430881e+003,-3.535248e+000
2.431845e+003,-4.750220e+000
2.432809e+003,-6.802094e+000
2.433773e+003,-6.981683e+000
2.434738e+003,-5.267871e+000
2.435702e+003,-4.760724e+000
2.436666e+003,-6.086157e+000
2.437630e+003,-6.162299e+000
2.438595e+003,-4.595605e+000
2.439559e+003,-3.804004e+000
2.440523e+003,-4.197162e+000
2.441487e+003,-3.935052e+000
2.442452e+003,-2.476923e+000
2.443416e+003,-1.454950e+000
2.444380e+003,-1.684052e+000
2.445344e+003,-2.582300e+000
2.446309e+003,-3.712476e+000
2.447273e+003,-4.242462e+000
2.448237e+003,-2.896716e+000
2.449201e+003,-8.516235e-001
2.450166e+003,5.627014e-001
2.451130e+003,9.855652e-001
2.452094e+003,-1.241626e+000
2.453058e+003,-4.171918e+000
2.454022e+003,-4.251746e+000
2.454987e+003,-3.038745e+000
2.455951e+003,-4.148730e+000
2.456915e+003,-6.721448e+000
2.457879e+003,-7.454144e+000
2.458844e+003,-6.019354e+000
2.459808e+003,-4.342773e+000
2.460772e+003,-2.795959e+000
2.461736e+003,-1.903998e+000
2.462700e+003,-2.125329e+000
2.463665e+003,-2.598675e+000
2.464629e+003,-3.553387e+000
2.465593e+003,-3.847980e+000
2.466557e+003,-2.714832e+000
2.467522e+003,-2.320221e+000
2.468486e+003,-3.769690e+000
2.469450e+003,-5.544959e+000
2.470414e+003,-6.721741e+000
2.471379e+003,-6.947431e+000
2.472343e+003,-5.713739e+000
2.473307e+003,-3.877081e+000
2.474271e+003,-3.089337e+000
2.475236e+003,-3.182519e+000
2.476200e+003,-3.845422e+000
2.477164e+003,-4.820190e+000
2.478128e+003,-5.472760e+000
2.479093e+003,-5.685510e+000
2.480057e+003,-5.116950e+000
2.481021e+003,-4.054260e+000
2.481985e+003,-2.900262e+000
2.482949e+003,-2.000928e+000
2.483914e+003,-2.241620e+000
2.484878e+003,-3.709180e+000
2.485842e+003,-5.012103e+000
2.486806e+003,-5.642041e+000
2.487771e+003,-6.028253e+000
2.488735e+003,-6.725812e+000
2.489699e+003,-6.533221e+000
2.490663e+003,-3.870422e+000
2.491627e+003,-2.271216e+000
2.492592e+003,-3.770990e+000
2.493556e+003,-5.190277e+000
2.494520e+003,-5.042664e+000
2.495484e+003,-4.179315e+000
2.496449e+003,-3.200604e+000
2.497413e+003,-2.284112e+000
2.498377e+003,-1.551654e+000
2.499341e+003,-1.278516e+000
2.500306e+003,-2.599670e+000
2.501270e+003,-4.809143e+000
2.502234e+003,-4.293945e+000
2.503198e+003,-1.976758e+000
2.504163e+003,-1.009302e+000
2.505127e+003,-1.337054e+000
2.506091e+003,-2.632684e+000
2.507055e+003,-4.152985e+000
2.508020e+003,-3.877673e+000
2.508984e+003,-2.024915e+000
2.509948e+003,-1.101691e+000
2.510912e+003,-1.845398e+000
2.511876e+003,-2.869684e+000
2.512841e+003,-3.892578e+000
2.513805e+003,-4.099188e+000
2.514769e+003,-2.571924e+000
2.515733e+003,-1.287073e+000
2.516698e+003,-9.770386e-001
2.517662e+003,-7.132996e-001
2.518626e+003,1.369934e-001
2.519590e+003,6.663452e-001
2.520554e+003,2.248718e-001
2.521519e+003,-4.087097e-001
2.522483e+003,-5.282776e-001
2.523447e+003,-7.423218e-001
2.524411e+003,-2.018042e+000
2.525376e+003,-3.491211e+000
2.526340e+003,-2.774841e+000
2.527304e+003,-8.223267e-001
2.528268e+003,-5.001953e-001
2.529233e+003,-1.323962e+000
2.530197e+003,-2.707813e+000
2.531161e+003,-4.012872e+000
2.532125e+003,-3.854077e+000
2.533090e+003,-2.758106e+000
2.534054e+003,-2.279303e+000
2.535018e+003,-2.403363e+000
2.535982e+003,-1.783966e+000
2.536947e+003,-2.212768e-001
2.537911e+003,1.524170e-001
2.538875e+003,-1.677954e+000
2.539839e+003,-3.253430e+000
2.540803e+003,-4.521997e+000
2.541768e+003,-5.005212e+000
2.542732e+003,-4.554559e+000
2.543696e+003,-3.557727e+000
2.544660e+003,-1.723456e+000
2.545625e+003,-6.820557e-001
2.546589e+003,-1.277728e+000
2.547553e+003,-2.173114e+000
2.548517e+003,-2.394379e+000
2.549482e+003,-2.245007e+000
2.550446e+003,-2.021320e+000
2.551410e+003,-1.666626e+000
2.552374e+003,-7.794739e-001
2.553339e+003,-7.987671e-002
2.554303e+003,-1.072021e+000
2.555267e+003,-2.375714e+000
2.556231e+003,-1.921106e+000
2.557196e+003,-9.311523e-001
2.558160e+003,-1.446960e+000
2.559124e+003,-2.584558e+000
2.560088e+003,-2.113629e+000
2.561052e+003,-6.109253e-001
2.562017e+003,-1.275458e+000
2.562981e+003,-4.110712e+000
2.563945e+003,-3.926282e+000
2.564909e+003,1.573242e-001
2.565874e+003,2.338617e+000
2.566838e+003,2.453302e+000
2.567802e+003,2.140283e+000
2.568766e+003,1.561090e+000
2.569730e+003,5.072998e-001
2.570695e+003,-9.378967e-001
2.571659e+003,-1.366547e+000
2.572623e+003,-4.395813e-001
2.573587e+003,9.482910e-001
2.574552e+003,2.303778e+000
2.575516e+003,2.613183e+000
2.576480e+003,8.833863e-001
2.577444e+003,-9.650208e-001
2.578409e+003,-2.118927e+000
2.579373e+003,-2.660620e+000
2.580337e+003,-2.101996e+000
2.581301e+003,-1.401538e+000
2.582266e+003,-1.044806e+000
2.583230e+003,-7.069763e-001
2.584194e+003,-1.819458e-001
2.585158e+003,2.363464e-001
2.586123e+003,2.521484e-001
2.587087e+003,1.832153e-001
2.588051e+003,5.694458e-001
2.589015e+003,1.191010e+000
2.589979e+003,1.297913e+000
2.590944e+003,1.047327e+000
2.591908e+003,1.361853e+000
2.592872e+003,1.741632e+000
2.593836e+003,1.856262e-001
2.594801e+003,-1.893823e+000
2.595765e+003,-5.021545e-001
2.596729e+003,2.765472e+000
2.597693e+003,2.901074e+000
2.598657e+003,1.972961e-001
2.599622e+003,-1.076282e+000
2.600586e+003,-1.326172e-001
2.601550e+003,1.054919e+000
2.602514e+003,2.761945e+000
2.603479e+003,2.729181e+000
2.604443e+003,-1.204346e-001
2.605407e+003,-1.318964e+000
2.606371e+003,-3.834839e-002
2.607336e+003,3.825684e-001
2.608300e+003,-8.248230e-001
2.609264e+003,-1.570776e+000
2.610228e+003,-1.113318e+000
2.611193e+003,-3.670532e-001
2.612157e+003,1.643921e-001
2.613121e+003,9.514465e-001
2.614085e+003,2.496960e+000
2.615050e+003,3.728717e+000
2.616014e+003,3.857733e+000
2.616978e+003,3.125446e+000
2.617942e+003,6.279663e-001
2.618906e+003,-1.139392e+000
2.619871e+003,5.086365e-001
2.620835e+003,2.026898e+000
2.621799e+003,7.090454e-002
2.622763e+003,-2.232269e+000
2.623728e+003,-1.955029e+000
2.624692e+003,-1.896667e-001
2.625656e+003,1.478235e+000
2.626620e+003,2.784442e+000
2.627584e+003,2.968359e+000
2.628549e+003,2.264123e+000
2.629513e+003,1.008295e+000
2.630477e+003,-2.141357e-001
2.631441e+003,3.546997e-001
2.632406e+003,1.599182e+000
2.633370e+003,1.213293e+000
2.634334e+003,-1.270142e-001
2.635298e+003,-1.140662e+000
2.636263e+003,-1.386566e+000
2.637227e+003,3.593811e-001
2.638191e+003,4.007342e+000
2.639155e+003,5.002387e+000
2.640120e+003,2.595825e+000
2.641084e+003,1.716736e+000
2.642048e+003,2.383368e+000
2.643012e+003,4.154175e+000
2.643977e+003,7.084174e+000
2.644941e+003,8.576593e+000
2.645905e+003,8.203863e+000
2.646869e+003,6.002020e+000
2.647833e+003,2.456537e+000
2.648798e+003,-4.150391e-004
2.649762e+003,-4.195068e-001
2.650726e+003,-1.392029e-001
2.651690e+003,2.726807e-001
2.652655e+003,5.032776e-001
2.653619e+003,2.919800e-001
2.654583e+003,1.859436e-001
2.655547e+003,4.928772e-001
2.656511e+003,6.693176e-001
2.657476e+003,2.392700e-001
2.658440e+003,3.424194e-001
2.659404e+003,1.669501e+000
2.660368e+003,2.620691e+000
2.661333e+003,2.160821e+000
2.662297e+003,1.117072e+000
2.663261e+003,1.474915e-001
2.664225e+003,-2.932190e-001
2.665190e+003,1.227557e+000
2.666154e+003,2.458301e+000
2.667118e+003,-5.668885e-001
2.668082e+003,-3.395606e+000
2.669047e+003,-8.765442e-001
2.670011e+003,2.386383e+000
2.670975e+003,1.769781e+000
2.671939e+003,-1.684631e-001
2.672904e+003,-6.923096e-001
2.673868e+003,5.126343e-002
2.674832e+003,2.192816e+000
2.675796e+003,4.559778e+000
2.676760e+003,3.944867e+000
2.677725e+003,1.174377e+000
2.678689e+003,-6.368713e-001
2.679653e+003,-1.487390e+000
2.680617e+003,-9.595642e-001
2.681582e+003,7.389526e-002
2.682546e+003,-9.283447e-002
2.683510e+003,-9.714172e-001
2.684474e+003,-2.000329e+000
2.685438e+003,-2.547314e+000
2.686403e+003,-7.787536e-001
2.687367e+003,2.782410e+000
2.688331e+003,3.750873e+000
2.689295e+003,2.030750e+000
2.690260e+003,1.950342e+000
2.691224e+003,3.889282e+000
2.692188e+003,3.254920e+000
2.693152e+003,1.137939e-001
2.694117e+003,-1.122174e+000
2.695081e+003,-3.555054e-001
2.696045e+003,-1.123230e-001
2.697009e+003,-6.203064e-001
2.697974e+003,-3.880798e-001
2.698938e+003,8.156433e-001
2.699902e+003,1.785229e+000
2.700866e+003,2.118872e+000
2.701831e+003,2.421967e+000
2.702795e+003,3.374969e+000
2.703759e+003,2.971332e+000
2.704723e+003,9.224243e-002
2.705688e+003,-7.747864e-001
2.706652e+003,1.225928e+000
2.707616e+003,2.517493e+000
2.708580e+003,2.242438e+000
2.709544e+003,1.626862e+000
2.710509e+003,1.254370e+000
2.711473e+003,1.612085e+000
2.712437e+003,2.917145e+000
2.713401e+003,3.905731e+000
2.714365e+003,3.798688e+000
2.715330e+003,3.238239e+000
2.716294e+003,1.860028e+000
2.717258e+003,1.160309e+000
2.718222e+003,2.137042e+000
2.719187e+003,3.271820e+000
2.720151e+003,4.446429e+000
2.721115e+003,4.566162e+000
2.722079e+003,2.919092e+000
2.723044e+003,1.493903e+000
2.724008e+003,1.806006e+000
2.724972e+003,2.299585e+000
2.725936e+003,1.294934e+000
2.726901e+003,1.385620e-001
2.727865e+003,3.779724e-001
2.728829e+003,1.119214e+000
2.729793e+003,1.856488e+000
2.730758e+003,2.482910e+000
2.731722e+003,3.624377e+000
2.732686e+003,3.561432e+000
2.733650e+003,-6.224365e-002
2.734615e+003,-2.865228e+000
2.735579e+003,-7.448913e-001
2.736543e+003,2.488690e+000
2.737507e+003,1.635748e+000
2.738471e+003,-9.871338e-001
2.739436e+003,-1.335400e+000
2.740400e+003,-2.545227e-001
2.741364e+003,1.444757e+000
2.742328e+003,3.120197e+000
2.743292e+003,4.270398e+000
2.744257e+003,4.738507e+000
2.745221e+003,4.193769e+000
2.746185e+003,3.082239e+000
2.747149e+003,1.699188e+000
2.748114e+003,3.863769e-001
2.749078e+003,-3.929687e-001
2.750042e+003,-6.569580e-001
2.751006e+003,-6.063965e-001
2.751971e+003,-7.152710e-002
2.752935e+003,2.204028e+000
2.753899e+003,5.030664e+000
2.754863e+003,5.822687e+000
2.755828e+003,5.308185e+000
2.756792e+003,4.199713e+000
2.757756e+003,3.160828e+000
2.758720e+003,3.029742e+000
2.759685e+003,3.569196e+000
2.760649e+003,4.415759e+000
2.761613e+003,5.240576e+000
2.762577e+003,4.766907e+000
2.763542e+003,3.297644e+000
2.764506e+003,4.214831e+000
2.765470e+003,6.593493e+000
2.766434e+003,4.463538e+000
2.767398e+003,6.019897e-002
2.768363e+003,-3.187256e-001
2.769327e+003,1.761542e+000
2.770291e+003,2.063831e+000
2.771255e+003,1.085089e+000
2.772219e+003,1.217072e+000
2.773184e+003,2.519067e+000
2.774148e+003,4.050519e+000
2.775112e+003,5.637897e+000
2.776076e+003,5.382154e+000
2.777041e+003,3.275928e+000
2.778005e+003,1.957989e+000
2.778969e+003,1.501404e+000
2.779933e+003,2.919464e+000
2.780898e+003,5.142358e+000
2.781862e+003,4.373437e+000
2.782826e+003,1.787579e+000
2.783790e+003,2.298950e+000
2.784755e+003,5.477252e+000
2.785719e+003,5.857880e+000
2.786683e+003,2.760822e+000
2.787647e+003,2.021350e+000
2.788612e+003,4.068262e+000
2.789576e+003,3.981940e+000
2.790540e+003,1.914673e+000
2.791504e+003,2.144537e+000
2.792469e+003,4.170679e+000
2.793433e+003,3.752014e+000
2.794397e+003,1.363110e+000
2.795361e+003,3.874268e-001
2.796325e+003,1.314130e+000
2.797290e+003,3.537958e+000
2.798254e+003,6.725177e+000
2.799218e+003,7.557935e+000
2.800182e+003,5.389795e+000
2.801146e+003,3.197113e+000
2.802111e+003,9.260376e-001
2.803075e+003,1.037921e+000
2.804039e+003,3.225336e+000
2.805003e+003,4.500372e+000
2.805968e+003,4.498096e+000
2.806932e+003,3.992322e+000
2.807896e+003,3.523975e+000
2.808860e+003,3.724377e+000
2.809825e+003,4.539783e+000
2.810789e+003,4.759875e+000
2.811753e+003,4.043958e+000
2.812717e+003,2.818225e+000
2.813682e+003,7.055786e-001
2.814646e+003,2.935791e-001
2.815610e+003,1.608398e+000
2.816574e+003,2.310944e+000
2.817539e+003,2.305267e+000
2.818503e+003,2.743903e+000
2.819467e+003,3.512061e+000
2.820431e+003,3.242481e+000
2.821396e+003,2.111572e+000
2.822360e+003,2.779993e+000
2.823324e+003,6.099341e+000
2.824288e+003,6.712830e+000
2.825252e+003,3.123700e+000
2.826217e+003,2.090161e+000
2.827181e+003,3.765924e+000
2.828145e+003,3.712134e+000
2.829109e+003,1.965942e+000
2.830073e+003,1.662323e+000
2.831038e+003,3.012115e+000
2.832002e+003,4.870069e+000
2.832966e+003,6.526959e+000
2.833930e+003,6.348065e+000
2.834895e+003,3.952515e+000
2.835859e+003,2.793158e+000
2.836823e+003,3.469501e+000
2.837787e+003,3.588214e+000
2.838752e+003,3.097778e+000
2.839716e+003,3.580707e+000
2.840680e+003,4.915423e+000
2.841644e+003,5.809009e+000
2.842609e+003,5.952807e+000
2.843573e+003,4.999743e+000
2.844537e+003,3.388098e+000
2.845501e+003,2.347858e+000
2.846466e+003,2.126318e+000
2.847430e+003,3.007721e+000
2.848394e+003,5.230377e+000
2.849358e+003,6.189826e+000
2.850323e+003,5.871625e+000
2.851287e+003,5.341443e+000
2.852251e+003,4.724750e+000
2.853215e+003,4.817981e+000
2.854179e+003,5.343530e+000
2.855144e+003,5.013403e+000
2.856108e+003,3.890112e+000
2.857072e+003,3.051324e+000
2.858036e+003,2.657202e+000
2.859000e+003,1.832996e+000
2.859965e+003,5.063721e-001
2.860929e+003,7.959290e-001
2.861893e+003,2.687488e+000
2.862857e+003,3.082556e+000
2.863822e+003,2.394983e+000
2.864786e+003,2.423145e+000
2.865750e+003,3.000549e+000
2.866714e+003,3.019220e+000
2.867679e+003,2.723181e+000
2.868643e+003,3.376202e+000
2.869607e+003,4.956415e+000
2.870571e+003,6.385406e+000
2.871536e+003,7.554730e+000
2.872500e+003,7.715356e+000
2.873464e+003,6.818891e+000
2.874428e+003,6.224457e+000
2.875393e+003,5.823578e+000
2.876357e+003,4.938391e+000
2.877321e+003,3.967432e+000
2.878285e+003,3.224286e+000
2.879250e+003,3.296582e+000
2.880214e+003,6.767688e+000
2.881178e+003,1.118603e+001
2.882142e+003,9.177447e+000
2.883106e+003,2.816840e+000
2.884071e+003,6.776734e-002
2.885035e+003,4.382019e-001
2.885999e+003,2.122510e+000
2.886963e+003,4.189117e+000
2.887927e+003,4.365930e+000
2.888892e+003,3.573840e+000
2.889856e+003,2.609186e+000
2.890820e+003,2.283362e+000
2.891784e+003,4.498871e+000
2.892749e+003,7.214349e+000
2.893713e+003,6.956592e+000
2.894677e+003,5.217413e+000
2.895641e+003,5.482831e+000
2.896606e+003,6.629144e+000
2.897570e+003,5.329907e+000
2.898534e+003,3.116644e+000
2.899498e+003,1.947760e+000
2.900463e+003,1.770679e+000
2.901427e+003,3.736664e+000
2.902391e+003,5.317218e+000
2.903355e+003,3.079852e+000
2.904320e+003,2.347412e-002
2.905284e+003,-9.790710e-001
2.906248e+003,-3.984863e-001
2.907212e+003,1.454077e+000
2.908177e+003,3.495300e+000
2.909141e+003,3.922797e+000
2.910105e+003,3.402045e+000
2.911069e+003,1.863800e+000
2.912033e+003,6.632996e-001
2.912998e+003,8.789368e-001
2.913962e+003,2.011261e+000
2.914926e+003,4.129028e+000
2.915890e+003,5.544488e+000
2.916854e+003,4.999829e+000
2.917819e+003,3.739703e+000
2.918783e+003,2.860547e+000
2.919747e+003,2.668481e+000
2.920711e+003,4.430792e+000
2.921676e+003,5.645996e+000
2.922640e+003,4.210523e+000
2.923604e+003,2.571600e+000
2.924568e+003,1.223138e+000
2.925533e+003,1.209308e+000
2.926497e+003,3.006885e+000
2.927461e+003,3.983722e+000
2.928425e+003,3.391498e+000
2.929390e+003,-7.783020e-001
2.930354e+003,-1.202390e+001
2.931318e+003,-1.838292e+001
2.932282e+003,-7.338348e+000
2.933247e+003,1.364111e+000
2.934211e+003,3.528986e+000
2.935175e+003,4.869470e+000
2.936139e+003,4.652747e+000
2.937104e+003,4.503723e+000
2.938068e+003,4.956146e+000
2.939032e+003,5.356952e+000
2.939996e+003,5.334277e+000
2.940960e+003,4.116943e+000
2.941925e+003,1.436627e+000
2.942889e+003,-1.684753e-001
2.943853e+003,5.239502e-001
2.944817e+003,1.403430e+000
2.945781e+003,2.452722e+000
2.946746e+003,3.401831e+000
2.947710e+003,4.134918e+000
2.948674e+003,4.015033e+000
2.949638e+003,3.259198e+000
2.950603e+003,2.754871e+000
2.951567e+003,2.684247e+000
2.952531e+003,2.688086e+000
2.953495e+003,2.802985e+000
2.954460e+003,4.592706e+000
2.955424e+003,8.101873e+000
2.956388e+003,6.492163e+000
2.957352e+003,6.218750e-001
2.958317e+003,-5.800842e-001
2.959281e+003,1.581689e+000
2.960245e+003,3.704645e+000
2.961209e+003,4.946161e+000
2.962174e+003,4.099170e+000
2.963138e+003,2.117303e+000
2.964102e+003,9.646546e-001
2.965066e+003,7.985474e-001
2.966031e+003,2.123425e+000
2.966995e+003,4.025879e+000
2.967959e+003,3.218194e+000
2.968923e+003,9.809143e-001
2.969887e+003,-8.511658e-001
2.970852e+003,-1.472516e+000
2.971816e+003,1.457141e+000
2.972780e+003,4.590070e+000
2.973744e+003,4.022443e+000
2.974708e+003,2.665363e+000
2.975673e+003,2.845783e+000
2.976637e+003,3.919910e+000
2.977601e+003,5.267120e+000
2.978565e+003,6.082733e+000
2.979530e+003,4.665320e+000
2.980494e+003,3.256470e+000
2.981458e+003,4.487341e+000
2.982422e+003,5.098651e+000
2.983387e+003,2.636145e+000
2.984351e+003,6.388733e-001
2.985315e+003,4.474243e-001
2.986279e+003,2.240784e-001
2.987244e+003,-9.207581e-001
2.988208e+003,-5.414917e-001
2.989172e+003,3.073047e+000
2.990136e+003,5.129645e+000
2.991101e+003,1.591547e+000
2.992065e+003,-1.101019e+000
2.993029e+003,-1.790375e+000
2.993993e+003,-1.127460e+000
2.994958e+003,8.682129e-001
2.995922e+003,1.751379e+000
2.996886e+003,1.316315e+000
2.997850e+003,1.524274e+000
2.998814e+003,2.594147e+000
2.999779e+003,2.586292e+000
3.000743e+003,9.642090e-001
3.001707e+003,-1.780212e-001
3.002671e+003,-6.585022e-001
3.003635e+003,1.397156e-001
3.004600e+003,2.021613e+000
3.005564e+003,1.900140e+000
3.006528e+003,4.618225e-001
3.007492e+003,2.910034e-001
3.008457e+003,1.109637e+000
3.009421e+003,1.594623e+000
3.010385e+003,1.876733e+000
3.011349e+003,3.122736e+000
3.012314e+003,4.519946e+000
3.013278e+003,3.470715e+000
3.014242e+003,1.015961e+000
3.015206e+003,1.854431e-001
3.016171e+003,7.761047e-001
3.017135e+003,3.995001e+000
3.018099e+003,6.810577e+000
3.019063e+003,5.012647e+000
3.020028e+003,2.496912e+000
3.020992e+003,2.640277e+000
3.021956e+003,3.446002e+000
3.022920e+003,3.200488e+000
3.023885e+003,2.214459e+000
3.024849e+003,7.096008e-001
3.025813e+003,-6.601807e-001
3.026777e+003,-1.406305e+000
3.027741e+003,-1.628394e+000
3.028706e+003,-9.994079e-001
3.029670e+003,-3.888855e-001
3.030634e+003,1.685852e-001
3.031598e+003,-3.748352e-001
3.032563e+003,-2.260455e+000
3.033527e+003,-2.641730e+000
3.034491e+003,-4.462891e-001
3.035455e+003,1.478027e+000
3.036420e+003,1.949982e+000
3.037384e+003,1.567218e+000
3.038348e+003,-4.665955e-001
3.039312e+003,-1.497681e-001
3.040277e+003,2.595215e+000
3.041241e+003,2.818945e+000
3.042205e+003,6.613953e-001
3.043169e+003,-1.786810e+000
3.044134e+003,-3.499383e+000
3.045098e+003,-2.684814e+000
3.046062e+003,3.526001e-002
3.047026e+003,1.330804e+000
3.047990e+003,1.428833e+000
3.048955e+003,1.807935e+000
3.049919e+003,2.107141e+000
3.050883e+003,1.047058e-001
3.051847e+003,-2.512830e+000
3.052812e+003,-2.914789e+000
3.053776e+003,-2.115051e+000
3.054740e+003,-1.239502e+000
3.055704e+003,-3.652466e-001
3.056668e+003,8.065063e-001
3.057633e+003,1.424322e+000
3.058597e+003,3.387634e-001
3.059561e+003,-6.956299e-001
3.060525e+003,1.435858e+000
3.061490e+003,2.963294e+000
3.062454e+003,-2.865478e-001
3.063418e+003,-2.800958e+000
3.064382e+003,-2.325153e+000
3.065347e+003,-1.509125e+000
3.066311e+003,-1.018011e+000
3.067275e+003,-7.400208e-001
3.068239e+003,-6.255859e-001
3.069204e+003,-1.089606e+000
3.070168e+003,-2.408508e+000
3.071132e+003,-3.046197e+000
3.072096e+003,-2.169464e+000
3.073061e+003,-1.081909e+000
3.074025e+003,3.610047e-001
3.074989e+003,3.172730e-001
3.075953e+003,-8.606750e-001
3.076917e+003,3.698730e-003
3.077882e+003,1.813898e+000
3.078846e+003,1.192322e-001
3.079810e+003,-3.776740e+000
3.080774e+003,-4.294080e+000
3.081739e+003,-2.410828e+000
3.082703e+003,-1.375006e+000
3.083667e+003,-1.049109e+000
3.084631e+003,-8.585938e-001
3.085595e+003,-9.359131e-001
3.086560e+003,-1.852448e+000
3.087524e+003,-2.644428e+000
3.088488e+003,-2.095624e+000
3.089452e+003,-1.455164e+000
3.090417e+003,-1.504346e+000
3.091381e+003,-1.946564e+000
3.092345e+003,-2.585693e+000
3.093309e+003,-2.938226e+000
3.094274e+003,-2.551923e+000
3.095238e+003,-1.884271e+000
3.096202e+003,-7.059204e-001
3.097166e+003,-1.031799e-001
3.098131e+003,-4.059509e-001
3.099095e+003,-6.988770e-001
3.100059e+003,-8.459107e-001
3.101023e+003,-9.288818e-001
3.101988e+003,-9.694275e-001
3.102952e+003,-1.091516e+000
3.103916e+003,-1.350745e+000
3.104880e+003,-1.518597e+000
3.105844e+003,-1.496497e+000
3.106809e+003,-1.603906e+000
3.107773e+003,-1.865826e+000
3.108737e+003,-3.232886e+000
3.109701e+003,-4.719330e+000
3.110666e+003,-3.059912e+000
3.111630e+003,-2.516785e-001
3.112594e+003,8.114441e-001
3.113558e+003,-1.966186e-001
3.114522e+003,-3.936267e+000
3.115487e+003,-7.047150e+000
3.116451e+003,-4.283350e+000
3.117415e+003,3.049622e-001
3.118379e+003,1.070404e+000
3.119344e+003,6.808167e-001
3.120308e+003,7.783691e-001
3.121272e+003,7.797669e-001
3.122236e+003,6.637390e-001
3.123201e+003,-6.986084e-002
3.124165e+003,-1.554785e+000
3.125129e+003,-2.390625e+000
3.126093e+003,-2.162091e+000
3.127058e+003,-2.829657e+000
3.128022e+003,-5.524841e+000
3.128986e+003,-5.744501e+000
3.129950e+003,-1.849200e+000
3.130915e+003,-6.816407e-002
3.131879e+003,-3.165955e-001
3.132843e+003,-2.880365e+000
3.133807e+003,-6.109027e+000
3.134771e+003,-4.998309e+000
3.135736e+003,-1.476904e+000
3.136700e+003,-7.451843e-001
3.137664e+003,-1.985498e+000
3.138628e+003,-3.136664e+000
3.139593e+003,-4.078656e+000
3.140557e+003,-4.878204e+000
3.141521e+003,-4.800995e+000
3.142485e+003,-1.061737e+000
3.143449e+003,1.925726e+000
3.144414e+003,-2.358460e-001
3.145378e+003,-3.012646e+000
3.146342e+003,-4.814844e+000
3.147306e+003,-4.684247e+000
3.148271e+003,-2.352948e+000
3.149235e+003,-9.627197e-001
3.150199e+003,-2.310919e+000
3.151163e+003,-4.155792e+000
3.152128e+003,-5.892004e+000
3.153092e+003,-6.774200e+000
3.154056e+003,-6.805719e+000
3.155020e+003,-6.282538e+000
3.155985e+003,-5.428149e+000
3.156949e+003,-4.783197e+000
3.157913e+003,-4.335919e+000
3.158877e+003,-4.161713e+000
3.159842e+003,-4.031091e+000
3.160806e+003,-3.083154e+000
3.161770e+003,-1.970245e+000
3.162734e+003,-2.759473e+000
3.163698e+003,-4.237860e+000
3.164663e+003,-3.675165e+000
3.165627e+003,-2.605585e+000
3.166591e+003,-2.244690e+000
3.167555e+003,-2.519818e+000
3.168520e+003,-3.724762e+000
3.169484e+003,-4.013000e+000
3.170448e+003,-2.501257e+000
3.171412e+003,-1.406323e+000
3.172376e+003,-2.044415e+000
3.173341e+003,-3.083014e+000
3.174305e+003,-3.950037e+000
3.175269e+003,-4.878186e+000
3.176233e+003,-6.082532e+000
3.177198e+003,-6.055548e+000
3.178162e+003,-4.916693e+000
3.179126e+003,-3.508856e+000
3.180090e+003,-2.265643e+000
3.181055e+003,-1.874518e+000
3.182019e+003,-2.427734e+000
3.182983e+003,-4.273688e+000
3.183947e+003,-6.154303e+000
3.184912e+003,-4.886255e+000
3.185876e+003,-2.163147e+000
3.186840e+003,-1.431409e+000
3.187804e+003,-1.892810e+000
3.188769e+003,-3.114813e+000
3.189733e+003,-4.531232e+000
3.190697e+003,-6.372205e+000
3.191661e+003,-6.802148e+000
3.192625e+003,-5.043952e+000
3.193590e+003,-2.808496e+000
3.194554e+003,-1.042743e+000
3.195518e+003,-3.975525e-001
3.196482e+003,-1.629156e+000
3.197447e+003,-1.967590e+000
3.198411e+003,-1.008661e+000
3.199375e+003,-7.601258e-001
3.200339e+003,-1.200409e+000
3.201303e+003,-1.789532e+000
3.202268e+003,-2.409497e+000
3.203232e+003,-3.086041e+000
3.204196e+003,-3.790845e+000
3.205160e+003,-4.762872e+000
3.206125e+003,-5.108808e+000
3.207089e+003,-2.704669e+000
3.208053e+003,2.272949e-002
3.209017e+003,-2.005383e+000
3.209982e+003,-4.564484e+000
3.210946e+003,-4.300409e+000
3.211910e+003,-2.838666e+000
3.212874e+003,-3.264648e-001
3.213839e+003,-1.917114e-002
3.214803e+003,-2.745343e+000
3.215767e+003,-4.449622e+000
3.216731e+003,-3.619116e+000
3.217696e+003,-3.637634e+000
3.218660e+003,-6.113690e+000
3.219624e+003,-5.327844e+000
3.220588e+003,-1.093695e+000
3.221552e+003,-7.192505e-001
3.222517e+003,-2.816052e+000
3.223481e+003,-3.109107e+000
3.224445e+003,-2.540466e+000
3.225409e+003,-3.409161e+000
3.226374e+003,-4.359985e+000
3.227338e+003,-3.681799e+000
3.228302e+003,-2.519678e+000
3.229266e+003,-2.251526e+000
3.230230e+003,-2.275861e+000
3.231195e+003,-1.670465e+000
3.232159e+003,-1.414996e+000
3.233123e+003,-2.004651e+000
3.234087e+003,-3.351599e+000
3.235052e+003,-5.465698e+000
3.236016e+003,-6.294995e+000
3.236980e+003,-5.592505e+000
3.237944e+003,-4.463574e+000
3.238909e+003,-3.395026e+000
3.239873e+003,-3.506317e+000
3.240837e+003,-4.618878e+000
3.241801e+003,-4.547406e+000
3.242766e+003,-3.921716e+000
3.243730e+003,-6.197443e+000
3.244694e+003,-8.891333e+000
3.245658e+003,-8.266083e+000
3.246623e+003,-6.368103e+000
3.247587e+003,-4.552576e+000
3.248551e+003,-4.207629e+000
3.249515e+003,-6.285852e+000
3.250479e+003,-7.530328e+000
3.251444e+003,-5.328583e+000
3.252408e+003,-3.252441e+000
3.253372e+003,-3.406982e+000
3.254336e+003,-3.852606e+000
3.255301e+003,-4.571210e+000
3.256265e+003,-3.774902e+000
3.257229e+003,-1.094641e+000
3.258193e+003,6.715955e+000
3.259157e+003,1.549779e+001
3.260122e+003,1.280356e+001
3.261086e+003,3.167487e+000
3.262050e+003,-1.740717e+000
3.263014e+003,-3.422955e+000
3.263979e+003,-4.903583e+000
3.264943e+003,-5.565057e+000
3.265907e+003,-3.597211e+000
3.266871e+003,-2.154584e+000
3.267836e+003,-3.398224e+000
3.268800e+003,-4.496051e+000
3.269764e+003,-4.581885e+000
3.270728e+003,-4.736926e+000
3.271693e+003,-5.246796e+000
3.272657e+003,-4.629388e+000
3.273621e+003,-2.321509e+000
3.274585e+003,-1.500513e+000
3.275550e+003,-2.263562e+000
3.276514e+003,-5.226685e+000
3.277478e+003,-8.824005e+000
3.278442e+003,-8.329407e+000
3.279406e+003,-5.618530e+000
3.280371e+003,-2.750122e+000
3.281335e+003,-8.787964e-001
3.282299e+003,-7.565552e-001
3.283263e+003,-1.636780e+000
3.284228e+003,-3.038751e+000
3.285192e+003,-3.588355e+000
3.286156e+003,-1.362164e+000
3.287120e+003,4.742859e-001
3.288084e+003,1.358850e+000
3.289049e+003,8.482178e-001
3.290013e+003,-9.167541e-001
3.290977e+003,-2.796240e+000
3.291941e+003,-4.323004e+000
3.292906e+003,-4.864227e+000
3.293870e+003,-4.439349e+000
3.294834e+003,-3.488379e+000
3.295798e+003,-2.310937e+000
3.296763e+003,-1.890753e+000
3.297727e+003,-1.662524e+000
3.298691e+003,-5.893555e-002
3.299655e+003,1.071527e+000
3.300620e+003,-5.744629e-001
3.301584e+003,-1.492163e+000
3.302548e+003,-6.551941e-001
3.303512e+003,-1.011920e+000
3.304477e+003,-3.251770e+000
3.305441e+003,-3.490808e+000
3.306405e+003,-3.082703e-001
3.307369e+003,4.362305e-001
3.308333e+003,-1.735944e+000
3.309298e+003,-6.236023e-001
3.310262e+003,2.123218e+000
3.311226e+003,6.700928e-001
3.312190e+003,-1.892291e+000
3.313155e+003,-1.863525e-001
3.314119e+003,1.992053e+000
3.315083e+003,1.500165e+000
3.316047e+003,1.148621e-001
3.317011e+003,-7.874878e-001
3.317976e+003,-1.063031e+000
3.318940e+003,-3.407165e-001
3.319904e+003,3.306457e-001
3.320868e+003,8.920532e-001
3.321833e+003,9.561585e-001
3.322797e+003,6.144409e-001
3.323761e+003,3.751221e-001
3.324725e+003,3.546753e-001
3.325690e+003,8.264099e-001
3.326654e+003,1.418707e+000
3.327618e+003,1.289301e+000
3.328582e+003,9.046936e-001
3.329547e+003,1.263849e+000
3.330511e+003,1.855640e+000
3.331475e+003,2.115521e+000
3.332439e+003,2.174945e+000
3.333404e+003,1.806342e+000
3.334368e+003,2.868213e+000
3.335332e+003,5.506244e+000
3.336296e+003,5.961096e+000
3.337260e+003,3.555218e+000
3.338225e+003,8.745728e-001
3.339189e+003,-1.278290e+000
3.340153e+003,-1.986768e+000
3.341117e+003,-1.364545e+000
3.342082e+003,2.342651e-001
3.343046e+003,2.200751e+000
3.344010e+003,4.660382e+000
3.344974e+003,5.453101e+000
3.345938e+003,2.007739e+000
3.346903e+003,-4.235840e-002
3.347867e+003,1.907751e+000
3.348831e+003,3.961053e+000
3.349795e+003,3.990234e+000
3.350760e+003,3.260376e+000
3.351724e+003,1.706323e+000
3.352688e+003,1.400037e+000
3.353652e+003,2.316504e+000
3.354617e+003,4.358441e+000
3.355581e+003,6.540808e+000
3.356545e+003,6.965460e+000
3.357509e+003,6.007459e+000
3.358474e+003,4.283521e+000
3.359438e+003,2.593622e+000
3.360402e+003,1.552783e+000
3.361366e+003,2.013196e+000
3.362331e+003,6.099512e+000
3.363295e+003,8.241022e+000
3.364259e+003,5.180499e+000
3.365223e+003,3.747211e+000
3.366188e+003,4.381476e+000
3.367152e+003,5.825177e+000
3.368116e+003,7.304175e+000
3.369080e+003,7.530768e+000
3.370044e+003,6.512610e+000
3.371009e+003,4.851538e+000
3.371973e+003,3.506049e+000
3.372937e+003,4.654730e+000
3.373901e+003,6.302698e+000
3.374865e+003,5.691473e+000
3.375830e+003,5.316236e+000
3.376794e+003,6.363507e+000
3.377758e+003,7.010333e+000
3.378722e+003,6.937628e+000
3.379687e+003,7.166742e+000
3.380651e+003,7.812884e+000
3.381615e+003,7.533264e+000
3.382579e+003,6.634503e+000
3.383544e+003,8.454791e+000
3.384508e+003,1.176643e+001
3.385472e+003,1.247130e+001
3.386436e+003,1.162825e+001
3.387401e+003,9.027039e+000
3.388365e+003,7.753290e+000
3.389329e+003,9.407886e+000
3.390293e+003,1.105635e+001
3.391258e+003,1.151761e+001
3.392222e+003,1.172361e+001
3.393186e+003,1.209921e+001
3.394150e+003,1.185938e+001
3.395115e+003,1.085845e+001
3.396079e+003,1.109084e+001
3.397043e+003,1.196135e+001
3.398007e+003,1.138051e+001
3.398971e+003,1.053736e+001
3.399936e+003,1.135855e+001
3.400900e+003,1.213263e+001
3.401864e+003,1.180068e+001
3.402828e+003,1.099206e+001
3.403792e+003,1.013628e+001
3.404757e+003,1.008860e+001
3.405721e+003,1.195262e+001
3.406685e+003,1.230084e+001
3.407649e+003,1.101416e+001
3.408614e+003,1.076097e+001
3.409578e+003,1.142678e+001
3.410542e+003,1.277202e+001
3.411506e+003,1.372362e+001
3.412471e+003,1.246292e+001
3.413435e+003,1.134724e+001
3.414399e+003,1.277855e+001
3.415363e+003,1.454411e+001
3.416328e+003,1.434143e+001
3.417292e+003,1.417147e+001
3.418256e+003,1.490962e+001
3.419220e+003,1.485430e+001
3.420185e+003,1.406024e+001
3.421149e+003,1.331519e+001
3.422113e+003,1.298112e+001
3.423077e+003,1.400504e+001
3.424042e+003,1.548808e+001
3.425006e+003,1.589734e+001
3.425970e+003,1.551782e+001
3.426934e+003,1.416410e+001
