7.140112e+001,1.585110e+002
7.236536e+001,1.522178e+002
7.332959e+001,1.579108e+002
7.429382e+001,1.667590e+002
7.525806e+001,1.807391e+002
7.622229e+001,1.850562e+002
7.718652e+001,1.679755e+002
7.815076e+001,1.168097e+002
7.911499e+001,8.446189e+001
8.007922e+001,6.871989e+001
8.104346e+001,6.621531e+001
8.200769e+001,7.489189e+001
8.297192e+001,1.000589e+002
8.393616e+001,1.300948e+002
8.490039e+001,1.737532e+002
8.586462e+001,2.197318e+002
8.682886e+001,2.490396e+002
8.779310e+001,2.222389e+002
8.875733e+001,1.776453e+002
8.972157e+001,1.352535e+002
9.068580e+001,1.025755e+002
9.165003e+001,7.908572e+001
9.261427e+001,6.759628e+001
9.357850e+001,6.421236e+001
9.454273e+001,6.316609e+001
9.550697e+001,6.069030e+001
9.647120e+001,5.671787e+001
9.743543e+001,5.248628e+001
9.839967e+001,4.741413e+001
9.936390e+001,4.214575e+001
1.003281e+002,3.728700e+001
1.012924e+002,3.140355e+001
1.022566e+002,2.824819e+001
1.032208e+002,2.916731e+001
1.041851e+002,3.337132e+001
1.051493e+002,3.894756e+001
1.061135e+002,4.921357e+001
1.070778e+002,5.623478e+001
1.080420e+002,5.465136e+001
1.090062e+002,4.367768e+001
1.099705e+002,2.769312e+001
1.109347e+002,1.494082e+001
1.118989e+002,5.638709e+000
1.128632e+002,3.948767e+000
1.138274e+002,1.309204e+001
1.147916e+002,3.564736e+001
1.157559e+002,4.580085e+001
1.167201e+002,4.013902e+001
1.176843e+002,2.875117e+001
1.186486e+002,2.392849e+001
1.196128e+002,3.136555e+001
1.205770e+002,3.851255e+001
1.215413e+002,4.814405e+001
1.225055e+002,5.698140e+001
1.234697e+002,5.837765e+001
1.244340e+002,3.749016e+001
1.253982e+002,1.583619e+001
1.263624e+002,-3.793750e+000
1.273267e+002,-1.843982e+001
1.282909e+002,-2.393893e+001
1.292551e+002,2.084460e+000
1.302194e+002,3.735288e+001
1.311836e+002,6.174851e+001
1.321478e+002,6.258691e+001
1.331121e+002,3.970739e+001
1.340763e+002,1.976698e+001
1.350405e+002,8.577148e-001
1.360048e+002,-1.173136e+001
1.369690e+002,-1.085872e+001
1.379332e+002,1.887552e+001
1.388975e+002,3.675056e+001
1.398617e+002,3.876258e+001
1.408259e+002,3.069620e+001
1.417902e+002,2.160923e+001
1.427544e+002,1.304985e+001
1.437186e+002,6.215735e+000
1.446829e+002,1.481799e+000
1.456471e+002,-1.269543e+000
1.466113e+002,-2.564966e+000
1.475756e+002,-3.322473e+000
1.485398e+002,-2.629785e+000
1.495040e+002,2.038611e+000
1.504683e+002,1.101233e+001
1.514325e+002,2.228768e+001
1.523967e+002,2.289521e+001
1.533610e+002,1.533059e+001
1.543252e+002,6.782471e+000
1.552894e+002,2.473022e+000
1.562537e+002,4.370911e+000
1.572179e+002,4.556555e+000
1.581821e+002,-9.488525e-002
1.591464e+002,-4.259363e+000
1.601106e+002,-1.527039e+000
1.610748e+002,1.708164e+001
1.620391e+002,2.930942e+001
1.630033e+002,2.710194e+001
1.639676e+002,1.647799e+001
1.649318e+002,7.237341e+000
1.658960e+002,1.208103e+001
1.668603e+002,1.779376e+001
1.678245e+002,1.311976e+001
1.687887e+002,-8.041626e-001
1.697530e+002,-1.691324e+001
1.707172e+002,-1.314983e+001
1.716814e+002,3.070923e+000
1.726457e+002,1.433640e+001
1.736099e+002,1.392213e+001
1.745741e+002,1.301062e+000
1.755384e+002,-7.917651e+000
1.765026e+002,-1.498048e+001
1.774668e+002,-1.894687e+001
1.784311e+002,-1.800646e+001
1.793953e+002,-9.560083e+000
1.803595e+002,-4.002002e+000
1.813238e+002,-3.371570e+000
1.822880e+002,-5.219409e+000
1.832522e+002,-7.785498e+000
1.842165e+002,-1.007555e+001
1.851807e+002,-1.279545e+001
1.861449e+002,-1.780243e+001
1.871092e+002,-2.335857e+001
1.880734e+002,-2.723561e+001
1.890376e+002,-2.611715e+001
1.900019e+002,-2.090680e+001
1.909661e+002,-1.455909e+001
1.919303e+002,-7.400635e+000
1.928946e+002,-5.722534e-001
1.938588e+002,1.805530e+000
1.948230e+002,-3.985181e+000
1.957873e+002,-5.905249e+000
1.967515e+002,1.994873e-001
1.977157e+002,1.405509e+001
1.986800e+002,2.419996e+001
1.996442e+002,2.516793e+001
2.006084e+002,2.630277e+001
2.015727e+002,3.285438e+001
2.025369e+002,4.620119e+001
2.035011e+002,5.425623e+001
2.044654e+002,4.477551e+001
2.054296e+002,2.979696e+001
2.063938e+002,1.524170e+001
2.073581e+002,5.134521e+000
2.083223e+002,-6.814453e-001
2.092865e+002,-4.978808e+000
2.102508e+002,-7.199353e+000
2.112150e+002,-4.271631e+000
2.121792e+002,7.217871e+000
2.131435e+002,3.054475e+001
2.141077e+002,4.401196e+001
2.150719e+002,4.460288e+001
2.160362e+002,3.860331e+001
2.170004e+002,3.525893e+001
2.179646e+002,3.783134e+001
2.189289e+002,3.849458e+001
2.198931e+002,3.296416e+001
2.208573e+002,2.525234e+001
2.218216e+002,2.287922e+001
2.227858e+002,3.400338e+001
2.237500e+002,4.931084e+001
2.247143e+002,7.167849e+001
2.256785e+002,9.636455e+001
2.266427e+002,1.137746e+002
2.276070e+002,9.873677e+001
2.285712e+002,6.728866e+001
2.295354e+002,3.865104e+001
2.304997e+002,1.857673e+001
2.314639e+002,6.335279e+000
2.324281e+002,-1.599170e+000
2.333924e+002,-5.347839e+000
2.343566e+002,-6.475049e+000
2.353208e+002,-4.214075e+000
2.362851e+002,2.442102e+000
2.372493e+002,5.630896e+000
2.382135e+002,3.043311e+000
2.391778e+002,-5.274903e-001
2.401420e+002,-2.608691e+000
2.411062e+002,-2.103394e+000
2.420705e+002,-2.348145e+000
2.430347e+002,-6.059753e+000
2.439989e+002,-1.084435e+001
2.449632e+002,-1.515496e+001
2.459274e+002,-1.785430e+001
2.468916e+002,-1.879251e+001
2.478559e+002,-1.788552e+001
2.488201e+002,-1.576055e+001
2.497843e+002,-1.373401e+001
2.507486e+002,-1.338011e+001
2.517128e+002,-1.528134e+001
2.526770e+002,-1.418223e+001
2.536413e+002,-8.600561e+000
2.546055e+002,-1.484570e+000
2.555697e+002,2.520837e+000
2.565340e+002,6.999390e-001
2.574982e+002,-8.808594e-001
2.584625e+002,-1.069592e+000
2.594267e+002,-6.037475e-001
2.603909e+002,-1.014600e+000
2.613552e+002,-4.575415e+000
2.623194e+002,-7.899671e+000
2.632836e+002,-9.454016e+000
2.642479e+002,-9.375598e+000
2.652121e+002,-8.347705e+000
2.661763e+002,-6.895862e+000
2.671406e+002,-5.453857e+000
2.681048e+002,-5.028650e+000
2.690690e+002,-5.720215e+000
2.700333e+002,-6.866431e+000
2.709975e+002,-5.478113e+000
2.719617e+002,-3.403320e-002
2.729260e+002,3.045471e+000
2.738902e+002,1.207788e+000
2.748544e+002,-5.469007e+000
2.758187e+002,-1.050496e+001
2.767829e+002,-1.348147e+001
2.777471e+002,-1.517213e+001
2.787114e+002,-1.530941e+001
2.796756e+002,-1.390044e+001
2.806398e+002,-1.189038e+001
2.816041e+002,-9.619995e+000
2.825683e+002,-7.406287e+000
2.835325e+002,-5.457886e+000
2.844968e+002,-3.846875e+000
2.854610e+002,-2.411560e+000
2.864252e+002,7.471924e-002
2.873895e+002,2.665259e+000
2.883537e+002,3.363525e+000
2.893179e+002,8.985474e-001
2.902822e+002,-4.937598e+000
2.912464e+002,-8.499537e+000
2.922106e+002,-9.453833e+000
2.931749e+002,-9.778748e+000
2.941391e+002,-1.089092e+001
2.951033e+002,-1.339120e+001
2.960676e+002,-1.499127e+001
2.970318e+002,-1.548180e+001
2.979960e+002,-1.507937e+001
2.989603e+002,-1.398569e+001
2.999245e+002,-1.237250e+001
3.008887e+002,-9.771655e+000
3.018530e+002,-4.673303e+000
3.028172e+002,7.958984e-001
3.037814e+002,4.455188e+000
3.047457e+002,4.422266e+000
3.057099e+002,1.808923e+000
3.066741e+002,6.393067e-001
3.076384e+002,5.467529e-001
3.086026e+002,5.124390e-001
3.095668e+002,-5.953125e-001
3.105311e+002,-3.110523e+000
3.114953e+002,-5.261939e+000
3.124595e+002,-7.729822e+000
3.134238e+002,-9.707263e+000
3.143880e+002,-1.012599e+001
3.153522e+002,-7.949500e+000
3.163165e+002,-5.938745e+000
3.172807e+002,-4.116565e+000
3.182449e+002,-2.614697e+000
3.192092e+002,-1.852136e+000
3.201734e+002,-2.867590e+000
3.211376e+002,-3.294629e+000
3.221019e+002,-9.220215e-001
3.230661e+002,3.237842e+000
3.240303e+002,7.862280e+000
3.249946e+002,1.157377e+001
3.259588e+002,1.365479e+001
3.269230e+002,1.280465e+001
3.278873e+002,8.895874e+000
3.288515e+002,3.860950e+000
3.298157e+002,1.123852e+000
3.307800e+002,2.441077e+000
3.317442e+002,3.816101e+000
3.327084e+002,4.978919e+000
3.336727e+002,6.107385e+000
3.346369e+002,7.735522e+000
3.356011e+002,1.145360e+001
3.365654e+002,1.346587e+001
3.375296e+002,1.197404e+001
3.384938e+002,8.515051e+000
3.394581e+002,5.484204e+000
3.404223e+002,5.111169e+000
3.413865e+002,5.634656e+000
3.423508e+002,4.934631e+000
3.433150e+002,3.539209e+000
3.442792e+002,2.795898e+000
3.452435e+002,4.924255e+000
3.462077e+002,1.010989e+001
3.471719e+002,1.425435e+001
3.481362e+002,1.633213e+001
3.491004e+002,1.848389e+001
3.500646e+002,2.542347e+001
3.510289e+002,3.583229e+001
3.519931e+002,5.538550e+001
3.529573e+002,8.626212e+001
3.539216e+002,1.256517e+002
3.548858e+002,1.712111e+002
3.558500e+002,2.420155e+002
3.568143e+002,2.887200e+002
3.577785e+002,2.897471e+002
3.587427e+002,2.564379e+002
3.597070e+002,2.078466e+002
3.606712e+002,1.564255e+002
3.616354e+002,1.088786e+002
3.625997e+002,7.183250e+001
3.635639e+002,4.544735e+001
3.645281e+002,2.842450e+001
3.654924e+002,1.852691e+001
3.664566e+002,1.807742e+001
3.674208e+002,1.709122e+001
3.683851e+002,1.567010e+001
3.693493e+002,1.354386e+001
3.703135e+002,1.001340e+001
3.712778e+002,2.276611e+000
3.722420e+002,-2.477466e+000
3.732062e+002,-2.399609e+000
3.741705e+002,5.230347e-001
3.751347e+002,3.273071e+000
3.760989e+002,4.270764e+000
3.770632e+002,4.811975e+000
3.780274e+002,5.334473e+000
3.789916e+002,5.867114e+000
3.799559e+002,6.509875e+000
3.809201e+002,7.573389e+000
3.818844e+002,8.612732e+000
3.828486e+002,8.480115e+000
3.838128e+002,7.254077e+000
3.847771e+002,5.506055e+000
3.857413e+002,4.071301e+000
3.867055e+002,3.029346e+000
3.876698e+002,2.396045e+000
3.886340e+002,7.808228e-001
3.895982e+002,-3.118896e-002
3.905625e+002,3.127246e+000
3.915267e+002,1.504043e+001
3.924909e+002,2.261886e+001
3.934552e+002,2.243223e+001
3.944194e+002,1.801378e+001
3.953836e+002,1.256464e+001
3.963479e+002,6.984009e+000
3.973121e+002,3.631494e+000
3.982763e+002,5.223437e+000
3.992406e+002,9.495349e+000
4.002048e+002,1.332385e+001
4.011690e+002,1.367904e+001
4.021333e+002,1.103767e+001
4.030975e+002,1.040649e+001
4.040617e+002,1.181210e+001
4.050260e+002,1.361115e+001
4.059902e+002,1.401099e+001
4.069544e+002,1.205359e+001
4.079187e+002,1.137029e+001
4.088829e+002,1.295461e+001
4.098471e+002,1.465685e+001
4.108114e+002,1.452562e+001
4.117756e+002,1.151804e+001
4.127398e+002,9.604151e+000
4.137041e+002,1.143991e+001
4.146683e+002,1.402550e+001
4.156325e+002,1.507498e+001
4.165968e+002,1.338037e+001
4.175610e+002,1.061062e+001
4.185252e+002,9.090930e+000
4.194895e+002,8.624548e+000
4.204537e+002,9.257434e+000
4.214179e+002,1.102084e+001
4.223822e+002,1.390127e+001
4.233464e+002,1.771125e+001
4.243106e+002,2.331179e+001
4.252749e+002,2.679844e+001
4.262391e+002,2.445669e+001
4.272033e+002,1.531685e+001
4.281676e+002,1.240658e+001
4.291318e+002,2.100636e+001
4.300960e+002,3.078975e+001
4.310603e+002,3.736472e+001
4.320245e+002,4.051995e+001
4.329887e+002,4.551644e+001
4.339530e+002,5.453514e+001
4.349172e+002,6.904350e+001
4.358814e+002,9.238716e+001
4.368457e+002,1.239656e+002
4.378099e+002,1.606249e+002
4.387741e+002,2.021898e+002
4.397384e+002,2.424222e+002
4.407026e+002,2.600211e+002
4.416668e+002,2.491418e+002
4.426311e+002,2.161455e+002
4.435953e+002,1.819911e+002
4.445595e+002,1.398244e+002
4.455238e+002,1.062675e+002
4.464880e+002,8.480556e+001
4.474522e+002,7.215736e+001
4.484165e+002,6.161914e+001
4.493807e+002,5.212822e+001
4.503449e+002,4.468461e+001
4.513092e+002,4.036518e+001
4.522734e+002,3.778493e+001
4.532376e+002,3.499903e+001
4.542019e+002,3.033317e+001
4.551661e+002,2.510238e+001
4.561303e+002,2.088239e+001
4.570946e+002,1.765321e+001
4.580588e+002,1.531840e+001
4.590230e+002,1.377599e+001
4.599873e+002,1.314695e+001
4.609515e+002,1.284590e+001
4.619157e+002,1.265992e+001
4.628800e+002,1.292932e+001
4.638442e+002,1.412678e+001
4.648084e+002,1.673295e+001
4.657727e+002,1.880226e+001
4.667369e+002,2.057717e+001
4.677011e+002,2.184398e+001
4.686654e+002,2.249685e+001
4.696296e+002,2.247913e+001
4.705938e+002,2.151802e+001
4.715581e+002,1.855832e+001
4.725223e+002,1.520470e+001
4.734865e+002,1.245905e+001
4.744508e+002,1.076572e+001
4.754150e+002,9.850513e+000
4.763792e+002,9.019885e+000
4.773435e+002,8.369507e+000
4.783077e+002,8.645594e+000
4.792719e+002,1.034562e+001
4.802362e+002,1.294948e+001
4.812004e+002,1.335381e+001
4.821646e+002,8.504614e+000
4.831289e+002,5.030744e+000
4.840931e+002,3.778522e+000
4.850573e+002,4.258636e+000
4.860216e+002,5.343561e+000
4.869858e+002,8.261927e+000
4.879500e+002,1.000072e+001
4.889143e+002,8.653467e+000
4.898785e+002,5.656219e+000
4.908427e+002,3.357178e+000
4.918070e+002,3.919659e+000
4.927712e+002,5.659021e+000
4.937354e+002,5.659631e+000
4.946997e+002,4.379157e+000
4.956639e+002,2.910089e+000
4.966281e+002,2.357697e+000
4.975924e+002,2.842822e+000
4.985566e+002,2.630438e+000
4.995208e+002,1.170020e+000
5.004851e+002,-6.914673e-002
5.014493e+002,2.449890e-001
5.024135e+002,2.638483e+000
5.033778e+002,4.111877e+000
5.043420e+002,3.732410e+000
5.053063e+002,3.278052e+000
5.062705e+002,3.808716e+000
5.072347e+002,5.345996e+000
5.081990e+002,6.319092e+000
5.091632e+002,3.827612e+000
5.101274e+002,1.034839e+000
5.110917e+002,2.305786e-001
5.120559e+002,1.632379e+000
5.130201e+002,3.817346e+000
5.139844e+002,3.819415e+000
5.149486e+002,1.798712e+000
5.159128e+002,9.132202e-001
5.168771e+002,1.920410e+000
5.178413e+002,3.731671e+000
5.188055e+002,3.840472e+000
5.197698e+002,2.426147e-001
5.207340e+002,-2.059973e+000
5.216982e+002,-2.373999e+000
5.226625e+002,-1.755597e+000
5.236267e+002,-1.454089e+000
5.245909e+002,-2.119263e+000
5.255552e+002,-2.234931e+000
5.265194e+002,-4.588196e-001
5.274836e+002,1.762622e+000
5.284479e+002,3.286902e+000
5.294121e+002,3.476990e+000
5.303763e+002,2.654993e+000
5.313406e+002,4.795044e-001
5.323048e+002,-2.228107e+000
5.332690e+002,-3.287634e+000
5.342333e+002,-1.519550e+000
5.351975e+002,2.533624e+000
5.361617e+002,4.347577e+000
5.371260e+002,2.343866e+000
5.380902e+002,6.789490e-001
5.390544e+002,2.212952e-001
5.400187e+002,5.692383e-001
5.409829e+002,5.281372e-001
5.419471e+002,-5.314881e-001
5.429114e+002,-1.381140e+000
5.438756e+002,-1.767181e+000
5.448398e+002,-1.764075e+000
5.458041e+002,-1.478522e+000
5.467683e+002,-9.152649e-001
5.477325e+002,-1.988464e-001
5.486968e+002,7.565308e-001
5.496610e+002,1.657581e+000
5.506252e+002,1.835126e+000
5.515895e+002,7.317383e-001
5.525537e+002,-1.634442e+000
5.535179e+002,-3.222400e+000
5.544822e+002,-3.974640e+000
5.554464e+002,-4.424518e+000
5.564106e+002,-4.960650e+000
5.573749e+002,-5.626386e+000
5.583391e+002,-5.725751e+000
5.593033e+002,-4.252081e+000
5.602676e+002,-3.066052e+000
5.612318e+002,-2.890399e+000
5.621960e+002,-3.489465e+000
5.631603e+002,-3.993652e+000
5.641245e+002,-3.699713e+000
5.650887e+002,-3.100342e+000
5.660530e+002,-2.366601e+000
5.670172e+002,-1.708386e+000
5.679814e+002,-1.583319e+000
5.689457e+002,-2.537030e+000
5.699099e+002,-4.412940e+000
5.708741e+002,-4.769440e+000
5.718384e+002,-3.361957e+000
5.728026e+002,-1.913336e+000
5.737668e+002,-2.219666e+000
5.747311e+002,-5.026532e+000
5.756953e+002,-5.887946e+000
5.766595e+002,-2.613391e+000
5.776238e+002,5.676270e-002
5.785880e+002,-3.669128e-001
5.795522e+002,-3.604743e+000
5.805165e+002,-6.234143e+000
5.814807e+002,-4.752655e+000
5.824449e+002,-2.993579e+000
5.834092e+002,-3.348621e+000
5.843734e+002,-5.431989e+000
5.853376e+002,-7.604492e+000
5.863019e+002,-7.940082e+000
5.872661e+002,-6.598517e+000
5.882303e+002,-5.369904e+000
5.891946e+002,-4.237213e+000
5.901588e+002,-3.280572e+000
5.911230e+002,-2.635443e+000
5.920873e+002,-2.453088e+000
5.930515e+002,-2.066345e+000
5.940157e+002,-4.941101e-001
5.949800e+002,3.233948e-001
5.959442e+002,-1.299158e+000
5.969084e+002,-5.298883e+000
5.978727e+002,-8.278064e+000
5.988369e+002,-7.134137e+000
5.998011e+002,-5.430505e+000
6.007654e+002,-4.281976e+000
6.017296e+002,-3.885254e+000
6.026938e+002,-4.086432e+000
6.036581e+002,-4.995221e+000
6.046223e+002,-6.013519e+000
6.055865e+002,-5.011560e+000
6.065508e+002,-2.172003e+000
6.075150e+002,3.175659e-002
6.084792e+002,-1.372833e+000
6.094435e+002,-7.837915e+000
6.104077e+002,-1.014280e+001
6.113719e+002,-6.170392e+000
6.123362e+002,-1.735260e+000
6.133004e+002,3.733643e-001
6.142646e+002,4.310303e-002
6.152289e+002,-8.463196e-001
6.161931e+002,-2.244641e+000
6.171573e+002,-3.513934e+000
6.181216e+002,-4.486133e+000
6.190858e+002,-5.048541e+000
6.200500e+002,-5.042651e+000
6.210143e+002,-4.170300e+000
6.219785e+002,-2.941083e+000
6.229427e+002,-2.373547e+000
6.239070e+002,-2.400000e+000
6.248712e+002,-2.651288e+000
6.258354e+002,-2.754925e+000
6.267997e+002,-2.642951e+000
6.277639e+002,-2.308386e+000
6.287281e+002,-1.450256e+000
6.296924e+002,-9.649414e-001
6.306566e+002,-1.640448e+000
6.316208e+002,-3.312445e+000
6.325851e+002,-4.147199e+000
6.335493e+002,-2.567651e+000
6.345135e+002,-8.925781e-001
6.354778e+002,5.756165e-001
6.364420e+002,1.557129e+000
6.374063e+002,1.691650e+000
6.383705e+002,5.020325e-001
6.393347e+002,-1.275226e+000
6.402990e+002,-2.604388e+000
6.412632e+002,-3.409723e+000
6.422274e+002,-3.409930e+000
6.431917e+002,-2.381293e+000
6.441559e+002,-4.104981e-001
6.451201e+002,6.980346e-001
6.460844e+002,7.936218e-001
6.470486e+002,5.685974e-001
6.480128e+002,1.922913e-001
6.489771e+002,-3.363464e-001
6.499413e+002,-1.063544e+000
6.509055e+002,-2.220343e+000
6.518698e+002,-3.354156e+000
6.528340e+002,-4.570611e+000
6.537982e+002,-5.571979e+000
6.547625e+002,-6.010339e+000
6.557267e+002,-5.671704e+000
6.566909e+002,-4.829871e+000
6.576552e+002,-3.582062e+000
6.586194e+002,-2.275232e+000
6.595836e+002,-1.496014e+000
6.605479e+002,-1.495587e+000
6.615121e+002,-1.987073e+000
6.624763e+002,-1.873999e+000
6.634406e+002,-5.338562e-001
6.644048e+002,-3.166321e-001
6.653690e+002,-2.540051e+000
6.663333e+002,-5.915503e+000
6.672975e+002,-8.016126e+000
6.682617e+002,-8.488605e+000
6.692260e+002,-7.498376e+000
6.701902e+002,-3.892090e+000
6.711544e+002,-3.040772e-002
6.721187e+002,2.152972e+000
6.730829e+002,1.984674e+000
6.740471e+002,5.726013e-001
6.750114e+002,-1.675275e+000
6.759756e+002,-3.747730e+000
6.769398e+002,-4.215991e+000
6.779041e+002,-2.918866e+000
6.788683e+002,-8.528992e-001
6.798325e+002,1.924377e-001
6.807968e+002,-1.037048e-001
6.817610e+002,-5.219849e-001
6.827252e+002,-1.399994e+000
6.836895e+002,-2.126794e+000
6.846537e+002,-2.055871e+000
6.856179e+002,-1.029333e+000
6.865822e+002,-2.262817e-001
6.875464e+002,1.573975e-001
6.885106e+002,2.323486e-001
6.894749e+002,-1.950073e-001
6.904391e+002,-9.350586e-001
6.914034e+002,-1.478766e+000
6.923676e+002,-1.317151e+000
6.933318e+002,-6.756470e-001
6.942961e+002,4.331177e-001
6.952603e+002,1.708923e+000
6.962245e+002,2.185895e+000
6.971888e+002,9.225952e-001
6.981530e+002,-2.150427e+000
6.991172e+002,-4.041467e+000
7.000815e+002,-4.760327e+000
7.010457e+002,-4.827704e+000
7.020099e+002,-4.083899e+000
7.029742e+002,-2.679981e+000
7.039384e+002,-1.471918e+000
7.049026e+002,-7.069641e-001
7.058669e+002,-1.606689e-001
7.068311e+002,1.546021e-001
7.077953e+002,3.102356e-001
7.087596e+002,5.081421e-001
7.097238e+002,9.064087e-001
7.106880e+002,1.058850e+000
7.116523e+002,-4.777039e-001
7.126165e+002,-2.658197e+000
7.135807e+002,-3.751837e+000
7.145450e+002,-3.095831e+000
7.155092e+002,-1.331317e+000
7.164734e+002,-2.494568e-001
7.174377e+002,-2.151367e-001
7.184019e+002,-2.473450e-001
7.193661e+002,-3.474731e-001
7.203304e+002,-5.852906e-001
7.212946e+002,-1.018268e+000
7.222589e+002,-1.639966e+000
7.232231e+002,-2.328430e+000
7.241873e+002,-3.795581e+000
7.251516e+002,-4.691589e+000
7.261158e+002,-3.778162e+000
7.270800e+002,-1.403467e+000
7.280443e+002,7.472656e-001
7.290085e+002,7.859863e-001
7.299727e+002,-3.577088e-001
7.309370e+002,-6.130859e-001
7.319012e+002,-4.316406e-002
7.328654e+002,7.657226e-001
7.338297e+002,1.343176e+000
7.347939e+002,1.712158e+000
7.357581e+002,9.587891e-001
7.367224e+002,-2.478992e+000
7.376866e+002,-4.893023e+000
7.386508e+002,-4.557678e+000
7.396151e+002,-2.458917e+000
7.405793e+002,-1.416528e+000
7.415435e+002,-2.850134e+000
7.425078e+002,-4.222076e+000
7.434720e+002,-4.673694e+000
7.444362e+002,-4.466913e+000
7.454005e+002,-3.564929e+000
7.463647e+002,-2.061859e+000
7.473289e+002,-7.108642e-001
7.482932e+002,-1.161487e+000
7.492574e+002,-2.858697e+000
7.502216e+002,-4.941302e+000
7.511859e+002,-7.352374e+000
7.521501e+002,-9.545550e+000
7.531143e+002,-1.040465e+001
7.540786e+002,-9.116595e+000
7.550428e+002,-8.260175e+000
7.560070e+002,-8.192865e+000
7.569713e+002,-8.136169e+000
7.579355e+002,-7.579419e+000
7.588997e+002,-6.535187e+000
7.598640e+002,-5.553864e+000
7.608282e+002,-5.212756e+000
7.617924e+002,-4.645770e+000
7.627567e+002,-3.154816e+000
7.637209e+002,-1.118799e+000
7.646851e+002,4.713623e-001
7.656494e+002,7.656921e-001
7.666136e+002,5.821045e-001
7.675778e+002,4.587128e+000
7.685421e+002,1.209860e+001
7.695063e+002,1.636097e+001
7.704705e+002,1.347584e+001
7.714348e+002,5.330731e+000
7.723990e+002,-5.224121e-001
7.733632e+002,-2.844452e+000
7.743275e+002,-4.439471e+000
7.752917e+002,-5.020923e+000
7.762559e+002,-5.334052e+000
7.772202e+002,-6.301477e+000
7.781844e+002,-8.164154e+000
7.791486e+002,-9.426996e+000
7.801129e+002,-7.846601e+000
7.810771e+002,-5.681067e+000
7.820413e+002,-4.114496e+000
7.830056e+002,-3.423309e+000
7.839698e+002,-3.609107e+000
7.849340e+002,-4.745508e+000
7.858983e+002,-6.769989e+000
7.868625e+002,-8.017548e+000
7.878267e+002,-8.549072e+000
7.887910e+002,-8.519506e+000
7.897552e+002,-7.670496e+000
7.907194e+002,-6.139368e+000
7.916837e+002,-5.192499e+000
7.926479e+002,-5.588281e+000
7.936121e+002,-5.796210e+000
7.945764e+002,-5.253985e+000
7.955406e+002,-4.541821e+000
7.965048e+002,-4.314832e+000
7.974691e+002,-4.799866e+000
7.984333e+002,-5.505164e+000
7.993975e+002,-6.134094e+000
8.003618e+002,-6.579181e+000
8.013260e+002,-6.453174e+000
8.022902e+002,-5.770770e+000
8.032545e+002,-5.069208e+000
8.042187e+002,-5.168573e+000
8.051829e+002,-6.276502e+000
8.061472e+002,-6.866754e+000
8.071114e+002,-6.786987e+000
8.080756e+002,-6.543408e+000
8.090399e+002,-6.439178e+000
8.100041e+002,-6.395624e+000
8.109683e+002,-5.927911e+000
8.119326e+002,-4.234229e+000
8.128968e+002,-3.062427e+000
8.138610e+002,-3.338977e+000
8.148253e+002,-4.340857e+000
8.157895e+002,-5.245123e+000
8.167537e+002,-5.629724e+000
8.177180e+002,-5.636774e+000
8.186822e+002,-5.535413e+000
8.196464e+002,-5.227655e+000
8.206107e+002,-4.264642e+000
8.215749e+002,-2.487769e+000
8.225391e+002,-6.568726e-001
8.235034e+002,-2.335816e-002
8.244676e+002,-1.056903e+000
8.254318e+002,-1.952637e+000
8.263961e+002,-2.981598e+000
8.273603e+002,-3.525342e+000
8.283245e+002,-2.851178e+000
8.292888e+002,-1.392194e+000
8.302530e+002,-8.025452e-001
8.312172e+002,-2.425262e+000
8.321815e+002,-4.159345e+000
8.331457e+002,-4.150678e+000
8.341099e+002,-3.442151e+000
8.350742e+002,-3.711798e+000
8.360384e+002,-5.675989e+000
8.370026e+002,-8.198370e+000
8.379669e+002,-8.461304e+000
8.389311e+002,-6.350177e+000
8.398953e+002,-4.891644e+000
8.408596e+002,-4.501007e+000
8.418238e+002,-4.673028e+000
8.427880e+002,-4.861908e+000
8.437523e+002,-5.045355e+000
8.447165e+002,-5.292358e+000
8.456807e+002,-5.497986e+000
8.466450e+002,-5.869110e+000
8.476092e+002,-6.693189e+000
8.485734e+002,-7.764655e+000
8.495377e+002,-8.749799e+000
8.505019e+002,-9.560407e+000
8.514661e+002,-9.701807e+000
8.524304e+002,-7.799957e+000
8.533946e+002,-5.088800e+000
8.543588e+002,-3.642297e+000
8.553231e+002,-4.227002e+000
8.562873e+002,-6.032922e+000
8.572515e+002,-7.290271e+000
8.582158e+002,-7.893060e+000
8.591800e+002,-8.095136e+000
8.601442e+002,-7.483337e+000
8.611085e+002,-6.976026e+000
8.620727e+002,-7.211157e+000
8.630369e+002,-8.124560e+000
8.640012e+002,-9.031909e+000
8.649654e+002,-9.775812e+000
8.659296e+002,-1.043863e+001
8.668939e+002,-1.142887e+001
8.678581e+002,-1.223149e+001
8.688223e+002,-1.196739e+001
8.697866e+002,-1.026433e+001
8.707508e+002,-7.971191e+000
8.717150e+002,-6.796381e+000
8.726793e+002,-6.604834e+000
8.736435e+002,-6.929785e+000
8.746077e+002,-7.838776e+000
8.755720e+002,-8.780871e+000
8.765362e+002,-8.908404e+000
8.775004e+002,-7.882843e+000
8.784647e+002,-7.512378e+000
8.794289e+002,-8.920355e+000
8.803931e+002,-9.725000e+000
8.813574e+002,-8.338556e+000
8.823216e+002,-5.950439e+000
8.832858e+002,-5.123877e+000
8.842501e+002,-7.311609e+000
8.852143e+002,-1.002423e+001
8.861785e+002,-1.069955e+001
8.871428e+002,-1.044356e+001
8.881070e+002,-1.042455e+001
8.890712e+002,-1.098445e+001
8.900355e+002,-1.179120e+001
8.909997e+002,-1.233077e+001
8.919639e+002,-1.259520e+001
8.929282e+002,-1.222873e+001
8.938924e+002,-1.073787e+001
8.948566e+002,-9.371930e+000
8.958209e+002,-8.737799e+000
8.967851e+002,-8.730591e+000
8.977493e+002,-8.973407e+000
8.987136e+002,-9.709997e+000
8.996778e+002,-1.021415e+001
9.006420e+002,-1.001900e+001
9.016063e+002,-9.602783e+000
9.025705e+002,-9.229523e+000
9.035347e+002,-9.068665e+000
9.044990e+002,-9.409375e+000
9.054632e+002,-1.091697e+001
9.064274e+002,-1.318824e+001
9.073917e+002,-1.431907e+001
9.083559e+002,-1.421478e+001
9.093201e+002,-1.377587e+001
9.102844e+002,-1.378111e+001
9.112486e+002,-1.418015e+001
9.122128e+002,-1.385733e+001
9.131771e+002,-1.191614e+001
9.141413e+002,-1.038264e+001
9.151055e+002,-9.493505e+000
9.160698e+002,-9.022131e+000
9.170340e+002,-8.844739e+000
9.179982e+002,-8.928167e+000
9.189625e+002,-9.041028e+000
9.199267e+002,-8.687201e+000
9.208909e+002,-8.528814e+000
9.218552e+002,-9.759082e+000
9.228194e+002,-1.182524e+001
9.237836e+002,-1.292558e+001
9.247479e+002,-1.161938e+001
9.257121e+002,-8.484302e+000
9.266763e+002,-6.938391e+000
9.276406e+002,-7.859338e+000
9.286048e+002,-8.493299e+000
9.295690e+002,-8.208252e+000
9.305333e+002,-7.758368e+000
9.314975e+002,-8.237146e+000
9.324617e+002,-9.879743e+000
9.334260e+002,-1.087703e+001
9.343902e+002,-9.652423e+000
9.353545e+002,-8.297003e+000
9.363187e+002,-7.534167e+000
9.372830e+002,-7.356524e+000
9.382472e+002,-7.611163e+000
9.392114e+002,-8.168506e+000
9.401757e+002,-8.828979e+000
9.411399e+002,-9.294489e+000
9.421041e+002,-9.582672e+000
9.430684e+002,-9.292035e+000
9.440326e+002,-8.178186e+000
9.449968e+002,-6.912591e+000
9.459611e+002,-6.270593e+000
9.469253e+002,-6.250891e+000
9.478895e+002,-6.442914e+000
9.488538e+002,-7.571338e+000
9.498180e+002,-8.107483e+000
9.507822e+002,-6.932275e+000
9.517465e+002,-5.193573e+000
9.527107e+002,-4.753540e+000
9.536749e+002,-6.373071e+000
9.546392e+002,-8.256488e+000
9.556034e+002,-8.097577e+000
9.565676e+002,-6.928925e+000
9.575319e+002,-5.831720e+000
9.584961e+002,-4.950696e+000
9.594603e+002,-4.117145e+000
9.604246e+002,-3.153577e+000
9.613888e+002,-2.083289e+000
9.623530e+002,-1.647498e+000
9.633173e+002,-3.078705e+000
9.642815e+002,-3.472095e+000
9.652457e+002,-1.882214e+000
9.662100e+002,7.156433e-001
9.671742e+002,2.875336e+000
9.681384e+002,4.227533e+000
9.691027e+002,6.395935e+000
9.700669e+002,6.192712e+000
9.710311e+002,1.117851e+001
9.719954e+002,3.110713e+001
9.729596e+002,6.050359e+001
9.739238e+002,8.866434e+001
9.748881e+002,1.079582e+002
9.758523e+002,1.163933e+002
9.768165e+002,1.045801e+002
9.777808e+002,6.713234e+001
9.787450e+002,3.823330e+001
9.797092e+002,2.397498e+001
9.806735e+002,1.720549e+001
9.816377e+002,1.183680e+001
9.826019e+002,7.881360e+000
9.835662e+002,5.745868e+000
9.845304e+002,7.301435e+000
9.854946e+002,8.791656e+000
9.864589e+002,8.755383e+000
9.874231e+002,8.022418e+000
9.883873e+002,7.574750e+000
9.893516e+002,7.803021e+000
9.903158e+002,8.539221e+000
9.912800e+002,9.739655e+000
9.922443e+002,1.140517e+001
9.932085e+002,1.278926e+001
9.941727e+002,1.378194e+001
9.951370e+002,1.572609e+001
9.961012e+002,1.912469e+001
9.970654e+002,2.399656e+001
9.980297e+002,3.070243e+001
9.989939e+002,3.065769e+001
9.999581e+002,4.901656e+001
1.000922e+003,8.454573e+001
1.001887e+003,1.403977e+002
1.002851e+003,2.464939e+002
1.003815e+003,3.841711e+002
1.004779e+003,4.718615e+002
1.005744e+003,4.430883e+002
1.006708e+003,3.482777e+002
1.007672e+003,2.543358e+002
1.008636e+003,1.664038e+002
1.009600e+003,1.011713e+002
1.010565e+003,6.612455e+001
1.011529e+003,5.163153e+001
1.012493e+003,3.947327e+001
1.013457e+003,2.955210e+001
1.014422e+003,2.349036e+001
1.015386e+003,2.346260e+001
1.016350e+003,2.364465e+001
1.017314e+003,2.143220e+001
1.018279e+003,1.782252e+001
1.019243e+003,1.514692e+001
1.020207e+003,1.431028e+001
1.021171e+003,1.383555e+001
1.022135e+003,1.229811e+001
1.023100e+003,1.068830e+001
1.024064e+003,9.854712e+000
1.025028e+003,9.801251e+000
1.025992e+003,1.014694e+001
1.026957e+003,1.058690e+001
1.027921e+003,1.109305e+001
1.028885e+003,1.121469e+001
1.029849e+003,1.082955e+001
1.030814e+003,1.033959e+001
1.031778e+003,9.234680e+000
1.032742e+003,8.274640e+000
1.033706e+003,8.504870e+000
1.034671e+003,9.980029e+000
1.035635e+003,1.118187e+001
1.036599e+003,1.168912e+001
1.037563e+003,1.150565e+001
1.038527e+003,1.007977e+001
1.039492e+003,8.246185e+000
1.040456e+003,7.039014e+000
1.041420e+003,6.853930e+000
1.042384e+003,7.297461e+000
1.043349e+003,7.831183e+000
1.044313e+003,8.434967e+000
1.045277e+003,8.902857e+000
1.046241e+003,9.264013e+000
1.047206e+003,9.414660e+000
1.048170e+003,8.839294e+000
1.049134e+003,8.109143e+000
1.050098e+003,8.909449e+000
1.051063e+003,1.213525e+001
1.052027e+003,1.460652e+001
1.052991e+003,1.494454e+001
1.053955e+003,1.446627e+001
1.054919e+003,1.363394e+001
1.055884e+003,1.261345e+001
1.056848e+003,1.126437e+001
1.057812e+003,9.545392e+000
1.058776e+003,8.299103e+000
1.059741e+003,9.783673e+000
1.060705e+003,1.343043e+001
1.061669e+003,1.506436e+001
1.062633e+003,1.374086e+001
1.063598e+003,1.148105e+001
1.064562e+003,9.875727e+000
1.065526e+003,8.985626e+000
1.066490e+003,8.950452e+000
1.067454e+003,1.055989e+001
1.068419e+003,1.177025e+001
1.069383e+003,1.132443e+001
1.070347e+003,1.083158e+001
1.071311e+003,1.222213e+001
1.072276e+003,1.514496e+001
1.073240e+003,1.709146e+001
1.074204e+003,1.592899e+001
1.075168e+003,1.321603e+001
1.076133e+003,1.255049e+001
1.077097e+003,1.343459e+001
1.078061e+003,1.433368e+001
1.079025e+003,1.475781e+001
1.079990e+003,1.509106e+001
1.080954e+003,1.603201e+001
1.081918e+003,1.775857e+001
1.082882e+003,1.885491e+001
1.083846e+003,1.881008e+001
1.084811e+003,1.854844e+001
1.085775e+003,1.816142e+001
1.086739e+003,1.767920e+001
1.087703e+003,1.686892e+001
1.088668e+003,1.588242e+001
1.089632e+003,1.573860e+001
1.090596e+003,1.766479e+001
1.091560e+003,2.039309e+001
1.092525e+003,2.139915e+001
1.093489e+003,2.097616e+001
1.094453e+003,2.036104e+001
1.095417e+003,2.011154e+001
1.096381e+003,2.008053e+001
1.097346e+003,1.991721e+001
1.098310e+003,1.951789e+001
1.099274e+003,1.934945e+001
1.100238e+003,1.947280e+001
1.101203e+003,1.981668e+001
1.102167e+003,2.053837e+001
1.103131e+003,2.133024e+001
1.104095e+003,2.162332e+001
1.105060e+003,2.129903e+001
1.106024e+003,2.127907e+001
1.106988e+003,2.286366e+001
1.107952e+003,2.493883e+001
1.108917e+003,2.560263e+001
1.109881e+003,2.505413e+001
1.110845e+003,2.420026e+001
1.111809e+003,2.344032e+001
1.112773e+003,2.292356e+001
1.113738e+003,2.320053e+001
1.114702e+003,2.487145e+001
1.115666e+003,2.584519e+001
1.116630e+003,2.615053e+001
1.117595e+003,2.573906e+001
1.118559e+003,2.367074e+001
1.119523e+003,2.126821e+001
1.120487e+003,2.069271e+001
1.121452e+003,2.253201e+001
1.122416e+003,2.475287e+001
1.123380e+003,2.561674e+001
1.124344e+003,2.568098e+001
1.125308e+003,2.575876e+001
1.126273e+003,2.591540e+001
1.127237e+003,2.609467e+001
1.128201e+003,2.624852e+001
1.129165e+003,2.644534e+001
1.130130e+003,2.689254e+001
1.131094e+003,2.776699e+001
1.132058e+003,2.807214e+001
1.133022e+003,2.724576e+001
1.133987e+003,2.670950e+001
1.134951e+003,2.735292e+001
1.135915e+003,2.846459e+001
1.136879e+003,2.905357e+001
1.137844e+003,2.884846e+001
1.138808e+003,2.796200e+001
1.139772e+003,2.555023e+001
1.140736e+003,2.329880e+001
1.141700e+003,2.429062e+001
1.142665e+003,2.752411e+001
1.143629e+003,2.942530e+001
1.144593e+003,2.817703e+001
1.145557e+003,2.575322e+001
1.146522e+003,2.611684e+001
1.147486e+003,3.017227e+001
1.148450e+003,3.275067e+001
1.149414e+003,3.365118e+001
1.150379e+003,3.374799e+001
1.151343e+003,3.256280e+001
1.152307e+003,3.110523e+001
1.153271e+003,3.052352e+001
1.154235e+003,3.094368e+001
1.155200e+003,3.153002e+001
1.156164e+003,3.168962e+001
1.157128e+003,3.197368e+001
1.158092e+003,3.349306e+001
1.159057e+003,3.561140e+001
1.160021e+003,3.650166e+001
1.160985e+003,3.541846e+001
1.161949e+003,3.375331e+001
1.162914e+003,3.363707e+001
1.163878e+003,3.527394e+001
1.164842e+003,3.696523e+001
1.165806e+003,3.934282e+001
1.166771e+003,4.081434e+001
1.167735e+003,4.082931e+001
1.168699e+003,4.013998e+001
1.169663e+003,3.893892e+001
1.170627e+003,3.759719e+001
1.171592e+003,3.745086e+001
1.172556e+003,3.982256e+001
1.173520e+003,4.245177e+001
1.174484e+003,4.116985e+001
1.175449e+003,3.774925e+001
1.176413e+003,3.536396e+001
1.177377e+003,3.472606e+001
1.178341e+003,3.541630e+001
1.179306e+003,3.740785e+001
1.180270e+003,4.055149e+001
1.181234e+003,4.251605e+001
1.182198e+003,4.240147e+001
1.183162e+003,4.250393e+001
1.184127e+003,4.347018e+001
1.185091e+003,4.425417e+001
1.186055e+003,4.407354e+001
1.187019e+003,4.331026e+001
1.187984e+003,4.291668e+001
1.188948e+003,4.329165e+001
1.189912e+003,4.370601e+001
1.190876e+003,4.283131e+001
1.191841e+003,4.158382e+001
1.192805e+003,4.270345e+001
1.193769e+003,4.629976e+001
1.194733e+003,4.889783e+001
1.195698e+003,4.783936e+001
1.196662e+003,4.470887e+001
1.197626e+003,4.385828e+001
1.198590e+003,4.607592e+001
1.199554e+003,4.759050e+001
1.200519e+003,4.742864e+001
1.201483e+003,4.728571e+001
1.202447e+003,4.769274e+001
1.203411e+003,4.841937e+001
1.204376e+003,4.898483e+001
1.205340e+003,4.926376e+001
1.206304e+003,4.975854e+001
1.207268e+003,5.119696e+001
1.208233e+003,5.316216e+001
1.209197e+003,5.378648e+001
1.210161e+003,5.317028e+001
1.211125e+003,5.252328e+001
1.212089e+003,5.199202e+001
1.213054e+003,5.158504e+001
1.214018e+003,5.137754e+001
1.214982e+003,5.151299e+001
1.215946e+003,5.233237e+001
1.216911e+003,5.427000e+001
1.217875e+003,5.590910e+001
1.218839e+003,5.684949e+001
1.219803e+003,5.724517e+001
1.220768e+003,5.722966e+001
1.221732e+003,5.695744e+001
1.222696e+003,5.643073e+001
1.223660e+003,5.565018e+001
1.224625e+003,5.492319e+001
1.225589e+003,5.473061e+001
1.226553e+003,5.508012e+001
1.227517e+003,5.667200e+001
1.228481e+003,6.044319e+001
1.229446e+003,6.327641e+001
1.230410e+003,6.337989e+001
1.231374e+003,6.184224e+001
1.232338e+003,6.010039e+001
1.233303e+003,5.822786e+001
1.234267e+003,5.772347e+001
1.235231e+003,6.050518e+001
1.236195e+003,6.286013e+001
1.237160e+003,6.196522e+001
1.238124e+003,5.982195e+001
1.239088e+003,5.907427e+001
1.240052e+003,6.016569e+001
1.241016e+003,6.156701e+001
1.241981e+003,6.178451e+001
1.242945e+003,6.116832e+001
1.243909e+003,6.142184e+001
1.244873e+003,6.335712e+001
1.245838e+003,6.428770e+001
1.246802e+003,6.339257e+001
1.247766e+003,6.232201e+001
1.248730e+003,6.160606e+001
1.249695e+003,6.147506e+001
1.250659e+003,6.272783e+001
1.251623e+003,6.571545e+001
1.252587e+003,6.811176e+001
1.253552e+003,6.785537e+001
1.254516e+003,6.667741e+001
1.255480e+003,6.636892e+001
1.256444e+003,6.657997e+001
1.257408e+003,6.617513e+001
1.258373e+003,6.477008e+001
1.259337e+003,6.356816e+001
1.260301e+003,6.447848e+001
1.261265e+003,6.758459e+001
1.262230e+003,6.876029e+001
1.263194e+003,6.553258e+001
1.264158e+003,6.343736e+001
1.265122e+003,6.302825e+001
1.266087e+003,6.366863e+001
1.267051e+003,6.550065e+001
1.268015e+003,6.800114e+001
1.268979e+003,7.010500e+001
1.269943e+003,7.135187e+001
1.270908e+003,7.224815e+001
1.271872e+003,7.344883e+001
1.272836e+003,7.456505e+001
1.273800e+003,7.453463e+001
1.274765e+003,7.346893e+001
1.275729e+003,7.278385e+001
1.276693e+003,7.321440e+001
1.277657e+003,7.417073e+001
1.278622e+003,7.489815e+001
1.279586e+003,7.536867e+001
1.280550e+003,7.497430e+001
1.281514e+003,7.268880e+001
1.282479e+003,7.152541e+001
1.283443e+003,7.299817e+001
1.284407e+003,7.496826e+001
1.285371e+003,7.570412e+001
1.286335e+003,7.533195e+001
1.287300e+003,7.487981e+001
1.288264e+003,7.498771e+001
1.289228e+003,7.569466e+001
1.290192e+003,7.715891e+001
1.291157e+003,7.924160e+001
1.292121e+003,7.940974e+001
1.293085e+003,7.653335e+001
1.294049e+003,7.490530e+001
1.295014e+003,7.737260e+001
1.295978e+003,8.100510e+001
1.296942e+003,8.227136e+001
1.297906e+003,8.128176e+001
1.298870e+003,7.997853e+001
1.299835e+003,7.825081e+001
1.300799e+003,7.738688e+001
1.301763e+003,7.943199e+001
1.302727e+003,8.176723e+001
1.303692e+003,8.161214e+001
1.304656e+003,7.962233e+001
1.305620e+003,7.861752e+001
1.306584e+003,8.014840e+001
1.307549e+003,8.266250e+001
1.308513e+003,8.309470e+001
1.309477e+003,8.084839e+001
1.310441e+003,8.063661e+001
1.311406e+003,8.466656e+001
1.312370e+003,8.773678e+001
1.313334e+003,8.889967e+001
1.314298e+003,8.905731e+001
1.315263e+003,8.845206e+001
1.316227e+003,8.753996e+001
1.317191e+003,8.748523e+001
1.318155e+003,8.884767e+001
1.319120e+003,9.017816e+001
1.320084e+003,8.963222e+001
1.321048e+003,8.804018e+001
1.322012e+003,8.728249e+001
1.322976e+003,8.736345e+001
1.323941e+003,8.787624e+001
1.324905e+003,8.893845e+001
1.325869e+003,9.000615e+001
1.326833e+003,8.988316e+001
1.327798e+003,8.854984e+001
1.328762e+003,8.838411e+001
1.329726e+003,9.026694e+001
1.330690e+003,9.192314e+001
1.331655e+003,9.306966e+001
1.332619e+003,9.355007e+001
1.333583e+003,9.241653e+001
1.334547e+003,9.074160e+001
1.335511e+003,9.059464e+001
1.336476e+003,9.272664e+001
1.337440e+003,9.592693e+001
1.338404e+003,9.889470e+001
1.339368e+003,1.014185e+002
1.340333e+003,1.008217e+002
1.341297e+003,9.526559e+001
1.342261e+003,9.209198e+001
1.343225e+003,9.404733e+001
1.344190e+003,9.664931e+001
1.345154e+003,9.664353e+001
1.346118e+003,9.498873e+001
1.347082e+003,9.410527e+001
1.348047e+003,9.449583e+001
1.349011e+003,9.541831e+001
1.349975e+003,9.714744e+001
1.350939e+003,9.842539e+001
1.351903e+003,9.706236e+001
1.352868e+003,9.446513e+001
1.353832e+003,9.381191e+001
1.354796e+003,9.588869e+001
1.355760e+003,9.878786e+001
1.356725e+003,1.009122e+002
1.357689e+003,1.022355e+002
1.358653e+003,1.023315e+002
1.359617e+003,1.003385e+002
1.360582e+003,9.960744e+001
1.361546e+003,1.013405e+002
1.362510e+003,1.031199e+002
1.363474e+003,1.047888e+002
1.364438e+003,1.059481e+002
1.365403e+003,1.055732e+002
1.366367e+003,1.040033e+002
1.367331e+003,1.031231e+002
1.368295e+003,1.041988e+002
1.369260e+003,1.059895e+002
1.370224e+003,1.063065e+002
1.371188e+003,1.053334e+002
1.372152e+003,1.049754e+002
1.373117e+003,1.049305e+002
1.374081e+003,1.055463e+002
1.375045e+003,1.074997e+002
1.376009e+003,1.098018e+002
1.376974e+003,1.112629e+002
1.377938e+003,1.120925e+002
1.378902e+003,1.136250e+002
1.379866e+003,1.165961e+002
1.380830e+003,1.185622e+002
1.381795e+003,1.170677e+002
1.382759e+003,1.143360e+002
1.383723e+003,1.117125e+002
1.384687e+003,1.097124e+002
1.385652e+003,1.092888e+002
1.386616e+003,1.107575e+002
1.387580e+003,1.130551e+002
1.388544e+003,1.151199e+002
1.389509e+003,1.167567e+002
1.390473e+003,1.165716e+002
1.391437e+003,1.132725e+002
1.392401e+003,1.114710e+002
1.393365e+003,1.119001e+002
1.394330e+003,1.130598e+002
1.395294e+003,1.151160e+002
1.396258e+003,1.169493e+002
1.397222e+003,1.171202e+002
1.398187e+003,1.159306e+002
1.399151e+003,1.152808e+002
1.400115e+003,1.163809e+002
1.401079e+003,1.180052e+002
1.402044e+003,1.178612e+002
1.403008e+003,1.159505e+002
1.403972e+003,1.155058e+002
1.404936e+003,1.171633e+002
1.405901e+003,1.189076e+002
1.406865e+003,1.198956e+002
1.407829e+003,1.207271e+002
1.408793e+003,1.220722e+002
1.409757e+003,1.239286e+002
1.410722e+003,1.260918e+002
1.411686e+003,1.285836e+002
1.412650e+003,1.301382e+002
1.413614e+003,1.299493e+002
1.414579e+003,1.285381e+002
1.415543e+003,1.249447e+002
1.416507e+003,1.208506e+002
1.417471e+003,1.214038e+002
1.418436e+003,1.280486e+002
1.419400e+003,1.342703e+002
1.420364e+003,1.330772e+002
1.421328e+003,1.266706e+002
1.422292e+003,1.240887e+002
1.423257e+003,1.262003e+002
1.424221e+003,1.284300e+002
1.425185e+003,1.303037e+002
1.426149e+003,1.318775e+002
1.427114e+003,1.334604e+002
1.428078e+003,1.349940e+002
1.429042e+003,1.362883e+002
1.430006e+003,1.371846e+002
1.430971e+003,1.373687e+002
1.431935e+003,1.367897e+002
1.432899e+003,1.363106e+002
1.433863e+003,1.373355e+002
1.434828e+003,1.397283e+002
1.435792e+003,1.402385e+002
1.436756e+003,1.371133e+002
1.437720e+003,1.350664e+002
1.438684e+003,1.348615e+002
1.439649e+003,1.356535e+002
1.440613e+003,1.376162e+002
1.441577e+003,1.399760e+002
1.442541e+003,1.415389e+002
1.443506e+003,1.419764e+002
1.444470e+003,1.412802e+002
1.445434e+003,1.391874e+002
1.446398e+003,1.373723e+002
1.447363e+003,1.382538e+002
1.448327e+003,1.410169e+002
1.449291e+003,1.441039e+002
1.450255e+003,1.475002e+002
1.451219e+003,1.498088e+002
1.452184e+003,1.498849e+002
1.453148e+003,1.489596e+002
1.454112e+003,1.488092e+002
1.455076e+003,1.491421e+002
1.456041e+003,1.479340e+002
1.457005e+003,1.443189e+002
1.457969e+003,1.419430e+002
1.458933e+003,1.429242e+002
1.459898e+003,1.450009e+002
1.460862e+003,1.477444e+002
1.461826e+003,1.500678e+002
1.462790e+003,1.497900e+002
1.463755e+003,1.471551e+002
1.464719e+003,1.456291e+002
1.465683e+003,1.478561e+002
1.466647e+003,1.521475e+002
1.467611e+003,1.546321e+002
1.468576e+003,1.550896e+002
1.469540e+003,1.548047e+002
1.470504e+003,1.529229e+002
1.471468e+003,1.518553e+002
1.472433e+003,1.519896e+002
1.473397e+003,1.528480e+002
1.474361e+003,1.546485e+002
1.475325e+003,1.567876e+002
1.476290e+003,1.583971e+002
1.477254e+003,1.592059e+002
1.478218e+003,1.595650e+002
1.479182e+003,1.598054e+002
1.480146e+003,1.599801e+002
1.481111e+003,1.600239e+002
1.482075e+003,1.598057e+002
1.483039e+003,1.600460e+002
1.484003e+003,1.612242e+002
1.484968e+003,1.619612e+002
1.485932e+003,1.614439e+002
1.486896e+003,1.611997e+002
1.487860e+003,1.631515e+002
1.488825e+003,1.659922e+002
1.489789e+003,1.666828e+002
1.490753e+003,1.645683e+002
1.491717e+003,1.612601e+002
1.492682e+003,1.572444e+002
1.493646e+003,1.536311e+002
1.494610e+003,1.522744e+002
1.495574e+003,1.528125e+002
1.496538e+003,1.547326e+002
1.497503e+003,1.582776e+002
1.498467e+003,1.615085e+002
1.499431e+003,1.633168e+002
1.500395e+003,1.642554e+002
1.501360e+003,1.651476e+002
1.502324e+003,1.660319e+002
1.503288e+003,1.663644e+002
1.504252e+003,1.657180e+002
1.505217e+003,1.655584e+002
1.506181e+003,1.675032e+002
1.507145e+003,1.691596e+002
1.508109e+003,1.683484e+002
1.509073e+003,1.661864e+002
1.510038e+003,1.640742e+002
1.511002e+003,1.624149e+002
1.511966e+003,1.619357e+002
1.512930e+003,1.634071e+002
1.513895e+003,1.652622e+002
1.514859e+003,1.641458e+002
1.515823e+003,1.599748e+002
1.516787e+003,1.576122e+002
1.517752e+003,1.576848e+002
1.518716e+003,1.587726e+002
1.519680e+003,1.620032e+002
1.520644e+003,1.642286e+002
1.521609e+003,1.629220e+002
1.522573e+003,1.605251e+002
1.523537e+003,1.607220e+002
1.524501e+003,1.631709e+002
1.525465e+003,1.640396e+002
1.526430e+003,1.610942e+002
1.527394e+003,1.566460e+002
1.528358e+003,1.544193e+002
1.529322e+003,1.543130e+002
1.530287e+003,1.539735e+002
1.531251e+003,1.530933e+002
1.532215e+003,1.528490e+002
1.533179e+003,1.534479e+002
1.534144e+003,1.542090e+002
1.535108e+003,1.552212e+002
1.536072e+003,1.559457e+002
1.537036e+003,1.558485e+002
1.538000e+003,1.550155e+002
1.538965e+003,1.536167e+002
1.539929e+003,1.517847e+002
1.540893e+003,1.502976e+002
1.541857e+003,1.502191e+002
1.542822e+003,1.511935e+002
1.543786e+003,1.510196e+002
1.544750e+003,1.487004e+002
1.545714e+003,1.482719e+002
1.546679e+003,1.519642e+002
1.547643e+003,1.542912e+002
1.548607e+003,1.528941e+002
1.549571e+003,1.501227e+002
1.550536e+003,1.475175e+002
1.551500e+003,1.453802e+002
1.552464e+003,1.442100e+002
1.553428e+003,1.442283e+002
1.554392e+003,1.448410e+002
1.555357e+003,1.456229e+002
1.556321e+003,1.459971e+002
1.557285e+003,1.447593e+002
1.558249e+003,1.421019e+002
1.559214e+003,1.401675e+002
1.560178e+003,1.389913e+002
1.561142e+003,1.386531e+002
1.562106e+003,1.402691e+002
1.563071e+003,1.413562e+002
1.564035e+003,1.391369e+002
1.564999e+003,1.351743e+002
1.565963e+003,1.329799e+002
1.566927e+003,1.330195e+002
1.567892e+003,1.333612e+002
1.568856e+003,1.330301e+002
1.569820e+003,1.327849e+002
1.570784e+003,1.340978e+002
1.571749e+003,1.358302e+002
1.572713e+003,1.352171e+002
1.573677e+003,1.323512e+002
1.574641e+003,1.290466e+002
1.575606e+003,1.253016e+002
1.576570e+003,1.220675e+002
1.577534e+003,1.202088e+002
1.578498e+003,1.195017e+002
1.579463e+003,1.198438e+002
1.580427e+003,1.210208e+002
1.581391e+003,1.211550e+002
1.582355e+003,1.194967e+002
1.583319e+003,1.178085e+002
1.584284e+003,1.176454e+002
1.585248e+003,1.178737e+002
1.586212e+003,1.167360e+002
1.587176e+003,1.145047e+002
1.588141e+003,1.123765e+002
1.589105e+003,1.107261e+002
1.590069e+003,1.093215e+002
1.591033e+003,1.078563e+002
1.591998e+003,1.065668e+002
1.592962e+003,1.059667e+002
1.593926e+003,1.058966e+002
1.594890e+003,1.056411e+002
1.595854e+003,1.052497e+002
1.596819e+003,1.044358e+002
1.597783e+003,1.028682e+002
1.598747e+003,1.009153e+002
1.599711e+003,9.828554e+001
1.600676e+003,9.579484e+001
1.601640e+003,9.479317e+001
1.602604e+003,9.511009e+001
1.603568e+003,9.547091e+001
1.604533e+003,9.536013e+001
1.605497e+003,9.458641e+001
1.606461e+003,9.257633e+001
1.607425e+003,9.000498e+001
1.608390e+003,8.896438e+001
1.609354e+003,8.959999e+001
1.610318e+003,8.967928e+001
1.611282e+003,8.859178e+001
1.612246e+003,8.708093e+001
1.613211e+003,8.541045e+001
1.614175e+003,8.350246e+001
1.615139e+003,8.093993e+001
1.616103e+003,7.842854e+001
1.617068e+003,7.700677e+001
1.618032e+003,7.679901e+001
1.618996e+003,7.757798e+001
1.619960e+003,7.940830e+001
1.620925e+003,8.062585e+001
1.621889e+003,7.822398e+001
1.622853e+003,7.306840e+001
1.623817e+003,7.046089e+001
1.624781e+003,7.092345e+001
1.625746e+003,7.140823e+001
1.626710e+003,7.171702e+001
1.627674e+003,7.103227e+001
1.628638e+003,6.795735e+001
1.629603e+003,6.449070e+001
1.630567e+003,6.216481e+001
1.631531e+003,6.091912e+001
1.632495e+003,6.058620e+001
1.633460e+003,6.099134e+001
1.634424e+003,6.108472e+001
1.635388e+003,5.995148e+001
1.636352e+003,5.836876e+001
1.637317e+003,5.811399e+001
1.638281e+003,5.900270e+001
1.639245e+003,5.807767e+001
1.640209e+003,5.459010e+001
1.641173e+003,5.186512e+001
1.642138e+003,5.119739e+001
1.643102e+003,5.093075e+001
1.644066e+003,5.030105e+001
1.645030e+003,4.953852e+001
1.645995e+003,4.888038e+001
1.646959e+003,4.827516e+001
1.647923e+003,4.749788e+001
1.648887e+003,4.651196e+001
1.649852e+003,4.567715e+001
1.650816e+003,4.535740e+001
1.651780e+003,4.520043e+001
1.652744e+003,4.441576e+001
1.653708e+003,4.302160e+001
1.654673e+003,4.185035e+001
1.655637e+003,4.111022e+001
1.656601e+003,3.992964e+001
1.657565e+003,3.733985e+001
1.658530e+003,3.529332e+001
1.659494e+003,3.571578e+001
1.660458e+003,3.651205e+001
1.661422e+003,3.478621e+001
1.662387e+003,3.142988e+001
1.663351e+003,2.986520e+001
1.664315e+003,3.119750e+001
1.665279e+003,3.296912e+001
1.666244e+003,3.328575e+001
1.667208e+003,3.247588e+001
1.668172e+003,3.083166e+001
1.669136e+003,2.841465e+001
1.670100e+003,2.658137e+001
1.671065e+003,2.539099e+001
1.672029e+003,2.499940e+001
1.672993e+003,2.637247e+001
1.673957e+003,2.740402e+001
1.674922e+003,2.599230e+001
1.675886e+003,2.398714e+001
1.676850e+003,2.385778e+001
1.677814e+003,2.506170e+001
1.678779e+003,2.515141e+001
1.679743e+003,2.336304e+001
1.680707e+003,2.110247e+001
1.681671e+003,1.912769e+001
1.682635e+003,1.769275e+001
1.683600e+003,1.747714e+001
1.684564e+003,1.831701e+001
1.685528e+003,1.905906e+001
1.686492e+003,1.957900e+001
1.687457e+003,1.939968e+001
1.688421e+003,1.791456e+001
1.689385e+003,1.667577e+001
1.690349e+003,1.776877e+001
1.691314e+003,1.925191e+001
1.692278e+003,1.860093e+001
1.693242e+003,1.618726e+001
1.694206e+003,1.378619e+001
1.695171e+003,1.178562e+001
1.696135e+003,1.028384e+001
1.697099e+003,9.390332e+000
1.698063e+003,8.966479e+000
1.699027e+003,8.844501e+000
1.699992e+003,9.075445e+000
1.700956e+003,9.956854e+000
1.701920e+003,1.146010e+001
1.702884e+003,1.249163e+001
1.703849e+003,1.271142e+001
1.704813e+003,1.213113e+001
1.705777e+003,1.029592e+001
1.706741e+003,8.144562e+000
1.707706e+003,7.490533e+000
1.708670e+003,7.908765e+000
1.709634e+003,7.490863e+000
1.710598e+003,5.767535e+000
1.711563e+003,4.601489e+000
1.712527e+003,5.226654e+000
1.713491e+003,6.193671e+000
1.714455e+003,6.228064e+000
1.715419e+003,5.893292e+000
1.716384e+003,6.328692e+000
1.717348e+003,7.385058e+000
1.718312e+003,7.848901e+000
1.719276e+003,7.332934e+000
1.720241e+003,6.341956e+000
1.721205e+003,5.106659e+000
1.722169e+003,3.991248e+000
1.723133e+003,3.750964e+000
1.724098e+003,4.259790e+000
1.725062e+003,4.085828e+000
1.726026e+003,3.008368e+000
1.726990e+003,1.996326e+000
1.727954e+003,1.259210e+000
1.728919e+003,5.381958e-001
1.729883e+003,-6.713074e-001
1.730847e+003,-1.556708e+000
1.731811e+003,-8.792602e-001
1.732776e+003,6.416565e-001
1.733740e+003,1.369287e+000
1.734704e+003,9.894165e-001
1.735668e+003,4.436035e-002
1.736633e+003,-1.149432e+000
1.737597e+003,-1.761371e+000
1.738561e+003,-4.979248e-001
1.739525e+003,2.015027e+000
1.740490e+003,2.599481e+000
1.741454e+003,5.147766e-001
1.742418e+003,-8.819885e-001
1.743382e+003,-1.226373e+000
1.744346e+003,-1.487097e+000
1.745311e+003,-2.110718e+000
1.746275e+003,-2.358661e+000
1.747239e+003,-1.303253e+000
1.748203e+003,9.355469e-002
1.749168e+003,7.251892e-001
1.750132e+003,4.940857e-001
1.751096e+003,-4.035462e-001
1.752060e+003,-1.777313e+000
1.753025e+003,-3.109747e+000
1.753989e+003,-3.909637e+000
1.754953e+003,-4.256162e+000
1.755917e+003,-4.313913e+000
1.756881e+003,-4.085126e+000
1.757846e+003,-3.826776e+000
1.758810e+003,-3.474545e+000
1.759774e+003,-3.134247e+000
1.760738e+003,-2.749023e+000
1.761703e+003,-2.614243e+000
1.762667e+003,-3.042783e+000
1.763631e+003,-3.542630e+000
1.764595e+003,-3.739780e+000
1.765560e+003,-3.663956e+000
1.766524e+003,-3.298733e+000
1.767488e+003,-2.799325e+000
1.768452e+003,-2.768121e+000
1.769417e+003,-3.513599e+000
1.770381e+003,-4.569522e+000
1.771345e+003,-5.590643e+000
1.772309e+003,-6.500153e+000
1.773273e+003,-7.172836e+000
1.774238e+003,-7.603686e+000
1.775202e+003,-7.350607e+000
1.776166e+003,-6.179690e+000
1.777130e+003,-5.555448e+000
1.778095e+003,-6.361773e+000
1.779059e+003,-7.131732e+000
1.780023e+003,-6.430435e+000
1.780987e+003,-5.073190e+000
1.781952e+003,-4.166901e+000
1.782916e+003,-3.836383e+000
1.783880e+003,-4.724881e+000
1.784844e+003,-7.262713e+000
1.785808e+003,-9.129934e+000
1.786773e+003,-9.220026e+000
1.787737e+003,-8.488220e+000
1.788701e+003,-7.127027e+000
1.789665e+003,-5.787820e+000
1.790630e+003,-5.419131e+000
1.791594e+003,-5.932675e+000
1.792558e+003,-7.012412e+000
1.793522e+003,-8.451337e+000
1.794487e+003,-9.271286e+000
1.795451e+003,-8.828665e+000
1.796415e+003,-7.604138e+000
1.797379e+003,-6.139709e+000
1.798344e+003,-4.684033e+000
1.799308e+003,-4.373422e+000
1.800272e+003,-5.707016e+000
1.801236e+003,-6.387900e+000
1.802201e+003,-5.905069e+000
1.803165e+003,-5.493994e+000
1.804129e+003,-5.198438e+000
1.805093e+003,-5.160379e+000
1.806057e+003,-5.707440e+000
1.807022e+003,-6.390207e+000
1.807986e+003,-6.761218e+000
1.808950e+003,-6.791181e+000
1.809914e+003,-6.447635e+000
1.810879e+003,-5.872931e+000
1.811843e+003,-5.753375e+000
1.812807e+003,-6.622613e+000
1.813771e+003,-7.830942e+000
1.814736e+003,-8.285764e+000
1.815700e+003,-8.125979e+000
1.816664e+003,-8.293015e+000
1.817628e+003,-8.857513e+000
1.818593e+003,-9.199313e+000
1.819557e+003,-9.230234e+000
1.820521e+003,-8.951471e+000
1.821485e+003,-8.000046e+000
1.822449e+003,-7.246552e+000
1.823414e+003,-7.733423e+000
1.824378e+003,-8.597931e+000
1.825342e+003,-8.708197e+000
1.826306e+003,-8.117566e+000
1.827271e+003,-7.185898e+000
1.828235e+003,-5.895737e+000
1.829199e+003,-5.374292e+000
1.830163e+003,-6.684854e+000
1.831128e+003,-8.337659e+000
1.832092e+003,-9.241089e+000
1.833056e+003,-9.590344e+000
1.834020e+003,-9.618067e+000
1.834984e+003,-9.401062e+000
1.835949e+003,-8.942856e+000
1.836913e+003,-8.263113e+000
1.837877e+003,-7.667978e+000
1.838841e+003,-7.345276e+000
1.839806e+003,-7.198431e+000
1.840770e+003,-7.113776e+000
1.841734e+003,-7.152960e+000
1.842698e+003,-7.486542e+000
1.843663e+003,-8.134485e+000
1.844627e+003,-8.469754e+000
1.845591e+003,-8.577978e+000
1.846555e+003,-8.265307e+000
1.847520e+003,-6.928870e+000
1.848484e+003,-6.035959e+000
1.849448e+003,-6.441956e+000
1.850412e+003,-7.116623e+000
1.851376e+003,-7.078799e+000
1.852341e+003,-6.766696e+000
1.853305e+003,-7.314346e+000
1.854269e+003,-8.573660e+000
1.855233e+003,-8.980942e+000
1.856198e+003,-7.828519e+000
1.857162e+003,-6.542920e+000
1.858126e+003,-6.651443e+000
1.859090e+003,-7.351825e+000
1.860055e+003,-7.004529e+000
1.861019e+003,-5.821231e+000
1.861983e+003,-4.654532e+000
1.862947e+003,-3.501056e+000
1.863911e+003,-3.595401e+000
1.864876e+003,-5.573834e+000
1.865840e+003,-7.101306e+000
1.866804e+003,-6.778589e+000
1.867768e+003,-5.677268e+000
1.868733e+003,-4.755350e+000
1.869697e+003,-4.128659e+000
1.870661e+003,-4.079627e+000
1.871625e+003,-4.601916e+000
1.872590e+003,-5.337204e+000
1.873554e+003,-6.560861e+000
1.874518e+003,-7.292480e+000
1.875482e+003,-7.015481e+000
1.876447e+003,-6.449378e+000
1.877411e+003,-5.394766e+000
1.878375e+003,-4.767105e+000
1.879339e+003,-6.625305e+000
1.880303e+003,-9.432226e+000
1.881268e+003,-9.289227e+000
1.882232e+003,-6.057818e+000
1.883196e+003,-3.547180e+000
1.884160e+003,-3.765713e+000
1.885125e+003,-4.716046e+000
1.886089e+003,-4.095709e+000
1.887053e+003,-2.825290e+000
1.888017e+003,-3.975320e+000
1.888982e+003,-7.598328e+000
1.889946e+003,-7.748340e+000
1.890910e+003,-3.375900e+000
1.891874e+003,-8.758179e-001
1.892839e+003,-2.112601e+000
1.893803e+003,-3.790445e+000
1.894767e+003,-4.644641e+000
1.895731e+003,-4.999234e+000
1.896695e+003,-4.998367e+000
1.897660e+003,-4.809958e+000
1.898624e+003,-4.627594e+000
1.899588e+003,-4.492938e+000
1.900552e+003,-4.696353e+000
1.901517e+003,-5.525812e+000
1.902481e+003,-5.922391e+000
1.903445e+003,-5.133777e+000
1.904409e+003,-4.122726e+000
1.905374e+003,-3.302374e+000
1.906338e+003,-2.727182e+000
1.907302e+003,-2.518460e+000
1.908266e+003,-2.679181e+000
1.909230e+003,-3.331909e+000
1.910195e+003,-4.297400e+000
1.911159e+003,-4.973587e+000
1.912123e+003,-5.059030e+000
1.913087e+003,-4.613028e+000
1.914052e+003,-3.676181e+000
1.915016e+003,-2.658258e+000
1.915980e+003,-2.361462e+000
1.916944e+003,-2.758707e+000
1.917909e+003,-3.760187e+000
1.918873e+003,-5.638107e+000
1.919837e+003,-6.267404e+000
1.920801e+003,-4.944491e+000
1.921766e+003,-3.776715e+000
1.922730e+003,-3.588809e+000
1.923694e+003,-3.665195e+000
1.924658e+003,-3.481186e+000
1.925622e+003,-3.239334e+000
1.926587e+003,-3.136081e+000
1.927551e+003,-3.171359e+000
1.928515e+003,-3.437268e+000
1.929479e+003,-3.973434e+000
1.930444e+003,-4.316040e+000
1.931408e+003,-4.185351e+000
1.932372e+003,-4.128100e+000
1.933336e+003,-4.956845e+000
1.934301e+003,-5.352982e+000
1.935265e+003,-3.671860e+000
1.936229e+003,-1.216562e+000
1.937193e+003,3.493896e-001
1.938157e+003,8.309265e-001
1.939122e+003,3.315155e-001
1.940086e+003,-8.807373e-001
1.941050e+003,-2.094360e+000
1.942014e+003,-2.881671e+000
1.942979e+003,-3.082913e+000
1.943943e+003,-2.346280e+000
1.944907e+003,-1.194882e+000
1.945871e+003,-1.272522e+000
1.946836e+003,-2.479065e+000
1.947800e+003,-3.198111e+000
1.948764e+003,-3.399298e+000
1.949728e+003,-3.439975e+000
1.950693e+003,-3.406952e+000
1.951657e+003,-3.189862e+000
1.952621e+003,-2.595828e+000
1.953585e+003,-1.940695e+000
1.954549e+003,-1.412564e+000
1.955514e+003,-1.145962e+000
1.956478e+003,-1.657791e+000
1.957442e+003,-2.863074e+000
1.958406e+003,-3.393838e+000
1.959371e+003,-3.142331e+000
1.960335e+003,-2.481986e+000
1.961299e+003,-5.924591e-001
1.962263e+003,5.198639e-001
1.963228e+003,-2.523346e-001
1.964192e+003,-1.598395e+000
1.965156e+003,-3.414993e+000
1.966120e+003,-4.666382e+000
1.967084e+003,-3.707065e+000
1.968049e+003,-1.260998e+000
1.969013e+003,7.623352e-001
1.969977e+003,1.779956e+000
1.970941e+003,2.168164e+000
1.971906e+003,2.117438e+000
1.972870e+003,1.969833e+000
1.973834e+003,2.111438e+000
1.974798e+003,2.391034e+000
1.975763e+003,2.715546e+000
1.976727e+003,2.854877e+000
1.977691e+003,1.814133e+000
1.978655e+003,-1.736939e-001
1.979620e+003,-1.202222e+000
1.980584e+003,-8.086548e-001
1.981548e+003,3.775421e-001
1.982512e+003,2.068286e+000
1.983476e+003,3.310547e+000
1.984441e+003,3.092480e+000
1.985405e+003,1.902087e+000
1.986369e+003,8.094543e-001
1.987333e+003,-1.389252e-001
1.988298e+003,-1.496277e-002
1.989262e+003,1.814679e+000
1.990226e+003,2.694229e+000
1.991190e+003,2.099042e+000
1.992155e+003,1.403372e+000
1.993119e+003,1.022662e+000
1.994083e+003,5.568908e-001
1.995047e+003,-5.888214e-001
1.996011e+003,-1.664462e+000
1.996976e+003,-1.660980e+000
1.997940e+003,-9.984253e-001
1.998904e+003,-8.702911e-001
1.999868e+003,-1.339600e+000
2.000833e+003,-1.141074e+000
2.001797e+003,4.187927e-001
2.002761e+003,1.609979e+000
2.003725e+003,1.359235e+000
2.004690e+003,1.021487e+000
2.005654e+003,1.365207e+000
2.006618e+003,2.140567e+000
2.007582e+003,3.822717e+000
2.008547e+003,5.318817e+000
2.009511e+003,4.353394e+000
2.010475e+003,1.483597e+000
2.011439e+003,-5.857025e-001
2.012403e+003,-8.848633e-001
2.013368e+003,-2.385803e-001
2.014332e+003,8.608581e-001
2.015296e+003,1.764066e+000
2.016260e+003,1.294574e+000
2.017225e+003,2.197571e-001
2.018189e+003,5.110718e-001
2.019153e+003,1.750317e+000
2.020117e+003,2.143594e+000
2.021082e+003,1.663974e+000
2.022046e+003,1.811133e+000
2.023010e+003,2.970651e+000
2.023974e+003,3.869495e+000
2.024938e+003,3.784265e+000
2.025903e+003,3.146814e+000
2.026867e+003,2.348483e+000
2.027831e+003,1.596152e+000
2.028795e+003,1.394952e+000
2.029760e+003,1.771802e+000
2.030724e+003,2.528583e+000
2.031688e+003,4.008795e+000
2.032652e+003,4.257422e+000
2.033617e+003,2.377814e+000
2.034581e+003,1.254532e+000
2.035545e+003,1.966037e+000
2.036509e+003,3.091766e+000
2.037474e+003,4.160065e+000
2.038438e+003,4.851941e+000
2.039402e+003,4.743994e+000
2.040366e+003,4.112439e+000
2.041330e+003,3.532813e+000
2.042295e+003,3.037494e+000
2.043259e+003,2.447388e+000
2.044223e+003,1.436130e+000
2.045187e+003,1.114157e+000
2.046152e+003,2.024194e+000
2.047116e+003,3.169656e+000
2.048080e+003,4.877844e+000
2.049044e+003,5.866327e+000
2.050009e+003,4.481915e+000
2.050973e+003,2.548236e+000
2.051937e+003,2.377899e+000
2.052901e+003,3.456516e+000
2.053865e+003,3.992441e+000
2.054830e+003,3.723740e+000
2.055794e+003,3.866721e+000
2.056758e+003,4.998596e+000
2.057722e+003,6.172705e+000
2.058687e+003,6.864032e+000
2.059651e+003,7.128222e+000
2.060615e+003,6.966803e+000
2.061579e+003,6.370105e+000
2.062544e+003,4.981397e+000
2.063508e+003,3.405524e+000
2.064472e+003,2.839679e+000
2.065436e+003,3.234500e+000
2.066401e+003,3.847824e+000
2.067365e+003,4.374878e+000
2.068329e+003,4.911176e+000
2.069293e+003,5.519073e+000
2.070258e+003,5.714746e+000
2.071222e+003,4.685516e+000
2.072186e+003,3.452033e+000
2.073150e+003,4.663800e+000
2.074115e+003,7.578619e+000
2.075079e+003,8.865033e+000
2.076043e+003,8.577698e+000
2.077007e+003,8.279608e+000
2.077971e+003,8.255603e+000
2.078936e+003,8.239050e+000
2.079900e+003,8.123096e+000
2.080864e+003,7.373883e+000
2.081828e+003,5.509992e+000
2.082792e+003,3.796185e+000
2.083757e+003,4.061859e+000
2.084721e+003,5.782855e+000
2.085685e+003,7.298804e+000
2.086649e+003,8.669421e+000
2.087614e+003,8.622009e+000
2.088578e+003,6.698316e+000
2.089542e+003,5.686877e+000
2.090506e+003,6.181098e+000
2.091471e+003,6.441754e+000
2.092435e+003,5.864661e+000
2.093399e+003,5.089020e+000
2.094363e+003,4.366760e+000
2.095328e+003,3.919638e+000
2.096292e+003,4.100739e+000
2.097256e+003,4.697058e+000
2.098220e+003,5.013733e+000
2.099185e+003,5.011645e+000
2.100149e+003,5.717126e+000
2.101113e+003,8.086255e+000
2.102077e+003,9.294916e+000
2.103042e+003,8.927167e+000
2.104006e+003,7.881604e+000
2.104970e+003,5.299530e+000
2.105934e+003,3.357806e+000
2.106898e+003,3.848822e+000
2.107863e+003,4.987287e+000
2.108827e+003,4.961514e+000
2.109791e+003,4.194669e+000
2.110755e+003,3.380307e+000
2.111719e+003,2.649512e+000
2.112684e+003,3.462018e+000
2.113648e+003,7.167267e+000
2.114612e+003,9.133801e+000
2.115576e+003,6.740259e+000
2.116541e+003,4.738400e+000
2.117505e+003,5.284461e+000
2.118469e+003,6.214068e+000
2.119433e+003,6.230658e+000
2.120398e+003,5.891205e+000
2.121362e+003,5.735980e+000
2.122326e+003,5.725909e+000
2.123290e+003,5.697845e+000
2.124255e+003,5.667914e+000
2.125219e+003,5.803137e+000
2.126183e+003,6.158136e+000
2.127147e+003,6.359796e+000
2.128112e+003,6.110266e+000
2.129076e+003,5.942010e+000
2.130040e+003,6.207007e+000
2.131004e+003,6.549939e+000
2.131969e+003,6.919470e+000
2.132933e+003,6.969238e+000
2.133897e+003,5.965552e+000
2.134861e+003,4.640161e+000
2.135825e+003,4.379779e+000
2.136790e+003,5.065598e+000
2.137754e+003,5.646960e+000
2.138718e+003,5.749414e+000
2.139682e+003,5.258011e+000
2.140646e+003,3.831522e+000
2.141611e+003,2.830447e+000
2.142575e+003,3.904526e+000
2.143539e+003,5.305194e+000
2.144503e+003,5.329034e+000
2.145468e+003,4.634229e+000
2.146432e+003,3.866348e+000
2.147396e+003,3.210089e+000
2.148360e+003,2.710162e+000
2.149325e+003,2.508710e+000
2.150289e+003,3.245123e+000
2.151253e+003,4.820273e+000
2.152217e+003,5.634439e+000
2.153182e+003,4.785602e+000
2.154146e+003,3.764685e+000
2.155110e+003,4.224609e+000
2.156074e+003,4.852078e+000
2.157039e+003,3.539139e+000
2.158003e+003,1.481396e+000
2.158967e+003,5.060211e-001
2.159931e+003,5.193939e-001
2.160896e+003,1.389410e+000
2.161860e+003,2.692462e+000
2.162824e+003,3.459930e+000
2.163788e+003,3.461151e+000
2.164752e+003,2.934952e+000
2.165717e+003,2.063602e+000
2.166681e+003,1.366864e+000
2.167645e+003,1.285812e+000
2.168609e+003,1.644275e+000
2.169573e+003,2.489261e+000
2.170538e+003,3.448819e+000
2.171502e+003,3.948431e+000
2.172466e+003,3.836240e+000
2.173430e+003,2.352338e+000
2.174395e+003,7.887268e-002
2.175359e+003,-9.980072e-001
2.176323e+003,-6.852447e-001
2.177287e+003,-9.372558e-002
2.178252e+003,2.378296e-001
2.179216e+003,9.767151e-002
2.180180e+003,-6.632202e-001
2.181144e+003,-1.303982e+000
2.182109e+003,-8.011902e-001
2.183073e+003,1.314728e-001
2.184037e+003,2.460327e-001
2.185001e+003,-3.242249e-001
2.185966e+003,-1.796112e+000
2.186930e+003,-3.492108e+000
2.187894e+003,-2.922314e+000
2.188858e+003,-4.150909e-001
2.189823e+003,9.594757e-001
2.190787e+003,3.926483e-001
2.191751e+003,-5.373352e-001
2.192715e+003,-9.177063e-001
2.193679e+003,-1.277383e+000
2.194644e+003,-2.197302e+000
2.195608e+003,-3.149860e+000
2.196572e+003,-3.163245e+000
2.197536e+003,-2.618912e+000
2.198500e+003,-2.494675e+000
2.199465e+003,-2.571796e+000
2.200429e+003,-2.084708e+000
2.201393e+003,-1.193640e+000
2.202357e+003,-8.591186e-001
2.203322e+003,-1.105042e+000
2.204286e+003,-8.322144e-001
2.205250e+003,2.790680e-001
2.206214e+003,1.140436e+000
2.207179e+003,1.011716e+000
2.208143e+003,3.119263e-001
2.209107e+003,-5.649384e-001
2.210071e+003,-1.482559e+000
2.211036e+003,-2.310913e+000
2.212000e+003,-2.938089e+000
2.212964e+003,-2.984314e+000
2.213928e+003,-2.627502e+000
2.214893e+003,-2.189780e+000
2.215857e+003,-1.831696e+000
2.216821e+003,-2.260712e+000
2.217785e+003,-3.386295e+000
2.218750e+003,-3.624960e+000
2.219714e+003,-2.341025e+000
2.220678e+003,-1.016177e+000
2.221642e+003,-8.199981e-001
2.222606e+003,-1.150034e+000
2.223571e+003,-1.365421e+000
2.224535e+003,-1.491241e+000
2.225499e+003,-1.548926e+000
2.226463e+003,-1.537448e+000
2.227427e+003,-1.406101e+000
2.228392e+003,-1.221197e+000
2.229356e+003,-1.175348e+000
2.230320e+003,-1.239044e+000
2.231284e+003,-1.181558e+000
2.232249e+003,-9.875549e-001
2.233213e+003,-9.465515e-001
2.234177e+003,-1.188132e+000
2.235141e+003,-1.439188e+000
2.236106e+003,-1.502600e+000
2.237070e+003,-1.332947e+000
2.238034e+003,-5.805084e-001
2.238998e+003,1.244843e-001
2.239963e+003,-2.759735e-001
2.240927e+003,-1.203955e+000
2.241891e+003,-1.722913e+000
2.242855e+003,-1.853461e+000
2.243820e+003,-1.605759e+000
2.244784e+003,-1.330118e+000
2.245748e+003,-2.345813e+000
2.246712e+003,-4.621683e+000
2.247677e+003,-5.504495e+000
2.248641e+003,-3.534112e+000
2.249605e+003,-1.228207e+000
2.250569e+003,-3.593048e-001
2.251533e+003,-3.591370e-001
2.252498e+003,-1.403845e+000
2.253462e+003,-2.362537e+000
2.254426e+003,-1.476620e+000
2.255390e+003,-1.689606e-001
2.256354e+003,-6.660401e-001
2.257319e+003,-2.191141e+000
2.258283e+003,-2.816479e+000
2.259247e+003,-2.591147e+000
2.260211e+003,-2.970694e+000
2.261176e+003,-4.256131e+000
2.262140e+003,-5.243536e+000
2.263104e+003,-5.439880e+000
2.264068e+003,-5.177338e+000
2.265033e+003,-4.262015e+000
2.265997e+003,-3.449487e+000
2.266961e+003,-3.237909e+000
2.267925e+003,-3.266333e+000
2.268890e+003,-3.348523e+000
2.269854e+003,-3.428320e+000
2.270818e+003,-3.341220e+000
2.271782e+003,-3.281021e+000
2.272747e+003,-3.784723e+000
2.273711e+003,-4.618265e+000
2.274675e+003,-4.730472e+000
2.275639e+003,-3.911111e+000
2.276604e+003,-3.258035e+000
2.277568e+003,-3.145917e+000
2.278532e+003,-2.994873e+000
2.279496e+003,-2.091525e+000
2.280460e+003,-2.022446e+000
2.281425e+003,-4.574234e+000
2.282389e+003,-6.637854e+000
2.283353e+003,-5.792514e+000
2.284317e+003,-4.145587e+000
2.285281e+003,-3.685968e+000
2.286246e+003,-3.863611e+000
2.287210e+003,-3.581378e+000
2.288174e+003,-2.926770e+000
2.289138e+003,-2.617242e+000
2.290103e+003,-2.758902e+000
2.291067e+003,-2.759244e+000
2.292031e+003,-1.750406e+000
2.292995e+003,-2.342612e+000
2.293960e+003,-6.513034e+000
2.294924e+003,-8.758108e+000
2.295888e+003,-6.770413e+000
2.296852e+003,-4.544223e+000
2.297817e+003,-4.059494e+000
2.298781e+003,-3.974805e+000
2.299745e+003,-2.964758e+000
2.300709e+003,-1.739441e+000
2.301674e+003,-1.500378e+000
2.302638e+003,-2.228790e+000
2.303602e+003,-3.900229e+000
2.304566e+003,-6.697546e+000
2.305531e+003,-7.841596e+000
2.306495e+003,-7.067929e+000
2.307459e+003,-6.470563e+000
2.308423e+003,-6.323434e+000
2.309387e+003,-5.568552e+000
2.310352e+003,-3.841135e+000
2.311316e+003,-2.934793e+000
2.312280e+003,-3.758615e+000
2.313244e+003,-4.638104e+000
2.314208e+003,-4.183374e+000
2.315173e+003,-3.096701e+000
2.316137e+003,-2.176102e+000
2.317101e+003,-1.894955e+000
2.318065e+003,-4.344693e+000
2.319030e+003,-8.368479e+000
2.319994e+003,-9.056223e+000
2.320958e+003,-7.094284e+000
2.321922e+003,-5.157403e+000
2.322887e+003,-3.663177e+000
2.323851e+003,-2.817981e+000
2.324815e+003,-2.619302e+000
2.325779e+003,-2.947488e+000
2.326744e+003,-3.649860e+000
2.327708e+003,-4.126962e+000
2.328672e+003,-3.992593e+000
2.329636e+003,-4.212372e+000
2.330601e+003,-6.271722e+000
2.331565e+003,-8.111380e+000
2.332529e+003,-6.884866e+000
2.333493e+003,-4.694162e+000
2.334458e+003,-3.894318e+000
2.335422e+003,-3.850052e+000
2.336386e+003,-3.684039e+000
2.337350e+003,-3.343933e+000
2.338314e+003,-2.658606e+000
2.339279e+003,-2.029370e+000
2.340243e+003,-2.894049e+000
2.341207e+003,-5.196612e+000
2.342171e+003,-5.981995e+000
2.343135e+003,-3.849255e+000
2.344100e+003,-2.482077e+000
2.345064e+003,-3.934735e+000
2.346028e+003,-5.346124e+000
2.346992e+003,-5.699918e+000
2.347957e+003,-5.795011e+000
2.348921e+003,-5.974103e+000
2.349885e+003,-6.107959e+000
2.350849e+003,-6.127271e+000
2.351814e+003,-6.057874e+000
2.352778e+003,-5.891110e+000
2.353742e+003,-5.647134e+000
2.354706e+003,-5.286658e+000
2.355671e+003,-4.818881e+000
2.356635e+003,-4.767978e+000
2.357599e+003,-5.308890e+000
2.358563e+003,-5.530210e+000
2.359528e+003,-5.109079e+000
2.360492e+003,-5.677649e+000
2.361456e+003,-7.919904e+000
2.362420e+003,-8.948889e+000
2.363385e+003,-7.751187e+000
2.364349e+003,-5.999847e+000
2.365313e+003,-4.459262e+000
2.366277e+003,-3.486182e+000
2.367241e+003,-3.441550e+000
2.368206e+003,-4.035480e+000
2.369170e+003,-4.904831e+000
2.370134e+003,-5.769269e+000
2.371098e+003,-5.743866e+000
2.372063e+003,-4.993371e+000
2.373027e+003,-3.875885e+000
2.373991e+003,-2.642151e+000
2.374955e+003,-2.595187e+000
2.375919e+003,-3.408649e+000
2.376884e+003,-3.288913e+000
2.377848e+003,-2.144135e+000
2.378812e+003,-1.156387e+000
2.379776e+003,-8.284607e-001
2.380741e+003,-1.386612e+000
2.381705e+003,-2.984998e+000
2.382669e+003,-4.544333e+000
2.383633e+003,-5.553348e+000
2.384598e+003,-5.681247e+000
2.385562e+003,-3.798129e+000
2.386526e+003,-2.034348e+000
2.387490e+003,-2.500378e+000
2.388455e+003,-3.476599e+000
2.389419e+003,-2.724881e+000
2.390383e+003,-1.817545e+000
2.391347e+003,-3.779047e+000
2.392312e+003,-7.114648e+000
2.393276e+003,-7.943643e+000
2.394240e+003,-6.230609e+000
2.395204e+003,-4.796555e+000
2.396168e+003,-3.889984e+000
2.397133e+003,-3.375540e+000
2.398097e+003,-3.604928e+000
2.399061e+003,-3.526718e+000
2.400025e+003,-2.584628e+000
2.400990e+003,-2.531012e+000
2.401954e+003,-4.365644e+000
2.402918e+003,-5.600900e+000
2.403882e+003,-4.956427e+000
2.404846e+003,-3.699866e+000
2.405811e+003,-2.723038e+000
2.406775e+003,-2.179456e+000
2.407739e+003,-2.383527e+000
2.408703e+003,-3.010876e+000
2.409668e+003,-3.071753e+000
2.410632e+003,-2.722513e+000
2.411596e+003,-2.846436e+000
2.412560e+003,-3.383606e+000
2.413525e+003,-4.154465e+000
2.414489e+003,-4.979089e+000
2.415453e+003,-5.201416e+000
2.416417e+003,-4.864630e+000
2.417382e+003,-4.568671e+000
2.418346e+003,-4.538043e+000
2.419310e+003,-4.905103e+000
2.420274e+003,-5.661120e+000
2.421239e+003,-5.767328e+000
2.422203e+003,-4.334857e+000
2.423167e+003,-2.864682e+000
2.424131e+003,-2.325366e+000
2.425095e+003,-2.237979e+000
2.426060e+003,-2.506610e+000
2.427024e+003,-2.854675e+000
2.427988e+003,-3.348733e+000
2.428952e+003,-3.572037e+000
2.429917e+003,-2.804971e+000
2.430881e+003,-1.696994e+000
2.431845e+003,-1.191278e+000
2.432809e+003,-1.285797e+000
2.433773e+003,-1.714780e+000
2.434738e+003,-2.459817e+000
2.435702e+003,-3.456302e+000
2.436666e+003,-5.220792e+000
2.437630e+003,-5.164572e+000
2.438595e+003,-2.668640e+000
2.439559e+003,-1.211246e+000
2.440523e+003,-1.339523e+000
2.441487e+003,-1.495721e+000
2.442452e+003,-1.259409e+000
2.443416e+003,-8.314301e-001
2.444380e+003,-3.039917e-001
2.445344e+003,-3.902954e-001
2.446309e+003,-1.753824e+000
2.447273e+003,-2.465192e+000
2.448237e+003,4.479248e-001
2.449201e+003,4.443234e+000
2.450166e+003,5.804568e+000
2.451130e+003,5.053592e+000
2.452094e+003,1.622961e+000
2.453058e+003,-2.317578e+000
2.454022e+003,-3.094266e+000
2.454987e+003,-2.108398e+000
2.455951e+003,-2.273520e+000
2.456915e+003,-3.430533e+000
2.457879e+003,-4.055509e+000
2.458844e+003,-3.934378e+000
2.459808e+003,-3.750790e+000
2.460772e+003,-3.680423e+000
2.461736e+003,-3.517456e+000
2.462700e+003,-3.477142e+000
2.463665e+003,-2.970917e+000
2.464629e+003,-1.096481e+000
2.465593e+003,-3.923645e-002
2.466557e+003,-4.496613e-001
2.467522e+003,-1.374249e+000
2.468486e+003,-2.653381e+000
2.469450e+003,-3.661130e+000
2.470414e+003,-3.920215e+000
2.471379e+003,-3.786389e+000
2.472343e+003,-3.697028e+000
2.473307e+003,-3.563309e+000
2.474271e+003,-3.165241e+000
2.475236e+003,-2.566324e+000
2.476200e+003,-1.785089e+000
2.477164e+003,-1.055548e+000
2.478128e+003,-1.234894e+000
2.479093e+003,-1.996194e+000
2.480057e+003,-2.677750e+000
2.481021e+003,-3.030682e+000
2.481985e+003,-2.540280e+000
2.482949e+003,-1.395944e+000
2.483914e+003,-1.717560e-001
2.484878e+003,7.468628e-001
2.485842e+003,-1.655579e-001
2.486806e+003,-4.078293e+000
2.487771e+003,-6.273117e+000
2.488735e+003,-3.823846e+000
2.489699e+003,-1.372812e+000
2.490663e+003,8.473633e-001
2.491627e+003,1.358533e+000
2.492592e+003,-1.851968e+000
2.493556e+003,-4.507004e+000
2.494520e+003,-4.325964e+000
2.495484e+003,-3.318167e+000
2.496449e+003,-3.053003e+000
2.497413e+003,-3.243634e+000
2.498377e+003,-3.563269e+000
2.499341e+003,-3.637048e+000
2.500306e+003,-2.154205e+000
2.501270e+003,2.940033e-001
2.502234e+003,8.143280e-001
2.503198e+003,-1.671448e-001
2.504163e+003,-1.693246e+000
2.505127e+003,-3.203861e+000
2.506091e+003,-2.963217e+000
2.507055e+003,-1.469293e+000
2.508020e+003,-6.638916e-001
2.508984e+003,-8.103698e-001
2.509948e+003,-1.254327e+000
2.510912e+003,-1.709201e+000
2.511876e+003,-1.374512e+000
2.512841e+003,3.902405e-001
2.513805e+003,1.632779e+000
2.514769e+003,1.279617e+000
2.515733e+003,9.749542e-001
2.516698e+003,1.582877e+000
2.517662e+003,1.538629e+000
2.518626e+003,-2.742432e-001
2.519590e+003,-1.502704e+000
2.520554e+003,-7.857056e-001
2.521519e+003,5.067352e-001
2.522483e+003,1.324335e+000
2.523447e+003,1.512628e+000
2.524411e+003,7.603607e-001
2.525376e+003,-3.339661e-001
2.526340e+003,-1.391602e-001
2.527304e+003,7.561828e-001
2.528268e+003,5.380462e-001
2.529233e+003,-4.549591e-001
2.530197e+003,-2.107400e+000
2.531161e+003,-3.513315e+000
2.532125e+003,-2.263711e+000
2.533090e+003,5.364715e-001
2.534054e+003,1.786096e+000
2.535018e+003,1.335605e+000
2.535982e+003,9.265686e-001
2.536947e+003,9.658386e-001
2.537911e+003,1.000000e+000
2.538875e+003,7.740418e-001
2.539839e+003,9.640442e-001
2.540803e+003,2.138705e+000
2.541768e+003,2.860693e+000
2.542732e+003,2.841061e+000
2.543696e+003,2.729047e+000
2.544660e+003,2.751331e+000
2.545625e+003,2.604779e+000
2.546589e+003,2.101807e+000
2.547553e+003,1.874756e+000
2.548517e+003,2.419522e+000
2.549482e+003,2.852228e+000
2.550446e+003,2.029495e+000
2.551410e+003,1.091583e+000
2.552374e+003,2.310672e+000
2.553339e+003,4.026145e+000
2.554303e+003,3.814398e+000
2.555267e+003,2.652564e+000
2.556231e+003,1.532162e+000
2.557196e+003,4.944855e-001
2.558160e+003,-9.413757e-001
2.559124e+003,-2.100623e+000
2.560088e+003,-1.421790e+000
2.561052e+003,5.170593e-001
2.562017e+003,1.323865e+000
2.562981e+003,8.958435e-001
2.563945e+003,1.009515e+000
2.564909e+003,1.908539e+000
2.565874e+003,1.779691e+000
2.566838e+003,3.480743e-001
2.567802e+003,4.723786e-001
2.568766e+003,2.402643e+000
2.569730e+003,3.755344e+000
2.570695e+003,4.022494e+000
2.571659e+003,3.336249e+000
2.572623e+003,1.975147e+000
2.573587e+003,1.565250e+000
2.574552e+003,2.907550e+000
2.575516e+003,3.978793e+000
2.576480e+003,3.379065e+000
2.577444e+003,2.208499e+000
2.578409e+003,4.557190e-001
2.579373e+003,-7.488098e-001
2.580337e+003,-6.195801e-001
2.581301e+003,1.366699e-001
2.582266e+003,2.161996e+000
2.583230e+003,3.398193e+000
2.584194e+003,1.680734e+000
2.585158e+003,-2.328796e-001
2.586123e+003,6.577423e-001
2.587087e+003,2.427307e+000
2.588051e+003,1.646716e+000
2.589015e+003,-4.805633e-001
2.589979e+003,1.525330e-001
2.590944e+003,2.537479e+000
2.591908e+003,2.505914e+000
2.592872e+003,1.044156e+000
2.593836e+003,4.727142e-001
2.594801e+003,7.196686e-001
2.595765e+003,1.384915e+000
2.596729e+003,2.198764e+000
2.597693e+003,2.815491e+000
2.598657e+003,3.205273e+000
2.599622e+003,3.475034e+000
2.600586e+003,3.648795e+000
2.601550e+003,4.065179e+000
2.602514e+003,5.276917e+000
2.603479e+003,5.021369e+000
2.604443e+003,2.476419e+000
2.605407e+003,9.772186e-001
2.606371e+003,9.932190e-001
2.607336e+003,1.157343e+000
2.608300e+003,1.165949e+000
2.609264e+003,9.164734e-001
2.610228e+003,3.836884e-001
2.611193e+003,-1.247162e-001
2.612157e+003,-3.950012e-001
2.613121e+003,-4.430847e-002
2.614085e+003,1.401688e+000
2.615050e+003,2.752109e+000
2.616014e+003,2.961999e+000
2.616978e+003,2.751727e+000
2.617942e+003,2.410974e+000
2.618906e+003,2.108069e+000
2.619871e+003,2.139502e+000
2.620835e+003,1.976871e+000
2.621799e+003,8.709015e-001
2.622763e+003,-1.129395e-001
2.623728e+003,1.355042e-001
2.624692e+003,8.990418e-001
2.625656e+003,1.045248e+000
2.626620e+003,7.637542e-001
2.627584e+003,4.522247e-001
2.628549e+003,2.269104e-001
2.629513e+003,8.454345e-001
2.630477e+003,1.644849e+000
2.631441e+003,3.730804e-001
2.632406e+003,-1.367285e+000
2.633370e+003,4.489990e-001
2.634334e+003,3.927283e+000
2.635298e+003,4.405008e+000
2.636263e+003,2.312521e+000
2.637227e+003,9.476776e-001
2.638191e+003,7.501038e-001
2.639155e+003,9.447601e-001
2.640120e+003,1.645712e+000
2.641084e+003,1.650964e+000
2.642048e+003,6.739258e-001
2.643012e+003,5.694550e-001
2.643977e+003,1.490891e+000
2.644941e+003,2.410458e+000
2.645905e+003,3.059872e+000
2.646869e+003,2.784781e+000
2.647833e+003,1.603226e+000
2.648798e+003,8.368133e-001
2.649762e+003,9.660705e-001
2.650726e+003,7.888977e-001
2.651690e+003,-5.276428e-001
2.652655e+003,-1.099774e+000
2.653619e+003,4.047790e-001
2.654583e+003,2.089606e+000
2.655547e+003,3.947549e+000
2.656511e+003,5.073285e+000
2.657476e+003,5.116724e+000
2.658440e+003,4.488092e+000
2.659404e+003,3.177029e+000
2.660368e+003,2.279788e+000
2.661333e+003,2.564136e+000
2.662297e+003,3.080063e+000
2.663261e+003,2.866074e+000
2.664225e+003,2.402679e+000
2.665190e+003,2.334219e+000
2.666154e+003,2.362411e+000
2.667118e+003,1.767142e+000
2.668082e+003,1.608136e+000
2.669047e+003,3.747189e+000
2.670011e+003,5.717074e+000
2.670975e+003,4.708377e+000
2.671939e+003,2.830350e+000
2.672904e+003,2.364133e+000
2.673868e+003,2.869165e+000
2.674832e+003,3.909589e+000
2.675796e+003,4.972949e+000
2.676760e+003,4.667422e+000
2.677725e+003,3.331857e+000
2.678689e+003,2.094690e+000
2.679653e+003,1.189542e+000
2.680617e+003,1.581891e+000
2.681582e+003,2.572562e+000
2.682546e+003,3.080395e+000
2.683510e+003,2.890008e+000
2.684474e+003,9.033478e-001
2.685438e+003,-1.547238e+000
2.686403e+003,-5.521210e-001
2.687367e+003,3.409854e+000
2.688331e+003,4.347208e+000
2.689295e+003,2.019504e+000
2.690260e+003,2.744513e+000
2.691224e+003,7.194324e+000
2.692188e+003,8.017883e+000
2.693152e+003,5.295532e+000
2.694117e+003,4.397025e+000
2.695081e+003,5.387329e+000
2.696045e+003,5.070105e+000
2.697009e+003,3.145676e+000
2.697974e+003,9.525086e-001
2.698938e+003,-8.333740e-001
2.699902e+003,-9.720795e-001
2.700866e+003,1.061969e+000
2.701831e+003,2.467993e+000
2.702795e+003,2.012854e+000
2.703759e+003,1.819769e+000
2.704723e+003,1.923080e+000
2.705688e+003,2.817664e+000
2.706652e+003,4.811325e+000
2.707616e+003,5.497336e+000
2.708580e+003,4.315204e+000
2.709544e+003,2.540341e+000
2.710509e+003,8.465179e-001
2.711473e+003,3.112549e-001
2.712437e+003,1.495056e+000
2.713401e+003,2.864490e+000
2.714365e+003,3.633478e+000
2.715330e+003,3.816354e+000
2.716294e+003,3.275177e+000
2.717258e+003,2.378848e+000
2.718222e+003,2.707611e-001
2.719187e+003,-5.041534e-001
2.720151e+003,1.268500e+000
2.721115e+003,3.250992e+000
2.722079e+003,4.355676e+000
2.723044e+003,4.711075e+000
2.724008e+003,4.396899e+000
2.724972e+003,3.796161e+000
2.725936e+003,3.191470e+000
2.726901e+003,2.981570e+000
2.727865e+003,4.144437e+000
2.728829e+003,5.218973e+000
2.729793e+003,5.064633e+000
2.730758e+003,4.284574e+000
2.731722e+003,2.861337e+000
2.732686e+003,1.447122e+000
2.733650e+003,1.477325e-001
2.734615e+003,-2.560944e-001
2.735579e+003,1.124420e+000
2.736543e+003,2.863937e+000
2.737507e+003,3.008456e+000
2.738471e+003,2.461258e+000
2.739436e+003,2.891754e+000
2.740400e+003,3.771622e+000
2.741364e+003,4.760526e+000
2.742328e+003,5.100470e+000
2.743292e+003,3.034714e+000
2.744257e+003,7.088043e-001
2.745221e+003,4.681732e-001
2.746185e+003,1.359760e+000
2.747149e+003,2.282059e+000
2.748114e+003,3.039618e+000
2.749078e+003,3.339697e+000
2.750042e+003,3.466635e+000
2.751006e+003,4.191263e+000
2.751971e+003,5.228043e+000
2.752935e+003,5.700357e+000
2.753899e+003,5.667087e+000
2.754863e+003,5.014422e+000
2.755828e+003,4.181894e+000
2.756792e+003,3.748773e+000
2.757756e+003,3.659308e+000
2.758720e+003,3.696475e+000
2.759685e+003,3.946988e+000
2.760649e+003,5.267041e+000
2.761613e+003,6.704077e+000
2.762577e+003,4.775909e+000
2.763542e+003,3.318817e-001
2.764506e+003,6.124756e-001
2.765470e+003,4.477857e+000
2.766434e+003,6.119238e+000
2.767398e+003,5.949725e+000
2.768363e+003,4.959122e+000
2.769327e+003,3.624551e+000
2.770291e+003,2.334430e+000
2.771255e+003,1.464615e+000
2.772219e+003,1.836691e+000
2.773184e+003,3.145035e+000
2.774148e+003,3.706048e+000
2.775112e+003,3.516162e+000
2.776076e+003,3.170254e+000
2.777041e+003,2.673636e+000
2.778005e+003,2.913589e+000
2.778969e+003,3.773679e+000
2.779933e+003,5.092523e+000
2.780898e+003,6.236060e+000
2.781862e+003,5.151083e+000
2.782826e+003,2.561285e+000
2.783790e+003,5.964996e-001
2.784755e+003,-2.263275e-001
2.785719e+003,5.483429e-001
2.786683e+003,2.948901e+000
2.787647e+003,4.055280e+000
2.788612e+003,3.688303e+000
2.789576e+003,2.910764e+000
2.790540e+003,1.809326e+000
2.791504e+003,3.083511e+000
2.792469e+003,6.058173e+000
2.793433e+003,6.604596e+000
2.794397e+003,5.038925e+000
2.795361e+003,4.468478e+000
2.796325e+003,5.069803e+000
2.797290e+003,4.776389e+000
2.798254e+003,3.307178e+000
2.799218e+003,2.644745e+000
2.800182e+003,3.020392e+000
2.801146e+003,3.518341e+000
2.802111e+003,4.160965e+000
2.803075e+003,5.662976e+000
2.804039e+003,7.773468e+000
2.805003e+003,8.366949e+000
2.805968e+003,7.400702e+000
2.806932e+003,5.730329e+000
2.807896e+003,4.111514e+000
2.808860e+003,4.110507e+000
2.809825e+003,5.706720e+000
2.810789e+003,6.082282e+000
2.811753e+003,4.379150e+000
2.812717e+003,3.373019e+000
2.813682e+003,3.104358e+000
2.814646e+003,3.586066e+000
2.815610e+003,4.800803e+000
2.816574e+003,5.587030e+000
2.817539e+003,5.857678e+000
2.818503e+003,5.919074e+000
2.819467e+003,5.812781e+000
2.820431e+003,5.521844e+000
2.821396e+003,5.095679e+000
2.822360e+003,4.469394e+000
2.823324e+003,3.550705e+000
2.824288e+003,3.487222e+000
2.825252e+003,4.764932e+000
2.826217e+003,4.758405e+000
2.827181e+003,3.432150e+000
2.828145e+003,3.755920e+000
2.829109e+003,5.491961e+000
2.830073e+003,5.800092e+000
2.831038e+003,4.599741e+000
2.832002e+003,3.223041e+000
2.832966e+003,2.251636e+000
2.833930e+003,2.360538e+000
2.834895e+003,3.693600e+000
2.835859e+003,5.624640e+000
2.836823e+003,8.618555e+000
2.837787e+003,9.171509e+000
2.838752e+003,7.163538e+000
2.839716e+003,4.826990e+000
2.840680e+003,2.561563e+000
2.841644e+003,1.932758e+000
2.842609e+003,2.621744e+000
2.843573e+003,2.942453e+000
2.844537e+003,2.693042e+000
2.845501e+003,2.455804e+000
2.846466e+003,2.380209e+000
2.847430e+003,3.018057e+000
2.848394e+003,4.606070e+000
2.849358e+003,4.845456e+000
2.850323e+003,3.653589e+000
2.851287e+003,3.359314e+000
2.852251e+003,3.814111e+000
2.853215e+003,3.240640e+000
2.854179e+003,2.090149e+000
2.855144e+003,2.726224e+000
2.856108e+003,4.640384e+000
2.857072e+003,5.033109e+000
2.858036e+003,3.714041e+000
2.859000e+003,2.926318e+000
2.859965e+003,2.826242e+000
2.860929e+003,3.246845e+000
2.861893e+003,4.162375e+000
2.862857e+003,5.003195e+000
2.863822e+003,5.718439e+000
2.864786e+003,5.758496e+000
2.865750e+003,5.303128e+000
2.866714e+003,4.913718e+000
2.867679e+003,4.564633e+000
2.868643e+003,3.951999e+000
2.869607e+003,3.201382e+000
2.870571e+003,2.651175e+000
2.871536e+003,2.423898e+000
2.872500e+003,3.922702e+000
2.873464e+003,6.947253e+000
2.874428e+003,7.242944e+000
2.875393e+003,5.714539e+000
2.876357e+003,5.629456e+000
2.877321e+003,6.234985e+000
2.878285e+003,4.846246e+000
2.879250e+003,2.706177e+000
2.880214e+003,3.453156e+000
2.881178e+003,5.779071e+000
2.882142e+003,4.953979e+000
2.883106e+003,1.956876e+000
2.884071e+003,5.917328e-001
2.885035e+003,6.930450e-001
2.885999e+003,1.695938e+000
2.886963e+003,3.228409e+000
2.887927e+003,4.975775e+000
2.888892e+003,6.257599e+000
2.889856e+003,5.634748e+000
2.890820e+003,4.157303e+000
2.891784e+003,3.190152e+000
2.892749e+003,2.873209e+000
2.893713e+003,3.352634e+000
2.894677e+003,4.235297e+000
2.895641e+003,4.713193e+000
2.896606e+003,4.663461e+000
2.897570e+003,3.053302e+000
2.898534e+003,1.459302e+000
2.899498e+003,3.337622e+000
2.900463e+003,5.765814e+000
2.901427e+003,5.122339e+000
2.902391e+003,3.391229e+000
2.903355e+003,2.442618e+000
2.904320e+003,2.371997e+000
2.905284e+003,3.481644e+000
2.906248e+003,4.559882e+000
2.907212e+003,3.718152e+000
2.908177e+003,2.216351e+000
2.909141e+003,1.789951e+000
2.910105e+003,2.164304e+000
2.911069e+003,3.955460e+000
2.912033e+003,5.241214e+000
2.912998e+003,3.758002e+000
2.913962e+003,2.447613e+000
2.914926e+003,3.186896e+000
2.915890e+003,4.252783e+000
2.916854e+003,4.462470e+000
2.917819e+003,3.677685e+000
2.918783e+003,1.534244e+000
2.919747e+003,-2.882782e-001
2.920711e+003,-2.111237e-001
2.921676e+003,1.169257e+000
2.922640e+003,5.278421e+000
2.923604e+003,7.712775e+000
2.924568e+003,6.060754e+000
2.925533e+003,4.129224e+000
2.926497e+003,3.043237e+000
2.927461e+003,4.504837e+000
2.928425e+003,9.212915e+000
2.929390e+003,2.941342e+000
2.930354e+003,-2.660810e+001
2.931318e+003,-4.461796e+001
2.932282e+003,-1.786048e+001
2.933247e+003,4.231351e+000
2.934211e+003,7.190539e+000
2.935175e+003,7.252539e+000
2.936139e+003,4.932947e+000
2.937104e+003,3.034592e+000
2.938068e+003,2.319257e+000
2.939032e+003,2.259131e+000
2.939996e+003,2.551413e+000
2.940960e+003,2.795621e+000
2.941925e+003,2.810385e+000
2.942889e+003,2.435815e+000
2.943853e+003,1.199274e+000
2.944817e+003,1.301126e+000
2.945781e+003,3.191602e+000
2.946746e+003,3.958060e+000
2.947710e+003,3.503836e+000
2.948674e+003,3.430060e+000
2.949638e+003,3.742313e+000
2.950603e+003,3.192804e+000
2.951567e+003,1.955927e+000
2.952531e+003,1.387988e+000
2.953495e+003,1.777661e+000
2.954460e+003,3.355728e+000
2.955424e+003,6.102637e+000
2.956388e+003,4.509088e+000
2.957352e+003,-5.687683e-001
2.958317e+003,3.674744e-001
2.959281e+003,4.864984e+000
2.960245e+003,6.002997e+000
2.961209e+003,4.348563e+000
2.962174e+003,1.202335e+000
2.963138e+003,-1.870157e+000
2.964102e+003,-1.939670e+000
2.965066e+003,-1.439941e-001
2.966031e+003,1.089713e+000
2.966995e+003,1.855893e+000
2.967959e+003,2.449704e+000
2.968923e+003,2.787485e+000
2.969887e+003,2.498428e+000
2.970852e+003,2.089752e+000
2.971816e+003,1.992416e+000
2.972780e+003,2.351077e+000
2.973744e+003,3.912561e+000
2.974708e+003,4.996115e+000
2.975673e+003,4.092801e+000
2.976637e+003,2.476798e+000
2.977601e+003,1.564642e+000
2.978565e+003,1.152612e+000
2.979530e+003,1.132144e+000
2.980494e+003,1.334448e+000
2.981458e+003,1.876968e+000
2.982422e+003,2.249814e+000
2.983387e+003,2.201785e+000
2.984351e+003,1.707593e+000
2.985315e+003,6.771301e-001
2.986279e+003,1.608460e-001
2.987244e+003,6.616150e-001
2.988208e+003,1.211905e+000
2.989172e+003,1.186362e+000
2.990136e+003,1.136331e+000
2.991101e+003,1.728766e+000
2.992065e+003,1.689029e+000
2.993029e+003,1.963959e-001
2.993993e+003,-3.630280e-001
2.994958e+003,2.551239e-001
2.995922e+003,1.609821e+000
2.996886e+003,3.314557e+000
2.997850e+003,3.509027e+000
2.998814e+003,2.100180e+000
2.999779e+003,1.255746e+000
3.000743e+003,1.559235e+000
3.001707e+003,1.658322e+000
3.002671e+003,1.432062e+000
3.003635e+003,1.204794e+000
3.004600e+003,9.691467e-001
3.005564e+003,1.091144e+000
3.006528e+003,1.260229e+000
3.007492e+003,-9.669800e-002
3.008457e+003,-1.853134e+000
3.009421e+003,-1.042596e+000
3.010385e+003,1.453067e+000
3.011349e+003,2.807306e+000
3.012314e+003,3.078235e+000
3.013278e+003,2.473651e+000
3.014242e+003,1.184402e+000
3.015206e+003,-9.048554e-001
3.016171e+003,-2.493820e+000
3.017135e+003,-3.214294e-001
3.018099e+003,2.527475e+000
3.019063e+003,2.591125e+000
3.020028e+003,1.823202e+000
3.020992e+003,2.143045e+000
3.021956e+003,2.053693e+000
3.022920e+003,1.068512e-001
3.023885e+003,-1.522519e+000
3.024849e+003,-7.978211e-002
3.025813e+003,1.488766e+000
3.026777e+003,1.305847e-002
3.027741e+003,-1.722858e+000
3.028706e+003,-3.210309e+000
3.029670e+003,-2.797122e+000
3.030634e+003,4.046570e-001
3.031598e+003,2.625827e+000
3.032563e+003,2.620728e+000
3.033527e+003,1.914200e+000
3.034491e+003,1.257703e+000
3.035455e+003,6.791137e-001
3.036420e+003,2.316498e-001
3.037384e+003,-4.086823e-001
3.038348e+003,-1.652417e+000
3.039312e+003,-1.923233e+000
3.040277e+003,-1.186270e+000
3.041241e+003,-1.402612e+000
3.042205e+003,-2.401318e+000
3.043169e+003,-2.553159e+000
3.044134e+003,-1.975998e+000
3.045098e+003,-1.913889e+000
3.046062e+003,-2.348328e+000
3.047026e+003,-2.153903e+000
3.047990e+003,-1.463324e+000
3.048955e+003,-1.271454e+000
3.049919e+003,-1.461475e+000
3.050883e+003,-1.715479e+000
3.051847e+003,-1.786249e+000
3.052812e+003,-8.463440e-001
3.053776e+003,1.487213e-001
3.054740e+003,-2.842224e-001
3.055704e+003,-1.019888e+000
3.056668e+003,-9.447144e-001
3.057633e+003,-4.202362e-001
3.058597e+003,2.116638e-001
3.059561e+003,4.766785e-001
3.060525e+003,-4.199188e-001
3.061490e+003,-1.641452e+000
3.062454e+003,-3.222497e+000
3.063418e+003,-3.687277e+000
3.064382e+003,-1.758801e+000
3.065347e+003,-1.154944e+000
3.066311e+003,-2.926416e+000
3.067275e+003,-3.051892e+000
3.068239e+003,-2.780395e-001
3.069204e+003,1.636261e+000
3.070168e+003,9.657776e-001
3.071132e+003,-9.210815e-002
3.072096e+003,-1.114627e+000
3.073061e+003,-1.381570e+000
3.074025e+003,-8.334320e-001
3.074989e+003,5.191040e-001
3.075953e+003,2.198758e+000
3.076917e+003,2.112564e+000
3.077882e+003,5.913544e-001
3.078846e+003,-9.546204e-001
3.079810e+003,-2.257974e+000
3.080774e+003,-4.020111e+000
3.081739e+003,-5.321860e+000
3.082703e+003,-2.643253e+000
3.083667e+003,1.980276e+000
3.084631e+003,1.333786e+000
3.085595e+003,-1.639337e+000
3.086560e+003,-3.056879e+000
3.087524e+003,-3.224896e+000
3.088488e+003,-1.530838e+000
3.089452e+003,-3.764893e-001
3.090417e+003,-1.355499e+000
3.091381e+003,-3.090350e+000
3.092345e+003,-4.562720e+000
3.093309e+003,-5.233819e+000
3.094274e+003,-4.402664e+000
3.095238e+003,-3.389215e+000
3.096202e+003,-3.013666e+000
3.097166e+003,-2.477606e+000
3.098131e+003,-1.465894e+000
3.099095e+003,-1.196884e+000
3.100059e+003,-1.825430e+000
3.101023e+003,-2.079749e+000
3.101988e+003,-1.743442e+000
3.102952e+003,-1.481393e+000
3.103916e+003,-1.559882e+000
3.104880e+003,-2.412973e+000
3.105844e+003,-4.056149e+000
3.106809e+003,-4.168902e+000
3.107773e+003,-2.999200e+000
3.108737e+003,-3.895529e+000
3.109701e+003,-5.772943e+000
3.110666e+003,-5.708014e+000
3.111630e+003,-4.607214e+000
3.112594e+003,-3.950198e+000
3.113558e+003,-3.891550e+000
3.114522e+003,-4.519830e+000
3.115487e+003,-5.251923e+000
3.116451e+003,-5.259607e+000
3.117415e+003,-4.723862e+000
3.118379e+003,-3.506561e+000
3.119344e+003,-2.449637e+000
3.120308e+003,-2.133417e+000
3.121272e+003,-2.489236e+000
3.122236e+003,-3.655865e+000
3.123201e+003,-4.425580e+000
3.124165e+003,-4.414969e+000
3.125129e+003,-3.938684e+000
3.126093e+003,-3.204193e+000
3.127058e+003,-2.568692e+000
3.128022e+003,-2.140558e+000
3.128986e+003,-2.256406e+000
3.129950e+003,-3.216858e+000
3.130915e+003,-3.238196e+000
3.131879e+003,-2.463739e+000
3.132843e+003,-2.780243e+000
3.133807e+003,-3.761087e+000
3.134771e+003,-3.700494e+000
3.135736e+003,-2.998761e+000
3.136700e+003,-2.975735e+000
3.137664e+003,-3.353226e+000
3.138628e+003,-3.420456e+000
3.139593e+003,-3.482934e+000
3.140557e+003,-4.639441e+000
3.141521e+003,-5.719617e+000
3.142485e+003,-4.311399e+000
3.143449e+003,-2.812723e+000
3.144414e+003,-3.128442e+000
3.145378e+003,-4.134137e+000
3.146342e+003,-5.656982e+000
3.147306e+003,-5.472903e+000
3.148271e+003,-2.685349e+000
3.149235e+003,-7.438782e-001
3.150199e+003,-1.614420e+000
3.151163e+003,-2.888986e+000
3.152128e+003,-3.528076e+000
3.153092e+003,-4.487366e+000
3.154056e+003,-5.925958e+000
3.155020e+003,-6.310684e+000
3.155985e+003,-5.762668e+000
3.156949e+003,-4.986047e+000
3.157913e+003,-4.318082e+000
3.158877e+003,-4.285675e+000
3.159842e+003,-4.899722e+000
3.160806e+003,-6.040957e+000
3.161770e+003,-7.130365e+000
3.162734e+003,-6.485538e+000
3.163698e+003,-4.950302e+000
3.164663e+003,-3.918912e+000
3.165627e+003,-3.635019e+000
3.166591e+003,-5.083597e+000
3.167555e+003,-6.213159e+000
3.168520e+003,-5.666992e+000
3.169484e+003,-5.490628e+000
3.170448e+003,-6.640259e+000
3.171412e+003,-7.807648e+000
3.172376e+003,-8.234052e+000
3.173341e+003,-7.286645e+000
3.174305e+003,-3.411618e+000
3.175269e+003,-2.338516e+000
3.176233e+003,-5.223355e+000
3.177198e+003,-5.841110e+000
3.178162e+003,-4.458298e+000
3.179126e+003,-5.769891e+000
3.180090e+003,-8.764975e+000
3.181055e+003,-9.106387e+000
3.182019e+003,-7.286566e+000
3.182983e+003,-6.283328e+000
3.183947e+003,-5.862607e+000
3.184912e+003,-5.088187e+000
3.185876e+003,-4.489423e+000
3.186840e+003,-5.627612e+000
3.187804e+003,-7.179578e+000
3.188769e+003,-8.339716e+000
3.189733e+003,-8.272885e+000
3.190697e+003,-6.036795e+000
3.191661e+003,-4.595419e+000
3.192625e+003,-5.158472e+000
3.193590e+003,-5.992282e+000
3.194554e+003,-6.207025e+000
3.195518e+003,-6.892395e+000
3.196482e+003,-9.029882e+000
3.197447e+003,-9.397684e+000
3.198411e+003,-7.492157e+000
3.199375e+003,-6.294662e+000
3.200339e+003,-5.732162e+000
3.201303e+003,-4.420547e+000
3.202268e+003,-2.909674e+000
3.203232e+003,-2.974115e+000
3.204196e+003,-3.994073e+000
3.205160e+003,-4.196472e+000
3.206125e+003,-4.138349e+000
3.207089e+003,-4.887530e+000
3.208053e+003,-6.058881e+000
3.209017e+003,-7.611905e+000
3.209982e+003,-8.398026e+000
3.210946e+003,-6.792315e+000
3.211910e+003,-5.139997e+000
3.212874e+003,-4.303668e+000
3.213839e+003,-3.302722e+000
3.214803e+003,-1.979514e+000
3.215767e+003,-2.926065e+000
3.216731e+003,-6.777536e+000
3.217696e+003,-8.771014e+000
3.218660e+003,-6.998383e+000
3.219624e+003,-5.266983e+000
3.220588e+003,-3.613178e+000
3.221552e+003,-4.340335e+000
3.222517e+003,-6.315094e+000
3.223481e+003,-5.876303e+000
3.224445e+003,-4.472388e+000
3.225409e+003,-5.138312e+000
3.226374e+003,-6.323672e+000
3.227338e+003,-6.004508e+000
3.228302e+003,-5.262146e+000
3.229266e+003,-5.352212e+000
3.230230e+003,-5.987656e+000
3.231195e+003,-7.708035e+000
3.232159e+003,-8.334000e+000
3.233123e+003,-5.792966e+000
3.234087e+003,-4.603711e+000
3.235052e+003,-5.445157e+000
3.236016e+003,-6.067248e+000
3.236980e+003,-5.990405e+000
3.237944e+003,-5.943173e+000
3.238909e+003,-6.035507e+000
3.239873e+003,-5.333688e+000
3.240837e+003,-4.082071e+000
3.241801e+003,-4.818848e+000
3.242766e+003,-6.923370e+000
3.243730e+003,-8.296145e+000
3.244694e+003,-8.827341e+000
3.245658e+003,-7.542804e+000
3.246623e+003,-6.544623e+000
3.247587e+003,-7.817782e+000
3.248551e+003,-9.066251e+000
3.249515e+003,-8.831533e+000
3.250479e+003,-8.219495e+000
3.251444e+003,-8.034845e+000
3.252408e+003,-7.903180e+000
3.253372e+003,-7.679672e+000
3.254336e+003,-7.428449e+000
3.255301e+003,-7.190299e+000
3.256265e+003,-5.963843e+000
3.257229e+003,-4.018326e+000
3.258193e+003,-2.400821e+000
3.259157e+003,-1.687909e+000
3.260122e+003,-3.409906e+000
3.261086e+003,-6.100064e+000
3.262050e+003,-6.571851e+000
3.263014e+003,-5.661127e+000
3.263979e+003,-4.793808e+000
3.264943e+003,-4.253747e+000
3.265907e+003,-4.929700e+000
3.266871e+003,-5.186572e+000
3.267836e+003,-3.892441e+000
3.268800e+003,-2.811563e+000
3.269764e+003,-2.422748e+000
3.270728e+003,-2.376590e+000
3.271693e+003,-2.521930e+000
3.272657e+003,-2.821304e+000
3.273621e+003,-3.287463e+000
3.274585e+003,-3.592462e+000
3.275550e+003,-3.706369e+000
3.276514e+003,-3.829767e+000
3.277478e+003,-3.933350e+000
3.278442e+003,-3.916516e+000
3.279406e+003,-3.881137e+000
3.280371e+003,-4.271802e+000
3.281335e+003,-4.235990e+000
3.282299e+003,-2.886984e+000
3.283263e+003,-1.719257e+000
3.284228e+003,-2.141019e+000
3.285192e+003,-3.228464e+000
3.286156e+003,-4.881803e+000
3.287120e+003,-5.538248e+000
3.288084e+003,-4.621735e+000
3.289049e+003,-3.497717e+000
3.290013e+003,-2.451083e+000
3.290977e+003,-3.263562e+000
3.291941e+003,-5.219949e+000
3.292906e+003,-5.292535e+000
3.293870e+003,-3.630670e+000
3.294834e+003,-2.323486e+000
3.295798e+003,-1.618808e+000
3.296763e+003,-2.493460e+000
3.297727e+003,-3.913766e+000
3.298691e+003,-3.953922e+000
3.299655e+003,-3.948135e+000
3.300620e+003,-5.467233e+000
3.301584e+003,-6.140006e+000
3.302548e+003,-5.276590e+000
3.303512e+003,-4.075620e+000
3.304477e+003,-3.053186e+000
3.305441e+003,-2.431415e+000
3.306405e+003,-2.313525e+000
3.307369e+003,-2.170502e+000
3.308333e+003,-1.977753e+000
3.309298e+003,-1.074850e+000
3.310262e+003,5.773926e-002
3.311226e+003,-3.564636e-001
3.312190e+003,-1.293954e+000
3.313155e+003,-1.220831e+000
3.314119e+003,-8.630829e-001
3.315083e+003,-8.777741e-001
3.316047e+003,-6.537994e-001
3.317011e+003,3.933136e-001
3.317976e+003,7.166412e-001
3.318940e+003,-1.726874e+000
3.319904e+003,-2.849759e+000
3.320868e+003,-1.587634e+000
3.321833e+003,-1.744595e+000
3.322797e+003,-3.078647e+000
3.323761e+003,-2.029804e+000
3.324725e+003,4.955780e-001
3.325690e+003,8.690430e-001
3.326654e+003,-2.354340e-001
3.327618e+003,-4.134277e-001
3.328582e+003,-1.910187e-001
3.329547e+003,-6.688293e-001
3.330511e+003,-1.040845e+000
3.331475e+003,-9.725953e-003
3.332439e+003,7.648926e-001
3.333404e+003,5.940613e-001
3.334368e+003,2.428589e-002
3.335332e+003,-6.958466e-001
3.336296e+003,3.147888e-002
3.337260e+003,2.068579e+000
3.338225e+003,2.127506e+000
3.339189e+003,-1.993530e-001
3.340153e+003,-8.271087e-001
3.341117e+003,-1.214172e-001
3.342082e+003,-8.554993e-002
3.343046e+003,-2.713745e-001
3.344010e+003,3.018066e-001
3.344974e+003,6.398926e-001
3.345938e+003,-3.294983e-001
3.346903e+003,-7.481567e-001
3.347867e+003,2.502045e-001
3.348831e+003,1.683942e+000
3.349795e+003,3.045249e+000
3.350760e+003,2.752765e+000
3.351724e+003,-8.688858e-001
3.352688e+003,-1.356715e+000
3.353652e+003,9.301453e-001
3.354617e+003,2.336508e+000
3.355581e+003,3.029916e+000
3.356545e+003,3.922717e+000
3.357509e+003,4.594421e+000
3.358474e+003,4.484860e+000
3.359438e+003,3.789194e+000
3.360402e+003,2.571069e+000
3.361366e+003,1.992090e+000
3.362331e+003,3.800946e+000
3.363295e+003,4.793402e+000
3.364259e+003,3.184949e+000
3.365223e+003,2.655899e+000
3.366188e+003,3.360745e+000
3.367152e+003,3.728714e+000
3.368116e+003,3.538693e+000
3.369080e+003,2.790002e+000
3.370044e+003,1.818748e+000
3.371009e+003,1.324426e+000
3.371973e+003,1.275905e+000
3.372937e+003,1.792242e+000
3.373901e+003,2.270927e+000
3.374865e+003,1.409412e+000
3.375830e+003,1.290152e+000
3.376794e+003,3.070204e+000
3.377758e+003,4.187094e+000
3.378722e+003,4.212537e+000
3.379687e+003,4.540555e+000
3.380651e+003,5.384705e+000
3.381615e+003,5.742663e+000
3.382579e+003,5.493237e+000
3.383544e+003,5.031802e+000
3.384508e+003,4.581372e+000
3.385472e+003,5.019977e+000
3.386436e+003,5.888492e+000
3.387401e+003,7.163452e+000
3.388365e+003,7.534134e+000
3.389329e+003,6.178427e+000
3.390293e+003,5.969363e+000
3.391258e+003,7.837234e+000
3.392222e+003,8.463336e+000
3.393186e+003,6.509082e+000
3.394150e+003,5.032210e+000
3.395115e+003,4.369110e+000
3.396079e+003,4.882010e+000
3.397043e+003,6.147151e+000
3.398007e+003,7.184503e+000
3.398971e+003,7.774841e+000
3.399936e+003,7.309787e+000
3.400900e+003,6.757176e+000
3.401864e+003,6.701268e+000
3.402828e+003,7.016626e+000
3.403792e+003,7.656863e+000
3.404757e+003,7.917444e+000
3.405721e+003,6.872708e+000
3.406685e+003,7.406511e+000
3.407649e+003,9.553235e+000
3.408614e+003,1.002068e+001
3.409578e+003,9.589432e+000
3.410542e+003,1.144755e+001
3.411506e+003,1.334172e+001
3.412471e+003,1.108758e+001
3.413435e+003,8.446686e+000
3.414399e+003,9.167539e+000
3.415363e+003,1.052943e+001
3.416328e+003,9.813779e+000
3.417292e+003,9.119479e+000
3.418256e+003,9.205447e+000
3.419220e+003,9.182455e+000
3.420185e+003,9.027342e+000
3.421149e+003,8.948459e+000
3.422113e+003,8.936300e+000
3.423077e+003,8.570226e+000
3.424042e+003,8.618889e+000
3.425006e+003,1.058685e+001
3.425970e+003,1.286795e+001
3.426934e+003,1.287263e+001
