7.140112e+001,1.382102e+002
7.236536e+001,1.384030e+002
7.332959e+001,1.450821e+002
7.429382e+001,1.514746e+002
7.525806e+001,1.589182e+002
7.622229e+001,1.602943e+002
7.718652e+001,1.495343e+002
7.815076e+001,1.195464e+002
7.911499e+001,9.987282e+001
8.007922e+001,8.811632e+001
8.104346e+001,8.426634e+001
8.200769e+001,8.917847e+001
8.297192e+001,1.088129e+002
8.393616e+001,1.300429e+002
8.490039e+001,1.561570e+002
8.586462e+001,1.811960e+002
8.682886e+001,1.954931e+002
8.779310e+001,1.771039e+002
8.875733e+001,1.484286e+002
8.972157e+001,1.210031e+002
9.068580e+001,9.926174e+001
9.165003e+001,8.307053e+001
9.261427e+001,7.426798e+001
9.357850e+001,7.065027e+001
9.454273e+001,7.096291e+001
9.550697e+001,7.500796e+001
9.647120e+001,8.554076e+001
9.743543e+001,8.931472e+001
9.839967e+001,8.400261e+001
9.936390e+001,7.453514e+001
1.003281e+002,6.642003e+001
1.012924e+002,5.972875e+001
1.022566e+002,5.550307e+001
1.032208e+002,5.499463e+001
1.041851e+002,5.717448e+001
1.051493e+002,5.974443e+001
1.061135e+002,6.175189e+001
1.070778e+002,6.241073e+001
1.080420e+002,6.064308e+001
1.090062e+002,5.642827e+001
1.099705e+002,5.099913e+001
1.109347e+002,4.683035e+001
1.118989e+002,4.372187e+001
1.128632e+002,4.242360e+001
1.138274e+002,4.351151e+001
1.147916e+002,4.754049e+001
1.157559e+002,4.941829e+001
1.167201e+002,4.867208e+001
1.176843e+002,4.700208e+001
1.186486e+002,4.640549e+001
1.196128e+002,4.730544e+001
1.205770e+002,4.887811e+001
1.215413e+002,5.327882e+001
1.225055e+002,5.837777e+001
1.234697e+002,5.966055e+001
1.244340e+002,4.861530e+001
1.253982e+002,3.719588e+001
1.263624e+002,2.753433e+001
1.273267e+002,2.105285e+001
1.282909e+002,1.892538e+001
1.292551e+002,2.918450e+001
1.302194e+002,4.332886e+001
1.311836e+002,5.405094e+001
1.321478e+002,5.664820e+001
1.331121e+002,5.079786e+001
1.340763e+002,4.322272e+001
1.350405e+002,3.330552e+001
1.360048e+002,2.486288e+001
1.369690e+002,2.220283e+001
1.379332e+002,3.035061e+001
1.388975e+002,3.698384e+001
1.398617e+002,4.223367e+001
1.408259e+002,4.584200e+001
1.417902e+002,4.749706e+001
1.427544e+002,4.647535e+001
1.437186e+002,4.373180e+001
1.446829e+002,3.809342e+001
1.456471e+002,3.057014e+001
1.466113e+002,2.367487e+001
1.475756e+002,2.039640e+001
1.485398e+002,1.997069e+001
1.495040e+002,2.436664e+001
1.504683e+002,3.355482e+001
1.514325e+002,4.536749e+001
1.523967e+002,4.613548e+001
1.533610e+002,3.846389e+001
1.543252e+002,2.930240e+001
1.552894e+002,2.354666e+001
1.562537e+002,2.252917e+001
1.572179e+002,2.135610e+001
1.581821e+002,1.828762e+001
1.591464e+002,1.608092e+001
1.601106e+002,1.827222e+001
1.610748e+002,3.073182e+001
1.620391e+002,3.863910e+001
1.630033e+002,3.661017e+001
1.639676e+002,2.871250e+001
1.649318e+002,2.133094e+001
1.658960e+002,2.117882e+001
1.668603e+002,2.322573e+001
1.678245e+002,2.444871e+001
1.687887e+002,2.447050e+001
1.697530e+002,2.392319e+001
1.707172e+002,2.459600e+001
1.716814e+002,2.594896e+001
1.726457e+002,2.682703e+001
1.736099e+002,2.684553e+001
1.745741e+002,2.601001e+001
1.755384e+002,2.312080e+001
1.765026e+002,1.590096e+001
1.774668e+002,9.656848e+000
1.784311e+002,7.790637e+000
1.793953e+002,1.238103e+001
1.803595e+002,1.523224e+001
1.813238e+002,1.396805e+001
1.822880e+002,1.145767e+001
1.832522e+002,1.019600e+001
1.842165e+002,1.246509e+001
1.851807e+002,1.417662e+001
1.861449e+002,1.132098e+001
1.871092e+002,6.250329e+000
1.880734e+002,2.088733e+000
1.890376e+002,3.398645e+000
1.900019e+002,8.569128e+000
1.909661e+002,1.248077e+001
1.919303e+002,1.477482e+001
1.928946e+002,1.582937e+001
1.938588e+002,1.671509e+001
1.948230e+002,1.714274e+001
1.957873e+002,1.803174e+001
1.967515e+002,1.895520e+001
1.977157e+002,2.004802e+001
1.986800e+002,2.404097e+001
1.996442e+002,3.204337e+001
2.006084e+002,4.153812e+001
2.015727e+002,5.438874e+001
2.025369e+002,7.089443e+001
2.035011e+002,8.210945e+001
2.044654e+002,8.001798e+001
2.054296e+002,7.227346e+001
2.063938e+002,6.135426e+001
2.073581e+002,4.909343e+001
2.083223e+002,3.813971e+001
2.092865e+002,3.426099e+001
2.102508e+002,3.574138e+001
2.112150e+002,4.106821e+001
2.121792e+002,4.882698e+001
2.131435e+002,6.018299e+001
2.141077e+002,6.543231e+001
2.150719e+002,6.197599e+001
2.160362e+002,5.484263e+001
2.170004e+002,5.153434e+001
2.179646e+002,5.570588e+001
2.189289e+002,5.905360e+001
2.198931e+002,5.830030e+001
2.208573e+002,5.627268e+001
2.218216e+002,5.868850e+001
2.227858e+002,7.513457e+001
2.237500e+002,9.090456e+001
2.247143e+002,1.023984e+002
2.256785e+002,1.080467e+002
2.266427e+002,1.067757e+002
2.276070e+002,9.089977e+001
2.285712e+002,6.815417e+001
2.295354e+002,4.816938e+001
2.304997e+002,3.385302e+001
2.314639e+002,2.469401e+001
2.324281e+002,1.818025e+001
2.333924e+002,1.452826e+001
2.343566e+002,1.183209e+001
2.353208e+002,9.427063e+000
2.362851e+002,7.239831e+000
2.372493e+002,5.858801e+000
2.382135e+002,5.625452e+000
2.391778e+002,5.641955e+000
2.401420e+002,5.582263e+000
2.411062e+002,5.369958e+000
2.420705e+002,4.879382e+000
2.430347e+002,3.979883e+000
2.439989e+002,2.828760e+000
2.449632e+002,1.506738e+000
2.459274e+002,7.496338e-002
2.468916e+002,-1.317383e+000
2.478559e+002,-2.696692e+000
2.488201e+002,-3.934094e+000
2.497843e+002,-4.663721e+000
2.507486e+002,-4.439856e+000
2.517128e+002,-2.901477e+000
2.526770e+002,-1.584192e+000
2.536413e+002,-9.667358e-001
2.546055e+002,-4.426025e-001
2.555697e+002,1.090979e+000
2.565340e+002,5.296155e+000
2.574982e+002,8.210291e+000
2.584625e+002,9.339038e+000
2.594267e+002,9.243640e+000
2.603909e+002,8.875341e+000
2.613552e+002,8.723816e+000
2.623194e+002,8.033630e+000
2.632836e+002,6.184461e+000
2.642479e+002,3.545837e+000
2.652121e+002,8.768921e-001
2.661763e+002,-7.858276e-001
2.671406e+002,-1.555847e+000
2.681048e+002,-1.500732e+000
2.690690e+002,-6.705810e-001
2.700333e+002,7.145386e-001
2.709975e+002,1.832190e+000
2.719617e+002,2.884888e+000
2.729260e+002,3.238354e+000
2.738902e+002,2.283447e+000
2.748544e+002,4.793701e-002
2.758187e+002,-1.268103e+000
2.767829e+002,-1.939087e-001
2.777471e+002,2.549316e-001
2.787114e+002,-1.385584e+000
2.796756e+002,-5.161706e+000
2.806398e+002,-8.085101e+000
2.816041e+002,-7.907587e+000
2.825683e+002,-6.427521e+000
2.835325e+002,-3.925317e+000
2.844968e+002,-7.503296e-001
2.854610e+002,2.351135e+000
2.864252e+002,3.259692e+000
2.873895e+002,2.898816e+000
2.883537e+002,2.580005e+000
2.893179e+002,3.164331e+000
2.902822e+002,4.788904e+000
2.912464e+002,4.790503e+000
2.922106e+002,2.864954e+000
2.931749e+002,4.774780e-001
2.941391e+002,-1.765930e+000
2.951033e+002,-4.339429e+000
2.960676e+002,-5.243219e+000
2.970318e+002,-2.893616e+000
2.979960e+002,-1.392456e-001
2.989603e+002,7.507324e-001
2.999245e+002,-1.701428e+000
3.008887e+002,-4.131592e+000
3.018530e+002,-4.485339e+000
3.028172e+002,-3.460437e+000
3.037814e+002,-1.236084e+000
3.047457e+002,2.128943e+000
3.057099e+002,5.765161e+000
3.066741e+002,7.416944e+000
3.076384e+002,7.256543e+000
3.086026e+002,5.353113e+000
3.095668e+002,1.660181e+000
3.105311e+002,-4.917200e+000
3.114953e+002,-8.513922e+000
3.124595e+002,-8.169733e+000
3.134238e+002,-5.967517e+000
3.143880e+002,-4.247351e+000
3.153522e+002,-3.385376e+000
3.163165e+002,-2.740454e+000
3.172807e+002,-2.349304e+000
3.182449e+002,-1.824255e+000
3.192092e+002,-6.376587e-001
3.201734e+002,1.938110e+000
3.211376e+002,4.178662e+000
3.221019e+002,4.502246e+000
3.230661e+002,3.725732e+000
3.240303e+002,3.128027e+000
3.249946e+002,4.301831e+000
3.259588e+002,6.890698e+000
3.269230e+002,8.400976e+000
3.278873e+002,8.818689e+000
3.288515e+002,8.217127e+000
3.298157e+002,6.653479e+000
3.307800e+002,2.331763e+000
3.317442e+002,8.144409e-001
3.327084e+002,3.412793e+000
3.336727e+002,8.216077e+000
3.346369e+002,1.205101e+001
3.356011e+002,1.406742e+001
3.365654e+002,1.524244e+001
3.375296e+002,1.574858e+001
3.384938e+002,1.573251e+001
3.394581e+002,1.511301e+001
3.404223e+002,1.294160e+001
3.413865e+002,1.138320e+001
3.423508e+002,1.246608e+001
3.433150e+002,1.587474e+001
3.442792e+002,2.062208e+001
3.452435e+002,2.523168e+001
3.462077e+002,2.978320e+001
3.471719e+002,3.494161e+001
3.481362e+002,4.027618e+001
3.491004e+002,4.678876e+001
3.500646e+002,5.671581e+001
3.510289e+002,6.845538e+001
3.519931e+002,8.781087e+001
3.529573e+002,1.163700e+002
3.539216e+002,1.520539e+002
3.548858e+002,1.932707e+002
3.558500e+002,2.550907e+002
3.568143e+002,2.988442e+002
3.577785e+002,3.102711e+002
3.587427e+002,2.953716e+002
3.597070e+002,2.645615e+002
3.606712e+002,2.222228e+002
3.616354e+002,1.761124e+002
3.625997e+002,1.343061e+002
3.635639e+002,9.820548e+001
3.645281e+002,6.951157e+001
3.654924e+002,5.093422e+001
3.664566e+002,4.576423e+001
3.674208e+002,4.047257e+001
3.683851e+002,3.456390e+001
3.693493e+002,2.861611e+001
3.703135e+002,2.397306e+001
3.712778e+002,2.188854e+001
3.722420e+002,1.994360e+001
3.732062e+002,1.763675e+001
3.741705e+002,1.541340e+001
3.751347e+002,1.406624e+001
3.760989e+002,1.455870e+001
3.770632e+002,1.525406e+001
3.780274e+002,1.514263e+001
3.789916e+002,1.445755e+001
3.799559e+002,1.375447e+001
3.809201e+002,1.379063e+001
3.818844e+002,1.412874e+001
3.828486e+002,1.327339e+001
3.838128e+002,1.135636e+001
3.847771e+002,9.366735e+000
3.857413e+002,8.791797e+000
3.867055e+002,1.042083e+001
3.876698e+002,1.173929e+001
3.886340e+002,1.162437e+001
3.895982e+002,1.156473e+001
3.905625e+002,1.409791e+001
3.915267e+002,2.254684e+001
3.924909e+002,2.784279e+001
3.934552e+002,2.753764e+001
3.944194e+002,2.421174e+001
3.953836e+002,2.023450e+001
3.963479e+002,1.635050e+001
3.973121e+002,1.398558e+001
3.982763e+002,1.454160e+001
3.992406e+002,1.688054e+001
4.002048e+002,1.949778e+001
4.011690e+002,2.094109e+001
4.021333e+002,2.131868e+001
4.030975e+002,2.231404e+001
4.040617e+002,2.397715e+001
4.050260e+002,2.560944e+001
4.059902e+002,2.621447e+001
4.069544e+002,2.453287e+001
4.079187e+002,2.573101e+001
4.088829e+002,3.101113e+001
4.098471e+002,3.736678e+001
4.108114e+002,4.219865e+001
4.117756e+002,4.424611e+001
4.127398e+002,4.819758e+001
4.137041e+002,5.847083e+001
4.146683e+002,6.927219e+001
4.156325e+002,7.690125e+001
4.165968e+002,7.936871e+001
4.175610e+002,7.719845e+001
4.185252e+002,6.917607e+001
4.194895e+002,5.861510e+001
4.204537e+002,4.929976e+001
4.214179e+002,4.364691e+001
4.223822e+002,4.156175e+001
4.233464e+002,4.203431e+001
4.243106e+002,4.528609e+001
4.252749e+002,4.830875e+001
4.262391e+002,4.840293e+001
4.272033e+002,4.492860e+001
4.281676e+002,4.721377e+001
4.291318e+002,5.855378e+001
4.300960e+002,7.237928e+001
4.310603e+002,8.626430e+001
4.320245e+002,9.988350e+001
4.329887e+002,1.156625e+002
4.339530e+002,1.371806e+002
4.349172e+002,1.608084e+002
4.358814e+002,1.879351e+002
4.368457e+002,2.168221e+002
4.378099e+002,2.429980e+002
4.387741e+002,2.573977e+002
4.397384e+002,2.608303e+002
4.407026e+002,2.545957e+002
4.416668e+002,2.380450e+002
4.426311e+002,2.141926e+002
4.435953e+002,1.931405e+002
4.445595e+002,1.757192e+002
4.455238e+002,1.607079e+002
4.464880e+002,1.481591e+002
4.474522e+002,1.379914e+002
4.484165e+002,1.305058e+002
4.493807e+002,1.286568e+002
4.503449e+002,1.260966e+002
4.513092e+002,1.211542e+002
4.522734e+002,1.140935e+002
4.532376e+002,1.053436e+002
4.542019e+002,9.483651e+001
4.551661e+002,8.371605e+001
4.561303e+002,7.301701e+001
4.570946e+002,6.306600e+001
4.580588e+002,5.438917e+001
4.590230e+002,4.754134e+001
4.599873e+002,4.282124e+001
4.609515e+002,3.977061e+001
4.619157e+002,3.825557e+001
4.628800e+002,3.795209e+001
4.638442e+002,3.858279e+001
4.648084e+002,4.014459e+001
4.657727e+002,4.290972e+001
4.667369e+002,4.748042e+001
4.677011e+002,5.253519e+001
4.686654e+002,5.790007e+001
4.696296e+002,6.359241e+001
4.705938e+002,6.717666e+001
4.715581e+002,6.582981e+001
4.725223e+002,6.249327e+001
4.734865e+002,5.864747e+001
4.744508e+002,5.507302e+001
4.754150e+002,5.174242e+001
4.763792e+002,4.855112e+001
4.773435e+002,4.547358e+001
4.783077e+002,4.253757e+001
4.792719e+002,3.977858e+001
4.802362e+002,3.721334e+001
4.812004e+002,3.481577e+001
4.821646e+002,3.318516e+001
4.831289e+002,3.080688e+001
4.840931e+002,2.637535e+001
4.850573e+002,2.092893e+001
4.860216e+002,1.735862e+001
4.869858e+002,1.825919e+001
4.879500e+002,1.958820e+001
4.889143e+002,2.053325e+001
4.898785e+002,2.085540e+001
4.908427e+002,2.020530e+001
4.918070e+002,1.784488e+001
4.927712e+002,1.520646e+001
4.937354e+002,1.467303e+001
4.946997e+002,1.576344e+001
4.956639e+002,1.727808e+001
4.966281e+002,1.799917e+001
4.975924e+002,1.782758e+001
4.985566e+002,1.835088e+001
4.995208e+002,1.920671e+001
5.004851e+002,2.092037e+001
5.014493e+002,2.438132e+001
5.024135e+002,3.028263e+001
5.033778e+002,3.459983e+001
5.043420e+002,3.568403e+001
5.053063e+002,3.675861e+001
5.062705e+002,4.040102e+001
5.072347e+002,4.657146e+001
5.081990e+002,5.055486e+001
5.091632e+002,4.466479e+001
5.101274e+002,3.645204e+001
5.110917e+002,2.996400e+001
5.120559e+002,2.621301e+001
5.130201e+002,2.411744e+001
5.139844e+002,2.171930e+001
5.149486e+002,1.895362e+001
5.159128e+002,1.598083e+001
5.168771e+002,1.280164e+001
5.178413e+002,9.536230e+000
5.188055e+002,6.388824e+000
5.197698e+002,2.841717e+000
5.207340e+002,3.360291e-001
5.216982e+002,-7.149170e-001
5.226625e+002,-1.020227e+000
5.236267e+002,-1.437292e+000
5.245909e+002,-2.470111e+000
5.255552e+002,-2.812610e+000
5.265194e+002,-8.117981e-001
5.274836e+002,1.467426e+000
5.284479e+002,1.876929e+000
5.294121e+002,-6.764587e-001
5.303763e+002,-4.410810e+000
5.313406e+002,-5.341290e+000
5.323048e+002,-4.456659e+000
5.332690e+002,-2.949005e+000
5.342333e+002,-1.316547e+000
5.351975e+002,3.192078e-001
5.361617e+002,8.767578e-001
5.371260e+002,-8.930237e-001
5.380902e+002,-1.733301e+000
5.390544e+002,-3.696350e-001
5.400187e+002,2.370911e+000
5.409829e+002,3.880286e+000
5.419471e+002,2.817096e+000
5.429114e+002,1.424646e+000
5.438756e+002,6.672974e-002
5.448398e+002,-1.180481e+000
5.458041e+002,-2.328778e+000
5.467683e+002,-3.398981e+000
5.477325e+002,-4.222558e+000
5.486968e+002,-4.627783e+000
5.496610e+002,-4.738324e+000
5.506252e+002,-4.788202e+000
5.515895e+002,-4.971832e+000
5.525537e+002,-5.287860e+000
5.535179e+002,-5.175794e+000
5.544822e+002,-4.462531e+000
5.554464e+002,-3.791205e+000
5.564106e+002,-3.524188e+000
5.573749e+002,-3.705420e+000
5.583391e+002,-3.998462e+000
5.593033e+002,-4.516699e+000
5.602676e+002,-4.881635e+000
5.612318e+002,-4.936426e+000
5.621960e+002,-4.747602e+000
5.631603e+002,-4.507373e+000
5.641245e+002,-4.252118e+000
5.650887e+002,-4.106494e+000
5.660530e+002,-4.347235e+000
5.670172e+002,-4.791754e+000
5.679814e+002,-5.002862e+000
5.689457e+002,-4.485797e+000
5.699099e+002,-3.362598e+000
5.708741e+002,-3.089099e+000
5.718384e+002,-3.691370e+000
5.728026e+002,-4.473828e+000
5.737668e+002,-4.792749e+000
5.747311e+002,-4.452972e+000
5.756953e+002,-4.802557e+000
5.766595e+002,-6.795837e+000
5.776238e+002,-8.372381e+000
5.785880e+002,-8.506586e+000
5.795522e+002,-7.287500e+000
5.805165e+002,-5.991809e+000
5.814807e+002,-5.177429e+000
5.824449e+002,-4.784369e+000
5.834092e+002,-5.133453e+000
5.843734e+002,-5.975183e+000
5.853376e+002,-6.694781e+000
5.863019e+002,-6.488715e+000
5.872661e+002,-5.609632e+000
5.882303e+002,-5.670856e+000
5.891946e+002,-6.695502e+000
5.901588e+002,-7.712891e+000
5.911230e+002,-7.640882e+000
5.920873e+002,-6.038476e+000
5.930515e+002,-5.174304e+000
5.940157e+002,-5.181872e+000
5.949800e+002,-5.462140e+000
5.959442e+002,-5.939331e+000
5.969084e+002,-6.567236e+000
5.978727e+002,-6.832251e+000
5.988369e+002,-5.772827e+000
5.998011e+002,-4.803802e+000
6.007654e+002,-4.372674e+000
6.017296e+002,-4.590003e+000
6.026938e+002,-5.586169e+000
6.036581e+002,-7.923230e+000
6.046223e+002,-1.059500e+001
6.055865e+002,-1.068511e+001
6.065508e+002,-8.321887e+000
6.075150e+002,-5.403211e+000
6.084792e+002,-4.008582e+000
6.094435e+002,-4.572522e+000
6.104077e+002,-4.363611e+000
6.113719e+002,-2.920660e+000
6.123362e+002,-1.527856e+000
6.133004e+002,-9.261719e-001
6.142646e+002,-1.132159e+000
6.152289e+002,-1.238147e+000
6.161931e+002,-1.075696e+000
6.171573e+002,-5.724060e-001
6.181216e+002,7.249573e-001
6.190858e+002,2.521167e+000
6.200500e+002,4.065643e+000
6.210143e+002,4.533502e+000
6.219785e+002,4.276483e+000
6.229427e+002,3.894989e+000
6.239070e+002,3.553241e+000
6.248712e+002,4.054547e+000
6.258354e+002,6.293884e+000
6.267997e+002,1.065827e+001
6.277639e+002,1.361157e+001
6.287281e+002,1.528614e+001
6.296924e+002,1.579879e+001
6.306566e+002,1.457352e+001
6.316208e+002,1.182010e+001
6.325851e+002,9.847522e+000
6.335493e+002,1.038621e+001
6.345135e+002,1.097642e+001
6.354778e+002,1.085861e+001
6.364420e+002,1.020468e+001
6.374063e+002,9.567554e+000
6.383705e+002,9.398041e+000
6.393347e+002,9.388397e+000
6.402990e+002,9.121063e+000
6.412632e+002,8.649884e+000
6.422274e+002,7.904791e+000
6.431917e+002,6.793207e+000
6.441559e+002,5.349854e+000
6.451201e+002,5.210999e+000
6.460844e+002,7.270422e+000
6.470486e+002,8.678515e+000
6.480128e+002,8.356085e+000
6.489771e+002,6.653564e+000
6.499413e+002,5.001666e+000
6.509055e+002,3.365002e+000
6.518698e+002,2.167749e+000
6.528340e+002,1.773792e+000
6.537982e+002,1.810278e+000
6.547625e+002,1.733142e+000
6.557267e+002,1.177002e+000
6.566909e+002,6.416992e-001
6.576552e+002,1.095813e+000
6.586194e+002,1.985974e+000
6.595836e+002,2.454779e+000
6.605479e+002,2.119672e+000
6.615121e+002,1.319574e+000
6.624763e+002,1.358118e+000
6.634406e+002,2.679224e+000
6.644048e+002,3.640051e+000
6.653690e+002,3.723547e+000
6.663333e+002,3.287213e+000
6.672975e+002,3.092151e+000
6.682617e+002,3.419617e+000
6.692260e+002,3.811090e+000
6.701902e+002,4.280780e+000
6.711544e+002,4.664514e+000
6.721187e+002,4.671289e+000
6.730829e+002,4.209052e+000
6.740471e+002,3.726587e+000
6.750114e+002,3.975873e+000
6.759756e+002,4.638629e+000
6.769398e+002,5.526660e+000
6.779041e+002,6.542474e+000
6.788683e+002,7.564130e+000
6.798325e+002,8.410919e+000
6.807968e+002,9.208112e+000
6.817610e+002,8.838348e+000
6.827252e+002,6.297009e+000
6.836895e+002,3.475513e+000
6.846537e+002,1.948242e+000
6.856179e+002,1.816455e+000
6.865822e+002,2.384076e+000
6.875464e+002,4.416235e+000
6.885106e+002,6.182019e+000
6.894749e+002,6.705768e+000
6.904391e+002,6.174432e+000
6.914034e+002,5.569940e+000
6.923676e+002,5.587085e+000
6.933318e+002,6.364325e+000
6.942961e+002,8.720428e+000
6.952603e+002,1.196926e+001
6.962245e+002,1.377950e+001
6.971888e+002,1.189902e+001
6.981530e+002,6.197510e+000
6.991172e+002,4.111377e+000
7.000815e+002,6.453485e+000
7.010457e+002,9.532855e+000
7.020099e+002,1.251228e+001
7.029742e+002,1.535927e+001
7.039384e+002,1.779481e+001
7.049026e+002,1.983483e+001
7.058669e+002,2.109808e+001
7.068311e+002,2.111396e+001
7.077953e+002,2.047493e+001
7.087596e+002,1.979739e+001
7.097238e+002,1.941643e+001
7.106880e+002,1.942222e+001
7.116523e+002,2.024434e+001
7.126165e+002,2.129040e+001
7.135807e+002,2.168284e+001
7.145450e+002,2.113011e+001
7.155092e+002,2.004310e+001
7.164734e+002,1.945053e+001
7.174377e+002,1.963302e+001
7.184019e+002,1.977375e+001
7.193661e+002,1.993145e+001
7.203304e+002,1.991602e+001
7.212946e+002,1.968937e+001
7.222589e+002,1.941453e+001
7.232231e+002,1.831830e+001
7.241873e+002,1.470102e+001
7.251516e+002,1.150820e+001
7.261158e+002,1.071497e+001
7.270800e+002,1.208782e+001
7.280443e+002,1.367152e+001
7.290085e+002,1.352551e+001
7.299727e+002,1.222559e+001
7.309370e+002,1.088380e+001
7.319012e+002,9.626544e+000
7.328654e+002,8.992688e+000
7.338297e+002,9.571002e+000
7.347939e+002,1.145866e+001
7.357581e+002,1.193516e+001
7.367224e+002,9.913983e+000
7.376866e+002,8.123236e+000
7.386508e+002,7.322351e+000
7.396151e+002,7.275891e+000
7.405793e+002,7.285681e+000
7.415435e+002,6.998621e+000
7.425078e+002,7.215009e+000
7.434720e+002,8.692798e+000
7.444362e+002,1.045179e+001
7.454005e+002,1.122794e+001
7.463647e+002,1.054399e+001
7.473289e+002,9.555573e+000
7.482932e+002,1.113289e+001
7.492574e+002,1.418521e+001
7.502216e+002,1.572927e+001
7.511859e+002,1.495754e+001
7.521501e+002,1.301132e+001
7.531143e+002,1.205719e+001
7.540786e+002,1.292240e+001
7.550428e+002,1.291261e+001
7.560070e+002,1.079098e+001
7.569713e+002,9.119043e+000
7.579355e+002,9.919275e+000
7.588997e+002,1.307686e+001
7.598640e+002,1.571630e+001
7.608282e+002,1.631950e+001
7.617924e+002,1.588521e+001
7.627567e+002,1.373145e+001
7.637209e+002,1.106719e+001
7.646851e+002,1.011277e+001
7.656494e+002,1.271115e+001
7.666136e+002,1.770211e+001
7.675778e+002,2.046296e+001
7.685421e+002,2.137426e+001
7.695063e+002,2.215983e+001
7.704705e+002,2.395858e+001
7.714348e+002,2.610009e+001
7.723990e+002,2.569748e+001
7.733632e+002,1.972298e+001
7.743275e+002,1.573378e+001
7.752917e+002,1.509739e+001
7.762559e+002,1.599044e+001
7.772202e+002,1.698062e+001
7.781844e+002,1.768721e+001
7.791486e+002,1.828368e+001
7.801129e+002,1.890648e+001
7.810771e+002,1.946108e+001
7.820413e+002,1.967587e+001
7.830056e+002,1.972917e+001
7.839698e+002,2.026277e+001
7.849340e+002,2.207131e+001
7.858983e+002,2.502537e+001
7.868625e+002,2.627631e+001
7.878267e+002,2.544432e+001
7.887910e+002,2.456536e+001
7.897552e+002,2.477547e+001
7.907194e+002,2.597565e+001
7.916837e+002,2.718743e+001
7.926479e+002,2.836371e+001
7.936121e+002,2.943254e+001
7.945764e+002,3.038442e+001
7.955406e+002,3.118302e+001
7.965048e+002,3.167484e+001
7.974691e+002,3.184483e+001
7.984333e+002,3.236787e+001
7.993975e+002,3.464880e+001
8.003618e+002,3.742865e+001
8.013260e+002,3.913384e+001
8.022902e+002,3.959423e+001
8.032545e+002,3.999350e+001
8.042187e+002,4.218572e+001
8.051829e+002,4.670198e+001
8.061472e+002,5.021478e+001
8.071114e+002,5.218019e+001
8.080756e+002,5.385878e+001
8.090399e+002,5.563161e+001
8.100041e+002,5.761940e+001
8.109683e+002,6.043028e+001
8.119326e+002,6.464760e+001
8.128968e+002,6.918447e+001
8.138610e+002,7.351176e+001
8.148253e+002,7.793457e+001
8.157895e+002,8.263542e+001
8.167537e+002,8.777730e+001
8.177180e+002,9.368248e+001
8.186822e+002,1.022453e+002
8.196464e+002,1.119887e+002
8.206107e+002,1.191533e+002
8.215749e+002,1.226761e+002
8.225391e+002,1.245332e+002
8.235034e+002,1.283803e+002
8.244676e+002,1.367067e+002
8.254318e+002,1.384812e+002
8.263961e+002,1.310445e+002
8.273603e+002,1.224995e+002
8.283245e+002,1.162101e+002
8.292888e+002,1.118919e+002
8.302530e+002,1.074514e+002
8.312172e+002,1.020087e+002
8.321815e+002,9.614081e+001
8.331457e+002,8.925368e+001
8.341099e+002,8.280180e+001
8.350742e+002,7.906046e+001
8.360384e+002,7.892788e+001
8.370026e+002,8.051810e+001
8.379669e+002,7.928143e+001
8.389311e+002,7.501981e+001
8.398953e+002,7.194658e+001
8.408596e+002,7.127726e+001
8.418238e+002,7.083651e+001
8.427880e+002,6.756090e+001
8.437523e+002,6.050163e+001
8.447165e+002,5.567149e+001
8.456807e+002,5.621761e+001
8.466450e+002,5.641584e+001
8.476092e+002,5.383147e+001
8.485734e+002,4.929683e+001
8.495377e+002,4.479014e+001
8.505019e+002,4.121107e+001
8.514661e+002,3.920430e+001
8.524304e+002,4.087178e+001
8.533946e+002,4.408002e+001
8.543588e+002,4.519912e+001
8.553231e+002,4.290259e+001
8.562873e+002,3.886558e+001
8.572515e+002,3.677629e+001
8.582158e+002,3.729466e+001
8.591800e+002,3.811538e+001
8.601442e+002,3.980764e+001
8.611085e+002,4.111757e+001
8.620727e+002,4.092520e+001
8.630369e+002,3.942101e+001
8.640012e+002,3.861973e+001
8.649654e+002,4.034855e+001
8.659296e+002,4.137129e+001
8.668939e+002,3.917438e+001
8.678581e+002,3.582965e+001
8.688223e+002,3.442797e+001
8.697866e+002,3.645270e+001
8.707508e+002,4.000748e+001
8.717150e+002,4.121117e+001
8.726793e+002,4.047511e+001
8.736435e+002,3.968192e+001
8.746077e+002,3.915189e+001
8.755720e+002,3.859979e+001
8.765362e+002,3.753183e+001
8.775004e+002,3.570394e+001
8.784647e+002,3.449934e+001
8.794289e+002,3.459232e+001
8.803931e+002,3.444258e+001
8.813574e+002,3.339605e+001
8.823216e+002,3.175862e+001
8.832858e+002,3.021455e+001
8.842501e+002,2.911371e+001
8.852143e+002,2.827485e+001
8.861785e+002,2.750985e+001
8.871428e+002,2.672278e+001
8.881070e+002,2.571498e+001
8.890712e+002,2.450314e+001
8.900355e+002,2.348347e+001
8.909997e+002,2.336973e+001
8.919639e+002,2.446282e+001
8.929282e+002,2.406580e+001
8.938924e+002,2.093546e+001
8.948566e+002,1.816224e+001
8.958209e+002,1.750592e+001
8.967851e+002,1.853283e+001
8.977493e+002,1.943082e+001
8.987136e+002,2.003477e+001
8.996778e+002,1.994445e+001
9.006420e+002,1.871751e+001
9.016063e+002,1.710628e+001
9.025705e+002,1.581960e+001
9.035347e+002,1.506551e+001
9.044990e+002,1.450309e+001
9.054632e+002,1.369415e+001
9.064274e+002,1.257040e+001
9.073917e+002,1.102093e+001
9.083559e+002,9.045300e+000
9.093201e+002,7.778882e+000
9.102844e+002,8.377271e+000
9.112486e+002,1.069405e+001
9.122128e+002,1.211267e+001
9.131771e+002,1.212767e+001
9.141413e+002,1.175862e+001
9.151055e+002,1.110671e+001
9.160698e+002,1.014893e+001
9.170340e+002,8.623858e+000
9.179982e+002,6.501068e+000
9.189625e+002,4.515826e+000
9.199267e+002,3.023340e+000
9.208909e+002,2.322443e+000
9.218552e+002,3.532300e+000
9.228194e+002,5.903894e+000
9.237836e+002,7.087042e+000
9.247479e+002,5.194776e+000
9.257121e+002,1.005231e+000
9.266763e+002,-8.453919e-001
9.276406e+002,8.570251e-001
9.286048e+002,2.225677e+000
9.295690e+002,2.731232e+000
9.305333e+002,2.868933e+000
9.314975e+002,3.256464e+000
9.324617e+002,3.989770e+000
9.334260e+002,4.380517e+000
9.343902e+002,3.530481e+000
9.353545e+002,2.803351e+000
9.363187e+002,3.108142e+000
9.372830e+002,3.923578e+000
9.382472e+002,4.184851e+000
9.392114e+002,3.266736e+000
9.401757e+002,1.795795e+000
9.411399e+002,1.097284e+000
9.421041e+002,1.052948e+000
9.430684e+002,1.444440e+000
9.440326e+002,2.337683e+000
9.449968e+002,3.337348e+000
9.459611e+002,4.034027e+000
9.469253e+002,4.482330e+000
9.478895e+002,4.738440e+000
9.488538e+002,4.510278e+000
9.498180e+002,4.353943e+000
9.507822e+002,4.408166e+000
9.517465e+002,4.588843e+000
9.527107e+002,4.669128e+000
9.536749e+002,4.567444e+000
9.546392e+002,4.814288e+000
9.556034e+002,6.724872e+000
9.565676e+002,9.016467e+000
9.575319e+002,9.853473e+000
9.584961e+002,9.179407e+000
9.594603e+002,8.310260e+000
9.604246e+002,8.581604e+000
9.613888e+002,9.965277e+000
9.623530e+002,1.141738e+001
9.633173e+002,1.262706e+001
9.642815e+002,1.429006e+001
9.652457e+002,1.622431e+001
9.662100e+002,1.892945e+001
9.671742e+002,2.258334e+001
9.681384e+002,2.711190e+001
9.691027e+002,3.389482e+001
9.700669e+002,4.480430e+001
9.710311e+002,5.774596e+001
9.719954e+002,7.502003e+001
9.729596e+002,9.315029e+001
9.739238e+002,1.051657e+002
9.748881e+002,1.063487e+002
9.758523e+002,9.861129e+001
9.768165e+002,8.739651e+001
9.777808e+002,7.163648e+001
9.787450e+002,5.841790e+001
9.797092e+002,4.904912e+001
9.806735e+002,4.199058e+001
9.816377e+002,3.589542e+001
9.826019e+002,3.077705e+001
9.835662e+002,2.695522e+001
9.845304e+002,2.510934e+001
9.854946e+002,2.409613e+001
9.864589e+002,2.371967e+001
9.874231e+002,2.386134e+001
9.883873e+002,2.433081e+001
9.893516e+002,2.504417e+001
9.903158e+002,2.623140e+001
9.912800e+002,2.856206e+001
9.922443e+002,3.175012e+001
9.932085e+002,3.346799e+001
9.941727e+002,3.339198e+001
9.951370e+002,3.493522e+001
9.961012e+002,4.073007e+001
9.970654e+002,5.022498e+001
9.980297e+002,6.014264e+001
9.989939e+002,6.777533e+001
9.999581e+002,8.112477e+001
1.000922e+003,9.419334e+001
1.001887e+003,1.183224e+002
1.002851e+003,1.676700e+002
1.003815e+003,2.385755e+002
1.004779e+003,3.133783e+002
1.005744e+003,3.899202e+002
1.006708e+003,4.437415e+002
1.007672e+003,4.358614e+002
1.008636e+003,3.834514e+002
1.009600e+003,3.192270e+002
1.010565e+003,2.567587e+002
1.011529e+003,1.990284e+002
1.012493e+003,1.530289e+002
1.013457e+003,1.208339e+002
1.014422e+003,9.627392e+001
1.015386e+003,8.082728e+001
1.016350e+003,6.902338e+001
1.017314e+003,5.964410e+001
1.018279e+003,5.206884e+001
1.019243e+003,4.559700e+001
1.020207e+003,4.007652e+001
1.021171e+003,3.552448e+001
1.022135e+003,3.257161e+001
1.023100e+003,3.021803e+001
1.024064e+003,2.735393e+001
1.025028e+003,2.407260e+001
1.025992e+003,2.161249e+001
1.026957e+003,2.114411e+001
1.027921e+003,2.220208e+001
1.028885e+003,2.127711e+001
1.029849e+003,1.682498e+001
1.030814e+003,1.394545e+001
1.031778e+003,1.379061e+001
1.032742e+003,1.472816e+001
1.033706e+003,1.553620e+001
1.034671e+003,1.616016e+001
1.035635e+003,1.632925e+001
1.036599e+003,1.548079e+001
1.037563e+003,1.471675e+001
1.038527e+003,1.455731e+001
1.039492e+003,1.482009e+001
1.040456e+003,1.535045e+001
1.041420e+003,1.603558e+001
1.042384e+003,1.672895e+001
1.043349e+003,1.720476e+001
1.044313e+003,1.744164e+001
1.045277e+003,1.761212e+001
1.046241e+003,1.776722e+001
1.047206e+003,1.770698e+001
1.048170e+003,1.703074e+001
1.049134e+003,1.613776e+001
1.050098e+003,1.617183e+001
1.051063e+003,1.770224e+001
1.052027e+003,1.879022e+001
1.052991e+003,1.830115e+001
1.053955e+003,1.753619e+001
1.054919e+003,1.717609e+001
1.055884e+003,1.715284e+001
1.056848e+003,1.710593e+001
1.057812e+003,1.685273e+001
1.058776e+003,1.661761e+001
1.059741e+003,1.684811e+001
1.060705e+003,1.739191e+001
1.061669e+003,1.743336e+001
1.062633e+003,1.665442e+001
1.063598e+003,1.584859e+001
1.064562e+003,1.592048e+001
1.065526e+003,1.684721e+001
1.066490e+003,1.741097e+001
1.067454e+003,1.690834e+001
1.068419e+003,1.704370e+001
1.069383e+003,1.873573e+001
1.070347e+003,2.057471e+001
1.071311e+003,2.151951e+001
1.072276e+003,2.149372e+001
1.073240e+003,2.095038e+001
1.074204e+003,2.009581e+001
1.075168e+003,1.928139e+001
1.076133e+003,1.973773e+001
1.077097e+003,2.099887e+001
1.078061e+003,2.105907e+001
1.079025e+003,1.897785e+001
1.079990e+003,1.644058e+001
1.080954e+003,1.606634e+001
1.081918e+003,1.827644e+001
1.082882e+003,1.977453e+001
1.083846e+003,1.980681e+001
1.084811e+003,1.975476e+001
1.085775e+003,1.986093e+001
1.086739e+003,2.000848e+001
1.087703e+003,2.009302e+001
1.088668e+003,2.012601e+001
1.089632e+003,2.018668e+001
1.090596e+003,2.033918e+001
1.091560e+003,2.040560e+001
1.092525e+003,1.994196e+001
1.093489e+003,1.909346e+001
1.094453e+003,1.849984e+001
1.095417e+003,1.840965e+001
1.096381e+003,1.897209e+001
1.097346e+003,2.080447e+001
1.098310e+003,2.485381e+001
1.099274e+003,2.676743e+001
1.100238e+003,2.514693e+001
1.101203e+003,2.333691e+001
1.102167e+003,2.205137e+001
1.103131e+003,2.120028e+001
1.104095e+003,2.062491e+001
1.105060e+003,2.024357e+001
1.106024e+003,1.978687e+001
1.106988e+003,1.861143e+001
1.107952e+003,1.781999e+001
1.108917e+003,1.959821e+001
1.109881e+003,2.322187e+001
1.110845e+003,2.565490e+001
1.111809e+003,2.515516e+001
1.112773e+003,2.296341e+001
1.113738e+003,2.207054e+001
1.114702e+003,2.312685e+001
1.115666e+003,2.387121e+001
1.116630e+003,2.366233e+001
1.117595e+003,2.384990e+001
1.118559e+003,2.570895e+001
1.119523e+003,2.792020e+001
1.120487e+003,2.800030e+001
1.121452e+003,2.534587e+001
1.122416e+003,2.331222e+001
1.123380e+003,2.585466e+001
1.124344e+003,2.966941e+001
1.125308e+003,2.981225e+001
1.126273e+003,2.711024e+001
1.127237e+003,2.500773e+001
1.128201e+003,2.538003e+001
1.129165e+003,2.731997e+001
1.130130e+003,2.876282e+001
1.131094e+003,2.962201e+001
1.132058e+003,2.998536e+001
1.133022e+003,2.963022e+001
1.133987e+003,2.920878e+001
1.134951e+003,2.905980e+001
1.135915e+003,2.899935e+001
1.136879e+003,2.866424e+001
1.137844e+003,2.796750e+001
1.138808e+003,2.722510e+001
1.139772e+003,2.636839e+001
1.140736e+003,2.581102e+001
1.141700e+003,2.629219e+001
1.142665e+003,2.763078e+001
1.143629e+003,2.922092e+001
1.144593e+003,3.081063e+001
1.145557e+003,3.229033e+001
1.146522e+003,3.340829e+001
1.147486e+003,3.408517e+001
1.148450e+003,3.415533e+001
1.149414e+003,3.283963e+001
1.150379e+003,3.218723e+001
1.151343e+003,3.325129e+001
1.152307e+003,3.497665e+001
1.153271e+003,3.606050e+001
1.154235e+003,3.619725e+001
1.155200e+003,3.590090e+001
1.156164e+003,3.526336e+001
1.157128e+003,3.503267e+001
1.158092e+003,3.654139e+001
1.159057e+003,3.908006e+001
1.160021e+003,4.081361e+001
1.160985e+003,4.101577e+001
1.161949e+003,4.049009e+001
1.162914e+003,4.037657e+001
1.163878e+003,4.070847e+001
1.164842e+003,4.162098e+001
1.165806e+003,4.408389e+001
1.166771e+003,4.578112e+001
1.167735e+003,4.598760e+001
1.168699e+003,4.566488e+001
1.169663e+003,4.549668e+001
1.170627e+003,4.564960e+001
1.171592e+003,4.629555e+001
1.172556e+003,4.779440e+001
1.173520e+003,4.922904e+001
1.174484e+003,4.834583e+001
1.175449e+003,4.649118e+001
1.176413e+003,4.670362e+001
1.177377e+003,4.965459e+001
1.178341e+003,5.298139e+001
1.179306e+003,5.425035e+001
1.180270e+003,5.371174e+001
1.181234e+003,5.389680e+001
1.182198e+003,5.522555e+001
1.183162e+003,5.645061e+001
1.184127e+003,5.755915e+001
1.185091e+003,5.840466e+001
1.186055e+003,5.909495e+001
1.187019e+003,5.953900e+001
1.187984e+003,5.933169e+001
1.188948e+003,5.822941e+001
1.189912e+003,5.685499e+001
1.190876e+003,5.606957e+001
1.191841e+003,5.565281e+001
1.192805e+003,5.501566e+001
1.193769e+003,5.414280e+001
1.194733e+003,5.317328e+001
1.195698e+003,5.213793e+001
1.196662e+003,5.104882e+001
1.197626e+003,4.983327e+001
1.198590e+003,4.814317e+001
1.199554e+003,4.752409e+001
1.200519e+003,4.932047e+001
1.201483e+003,5.101610e+001
1.202447e+003,5.221645e+001
1.203411e+003,5.263236e+001
1.204376e+003,5.155433e+001
1.205340e+003,4.905894e+001
1.206304e+003,4.661769e+001
1.207268e+003,4.573096e+001
1.208233e+003,4.598508e+001
1.209197e+003,4.561610e+001
1.210161e+003,4.466415e+001
1.211125e+003,4.440884e+001
1.212089e+003,4.542058e+001
1.213054e+003,4.665504e+001
1.214018e+003,4.687390e+001
1.214982e+003,4.629931e+001
1.215946e+003,4.664904e+001
1.216911e+003,4.882689e+001
1.217875e+003,5.034022e+001
1.218839e+003,4.969613e+001
1.219803e+003,4.878771e+001
1.220768e+003,4.947024e+001
1.221732e+003,5.124091e+001
1.222696e+003,5.215365e+001
1.223660e+003,5.113133e+001
1.224625e+003,4.943428e+001
1.225589e+003,4.935737e+001
1.226553e+003,5.090562e+001
1.227517e+003,5.195201e+001
1.228481e+003,5.250793e+001
1.229446e+003,5.275135e+001
1.230410e+003,5.277204e+001
1.231374e+003,5.248386e+001
1.232338e+003,5.153101e+001
1.233303e+003,4.986486e+001
1.234267e+003,4.896766e+001
1.235231e+003,4.964108e+001
1.236195e+003,5.079662e+001
1.237160e+003,5.244059e+001
1.238124e+003,5.376169e+001
1.239088e+003,5.343699e+001
1.240052e+003,5.157942e+001
1.241016e+003,4.985434e+001
1.241981e+003,4.984440e+001
1.242945e+003,5.119181e+001
1.243909e+003,5.230136e+001
1.244873e+003,5.331654e+001
1.245838e+003,5.373096e+001
1.246802e+003,5.284016e+001
1.247766e+003,5.206392e+001
1.248730e+003,5.227356e+001
1.249695e+003,5.315588e+001
1.250659e+003,5.413632e+001
1.251623e+003,5.513984e+001
1.252587e+003,5.563770e+001
1.253552e+003,5.477937e+001
1.254516e+003,5.367272e+001
1.255480e+003,5.340368e+001
1.256444e+003,5.378592e+001
1.257408e+003,5.435112e+001
1.258373e+003,5.491884e+001
1.259337e+003,5.562266e+001
1.260301e+003,5.679340e+001
1.261265e+003,5.849324e+001
1.262230e+003,5.874140e+001
1.263194e+003,5.520724e+001
1.264158e+003,5.323884e+001
1.265122e+003,5.408505e+001
1.266087e+003,5.570930e+001
1.267051e+003,5.711919e+001
1.268015e+003,5.816592e+001
1.268979e+003,5.894564e+001
1.269943e+003,5.947847e+001
1.270908e+003,5.948656e+001
1.271872e+003,5.813799e+001
1.272836e+003,5.641803e+001
1.273800e+003,5.681108e+001
1.274765e+003,5.919529e+001
1.275729e+003,6.161610e+001
1.276693e+003,6.336057e+001
1.277657e+003,6.433027e+001
1.278622e+003,6.401640e+001
1.279586e+003,6.226722e+001
1.280550e+003,6.132211e+001
1.281514e+003,6.198601e+001
1.282479e+003,6.284523e+001
1.283443e+003,6.408247e+001
1.284407e+003,6.479726e+001
1.285371e+003,6.379651e+001
1.286335e+003,6.161534e+001
1.287300e+003,5.977246e+001
1.288264e+003,5.913173e+001
1.289228e+003,5.934312e+001
1.290192e+003,5.981342e+001
1.291157e+003,6.054290e+001
1.292121e+003,6.152011e+001
1.293085e+003,6.275574e+001
1.294049e+003,6.376437e+001
1.295014e+003,6.412697e+001
1.295978e+003,6.455917e+001
1.296942e+003,6.604276e+001
1.297906e+003,6.850115e+001
1.298870e+003,7.091160e+001
1.299835e+003,7.320794e+001
1.300799e+003,7.451894e+001
1.301763e+003,7.348869e+001
1.302727e+003,7.185107e+001
1.303692e+003,7.125626e+001
1.304656e+003,7.174335e+001
1.305620e+003,7.245482e+001
1.306584e+003,7.284472e+001
1.307549e+003,7.319948e+001
1.308513e+003,7.423275e+001
1.309477e+003,7.619786e+001
1.310441e+003,7.639613e+001
1.311406e+003,7.236775e+001
1.312370e+003,7.027666e+001
1.313334e+003,7.266243e+001
1.314298e+003,7.590321e+001
1.315263e+003,7.648186e+001
1.316227e+003,7.511626e+001
1.317191e+003,7.547060e+001
1.318155e+003,7.926704e+001
1.319120e+003,8.296540e+001
1.320084e+003,8.227905e+001
1.321048e+003,7.892943e+001
1.322012e+003,7.661049e+001
1.322976e+003,7.542046e+001
1.323941e+003,7.536092e+001
1.324905e+003,7.681516e+001
1.325869e+003,7.884556e+001
1.326833e+003,8.007306e+001
1.327798e+003,8.046649e+001
1.328762e+003,8.052007e+001
1.329726e+003,7.998604e+001
1.330690e+003,7.953702e+001
1.331655e+003,7.912804e+001
1.332619e+003,7.910121e+001
1.333583e+003,8.025537e+001
1.334547e+003,8.181433e+001
1.335511e+003,8.202197e+001
1.336476e+003,8.035174e+001
1.337440e+003,7.867077e+001
1.338404e+003,7.942715e+001
1.339368e+003,8.223183e+001
1.340333e+003,8.333781e+001
1.341297e+003,8.199293e+001
1.342261e+003,8.115789e+001
1.343225e+003,8.186717e+001
1.344190e+003,8.249416e+001
1.345154e+003,8.167214e+001
1.346118e+003,7.997307e+001
1.347082e+003,7.872356e+001
1.348047e+003,7.817885e+001
1.349011e+003,7.813019e+001
1.349975e+003,7.872755e+001
1.350939e+003,7.954690e+001
1.351903e+003,8.010892e+001
1.352868e+003,8.046516e+001
1.353832e+003,8.050066e+001
1.354796e+003,8.026033e+001
1.355760e+003,8.085854e+001
1.356725e+003,8.374428e+001
1.357689e+003,8.808599e+001
1.358653e+003,8.985566e+001
1.359617e+003,8.794720e+001
1.360582e+003,8.661723e+001
1.361546e+003,8.702621e+001
1.362510e+003,8.699012e+001
1.363474e+003,8.512860e+001
1.364438e+003,8.310954e+001
1.365403e+003,8.276225e+001
1.366367e+003,8.401771e+001
1.367331e+003,8.562462e+001
1.368295e+003,8.680962e+001
1.369260e+003,8.737971e+001
1.370224e+003,8.687313e+001
1.371188e+003,8.546567e+001
1.372152e+003,8.512165e+001
1.373117e+003,8.601520e+001
1.374081e+003,8.685979e+001
1.375045e+003,8.763242e+001
1.376009e+003,8.786898e+001
1.376974e+003,8.617237e+001
1.377938e+003,8.325624e+001
1.378902e+003,8.318887e+001
1.379866e+003,8.778709e+001
1.380830e+003,9.246960e+001
1.381795e+003,9.435548e+001
1.382759e+003,9.458836e+001
1.383723e+003,9.322389e+001
1.384687e+003,9.120068e+001
1.385652e+003,9.095027e+001
1.386616e+003,9.333183e+001
1.387580e+003,9.598198e+001
1.388544e+003,9.585063e+001
1.389509e+003,9.325182e+001
1.390473e+003,9.184940e+001
1.391437e+003,9.253989e+001
1.392401e+003,9.275929e+001
1.393365e+003,9.130886e+001
1.394330e+003,9.037930e+001
1.395294e+003,9.088763e+001
1.396258e+003,9.230143e+001
1.397222e+003,9.455408e+001
1.398187e+003,9.725436e+001
1.399151e+003,9.918597e+001
1.400115e+003,9.938036e+001
1.401079e+003,9.840374e+001
1.402044e+003,9.727106e+001
1.403008e+003,9.603226e+001
1.403972e+003,9.594751e+001
1.404936e+003,9.765483e+001
1.405901e+003,9.911320e+001
1.406865e+003,9.983720e+001
1.407829e+003,9.978579e+001
1.408793e+003,9.829843e+001
1.409757e+003,9.596154e+001
1.410722e+003,9.517415e+001
1.411686e+003,9.663773e+001
1.412650e+003,9.864301e+001
1.413614e+003,1.005524e+002
1.414579e+003,1.021329e+002
1.415543e+003,1.030350e+002
1.416507e+003,1.034513e+002
1.417471e+003,1.036486e+002
1.418436e+003,1.036533e+002
1.419400e+003,1.037988e+002
1.420364e+003,1.046018e+002
1.421328e+003,1.059442e+002
1.422292e+003,1.070225e+002
1.423257e+003,1.078241e+002
1.424221e+003,1.079712e+002
1.425185e+003,1.064056e+002
1.426149e+003,1.052105e+002
1.427114e+003,1.049081e+002
1.428078e+003,1.056583e+002
1.429042e+003,1.081826e+002
1.430006e+003,1.116094e+002
1.430971e+003,1.138605e+002
1.431935e+003,1.139106e+002
1.432899e+003,1.127183e+002
1.433863e+003,1.116476e+002
1.434828e+003,1.107750e+002
1.435792e+003,1.100492e+002
1.436756e+003,1.089408e+002
1.437720e+003,1.085302e+002
1.438684e+003,1.091415e+002
1.439649e+003,1.104924e+002
1.440613e+003,1.132344e+002
1.441577e+003,1.162629e+002
1.442541e+003,1.176934e+002
1.443506e+003,1.171971e+002
1.444470e+003,1.155046e+002
1.445434e+003,1.126038e+002
1.446398e+003,1.105426e+002
1.447363e+003,1.129591e+002
1.448327e+003,1.181186e+002
1.449291e+003,1.219227e+002
1.450255e+003,1.241438e+002
1.451219e+003,1.247253e+002
1.452184e+003,1.224869e+002
1.453148e+003,1.198334e+002
1.454112e+003,1.202531e+002
1.455076e+003,1.231725e+002
1.456041e+003,1.250815e+002
1.457005e+003,1.254321e+002
1.457969e+003,1.256930e+002
1.458933e+003,1.265371e+002
1.459898e+003,1.273558e+002
1.460862e+003,1.278255e+002
1.461826e+003,1.278895e+002
1.462790e+003,1.273161e+002
1.463755e+003,1.262525e+002
1.464719e+003,1.253997e+002
1.465683e+003,1.252512e+002
1.466647e+003,1.259569e+002
1.467611e+003,1.281744e+002
1.468576e+003,1.323903e+002
1.469540e+003,1.340527e+002
1.470504e+003,1.309993e+002
1.471468e+003,1.288026e+002
1.472433e+003,1.282434e+002
1.473397e+003,1.286173e+002
1.474361e+003,1.303396e+002
1.475325e+003,1.323456e+002
1.476290e+003,1.328739e+002
1.477254e+003,1.316585e+002
1.478218e+003,1.301151e+002
1.479182e+003,1.294106e+002
1.480146e+003,1.294775e+002
1.481111e+003,1.301545e+002
1.482075e+003,1.314980e+002
1.483039e+003,1.320598e+002
1.484003e+003,1.314924e+002
1.484968e+003,1.307776e+002
1.485932e+003,1.300290e+002
1.486896e+003,1.295678e+002
1.487860e+003,1.299272e+002
1.488825e+003,1.305257e+002
1.489789e+003,1.298582e+002
1.490753e+003,1.276958e+002
1.491717e+003,1.260739e+002
1.492682e+003,1.263494e+002
1.493646e+003,1.278323e+002
1.494610e+003,1.304323e+002
1.495574e+003,1.332894e+002
1.496538e+003,1.329417e+002
1.497503e+003,1.285164e+002
1.498467e+003,1.251320e+002
1.499431e+003,1.261497e+002
1.500395e+003,1.288132e+002
1.501360e+003,1.298039e+002
1.502324e+003,1.295127e+002
1.503288e+003,1.294300e+002
1.504252e+003,1.297357e+002
1.505217e+003,1.298372e+002
1.506181e+003,1.293125e+002
1.507145e+003,1.287509e+002
1.508109e+003,1.288816e+002
1.509073e+003,1.292280e+002
1.510038e+003,1.288685e+002
1.511002e+003,1.277669e+002
1.511966e+003,1.268118e+002
1.512930e+003,1.266268e+002
1.513895e+003,1.267798e+002
1.514859e+003,1.261009e+002
1.515823e+003,1.245125e+002
1.516787e+003,1.247535e+002
1.517752e+003,1.283563e+002
1.518716e+003,1.304703e+002
1.519680e+003,1.288888e+002
1.520644e+003,1.264261e+002
1.521609e+003,1.228193e+002
1.522573e+003,1.199630e+002
1.523537e+003,1.209434e+002
1.524501e+003,1.250673e+002
1.525465e+003,1.285141e+002
1.526430e+003,1.289657e+002
1.527394e+003,1.274276e+002
1.528358e+003,1.254140e+002
1.529322e+003,1.230077e+002
1.530287e+003,1.215475e+002
1.531251e+003,1.216713e+002
1.532215e+003,1.217207e+002
1.533179e+003,1.214771e+002
1.534144e+003,1.212319e+002
1.535108e+003,1.213789e+002
1.536072e+003,1.213211e+002
1.537036e+003,1.200498e+002
1.538000e+003,1.180557e+002
1.538965e+003,1.170648e+002
1.539929e+003,1.177041e+002
1.540893e+003,1.182922e+002
1.541857e+003,1.168789e+002
1.542822e+003,1.142738e+002
1.543786e+003,1.135022e+002
1.544750e+003,1.152887e+002
1.545714e+003,1.161393e+002
1.546679e+003,1.156112e+002
1.547643e+003,1.146701e+002
1.548607e+003,1.132613e+002
1.549571e+003,1.120668e+002
1.550536e+003,1.116875e+002
1.551500e+003,1.118709e+002
1.552464e+003,1.122942e+002
1.553428e+003,1.128787e+002
1.554392e+003,1.129176e+002
1.555357e+003,1.116186e+002
1.556321e+003,1.096524e+002
1.557285e+003,1.085202e+002
1.558249e+003,1.082621e+002
1.559214e+003,1.078785e+002
1.560178e+003,1.073895e+002
1.561142e+003,1.067415e+002
1.562106e+003,1.052022e+002
1.563071e+003,1.039551e+002
1.564035e+003,1.050508e+002
1.564999e+003,1.071761e+002
1.565963e+003,1.066786e+002
1.566927e+003,1.030912e+002
1.567892e+003,9.958367e+001
1.568856e+003,9.737586e+001
1.569820e+003,9.700523e+001
1.570784e+003,1.006088e+002
1.571749e+003,1.058622e+002
1.572713e+003,1.069170e+002
1.573677e+003,1.038611e+002
1.574641e+003,1.007934e+002
1.575606e+003,9.894353e+001
1.576570e+003,9.722228e+001
1.577534e+003,9.444115e+001
1.578498e+003,9.149979e+001
1.579463e+003,9.027636e+001
1.580427e+003,9.067333e+001
1.581391e+003,9.072508e+001
1.582355e+003,8.974918e+001
1.583319e+003,8.906416e+001
1.584284e+003,9.018678e+001
1.585248e+003,9.156608e+001
1.586212e+003,9.086148e+001
1.587176e+003,8.863282e+001
1.588141e+003,8.675771e+001
1.589105e+003,8.571480e+001
1.590069e+003,8.489606e+001
1.591033e+003,8.370655e+001
1.591998e+003,8.265242e+001
1.592962e+003,8.305223e+001
1.593926e+003,8.439013e+001
1.594890e+003,8.357746e+001
1.595854e+003,7.996767e+001
1.596819e+003,7.684114e+001
1.597783e+003,7.520036e+001
1.598747e+003,7.449677e+001
1.599711e+003,7.513668e+001
1.600676e+003,7.589525e+001
1.601640e+003,7.496468e+001
1.602604e+003,7.274638e+001
1.603568e+003,7.141045e+001
1.604533e+003,7.181525e+001
1.605497e+003,7.225908e+001
1.606461e+003,7.072745e+001
1.607425e+003,6.816611e+001
1.608390e+003,6.745893e+001
1.609354e+003,6.874220e+001
1.610318e+003,6.927470e+001
1.611282e+003,6.845084e+001
1.612246e+003,6.692482e+001
1.613211e+003,6.428847e+001
1.614175e+003,6.174182e+001
1.615139e+003,6.013174e+001
1.616103e+003,5.928576e+001
1.617068e+003,5.910501e+001
1.618032e+003,5.936990e+001
1.618996e+003,5.910365e+001
1.619960e+003,5.759832e+001
1.620925e+003,5.593826e+001
1.621889e+003,5.604354e+001
1.622853e+003,5.752264e+001
1.623817e+003,5.775914e+001
1.624781e+003,5.670450e+001
1.625746e+003,5.500546e+001
1.626710e+003,5.184615e+001
1.627674e+003,4.945447e+001
1.628638e+003,4.931502e+001
1.629603e+003,4.980906e+001
1.630567e+003,5.022322e+001
1.631531e+003,5.014100e+001
1.632495e+003,4.848055e+001
1.633460e+003,4.532040e+001
1.634424e+003,4.305785e+001
1.635388e+003,4.357641e+001
1.636352e+003,4.529595e+001
1.637317e+003,4.547041e+001
1.638281e+003,4.417303e+001
1.639245e+003,4.258462e+001
1.640209e+003,4.052380e+001
1.641173e+003,3.892262e+001
1.642138e+003,3.832825e+001
1.643102e+003,3.791024e+001
1.644066e+003,3.699455e+001
1.645030e+003,3.620296e+001
1.645995e+003,3.650604e+001
1.646959e+003,3.739424e+001
1.647923e+003,3.736572e+001
1.648887e+003,3.602818e+001
1.649852e+003,3.466276e+001
1.650816e+003,3.435076e+001
1.651780e+003,3.459302e+001
1.652744e+003,3.459639e+001
1.653708e+003,3.432790e+001
1.654673e+003,3.264965e+001
1.655637e+003,2.881269e+001
1.656601e+003,2.609786e+001
1.657565e+003,2.628580e+001
1.658530e+003,2.679258e+001
1.659494e+003,2.611097e+001
1.660458e+003,2.500445e+001
1.661422e+003,2.422903e+001
1.662387e+003,2.380732e+001
1.663351e+003,2.355742e+001
1.664315e+003,2.341265e+001
1.665279e+003,2.325319e+001
1.666244e+003,2.311483e+001
1.667208e+003,2.273058e+001
1.668172e+003,2.114446e+001
1.669136e+003,1.848054e+001
1.670100e+003,1.709034e+001
1.671065e+003,1.741253e+001
1.672029e+003,1.786500e+001
1.672993e+003,1.819818e+001
1.673957e+003,1.829633e+001
1.674922e+003,1.799056e+001
1.675886e+003,1.743558e+001
1.676850e+003,1.660262e+001
1.677814e+003,1.568987e+001
1.678779e+003,1.531194e+001
1.679743e+003,1.566702e+001
1.680707e+003,1.623312e+001
1.681671e+003,1.690828e+001
1.682635e+003,1.716509e+001
1.683600e+003,1.565744e+001
1.684564e+003,1.280579e+001
1.685528e+003,1.119061e+001
1.686492e+003,1.113651e+001
1.687457e+003,1.124960e+001
1.688421e+003,1.100980e+001
1.689385e+003,1.100877e+001
1.690349e+003,1.210400e+001
1.691314e+003,1.348699e+001
1.692278e+003,1.442838e+001
1.693242e+003,1.475316e+001
1.694206e+003,1.392690e+001
1.695171e+003,1.172429e+001
1.696135e+003,9.569214e+000
1.697099e+003,8.244415e+000
1.698063e+003,7.540482e+000
1.699027e+003,7.433737e+000
1.699992e+003,7.712305e+000
1.700956e+003,7.522333e+000
1.701920e+003,6.788080e+000
1.702884e+003,6.639356e+000
1.703849e+003,7.666669e+000
1.704813e+003,8.558154e+000
1.705777e+003,8.365210e+000
1.706741e+003,7.395078e+000
1.707706e+003,5.749100e+000
1.708670e+003,3.774426e+000
1.709634e+003,2.802005e+000
1.710598e+003,3.056244e+000
1.711563e+003,3.819537e+000
1.712527e+003,5.453207e+000
1.713491e+003,6.748810e+000
1.714455e+003,6.557022e+000
1.715419e+003,5.473074e+000
1.716384e+003,4.436539e+000
1.717348e+003,3.498651e+000
1.718312e+003,2.243884e+000
1.719276e+003,5.325775e-001
1.720241e+003,-5.888641e-001
1.721205e+003,-2.936859e-001
1.722169e+003,8.191254e-001
1.723133e+003,2.133902e+000
1.724098e+003,3.477289e+000
1.725062e+003,2.956540e+000
1.726026e+003,-3.417450e-001
1.726990e+003,-1.755725e+000
1.727954e+003,1.659341e+000
1.728919e+003,4.201822e+000
1.729883e+003,2.306555e+000
1.730847e+003,-7.878265e-001
1.731811e+003,-1.883041e+000
1.732776e+003,-1.445435e+000
1.733740e+003,-1.049304e+000
1.734704e+003,-1.104218e+000
1.735668e+003,-1.295035e+000
1.736633e+003,-1.445404e+000
1.737597e+003,-1.759921e+000
1.738561e+003,-2.567850e+000
1.739525e+003,-3.572992e+000
1.740490e+003,-3.395590e+000
1.741454e+003,-1.397562e+000
1.742418e+003,-7.178375e-001
1.743382e+003,-2.572397e+000
1.744346e+003,-3.853372e+000
1.745311e+003,-3.616504e+000
1.746275e+003,-3.196255e+000
1.747239e+003,-3.084805e+000
1.748203e+003,-3.410037e+000
1.749168e+003,-4.667779e+000
1.750132e+003,-6.390607e+000
1.751096e+003,-7.334680e+000
1.752060e+003,-7.054318e+000
1.753025e+003,-6.138989e+000
1.753989e+003,-5.089612e+000
1.754953e+003,-4.029221e+000
1.755917e+003,-3.211951e+000
1.756881e+003,-2.637491e+000
1.757846e+003,-2.642600e+000
1.758810e+003,-3.384076e+000
1.759774e+003,-4.160812e+000
1.760738e+003,-5.105713e+000
1.761703e+003,-5.838046e+000
1.762667e+003,-6.050946e+000
1.763631e+003,-6.159696e+000
1.764595e+003,-6.597644e+000
1.765560e+003,-7.098364e+000
1.766524e+003,-7.120755e+000
1.767488e+003,-6.663492e+000
1.768452e+003,-6.177503e+000
1.769417e+003,-5.841629e+000
1.770381e+003,-5.816476e+000
1.771345e+003,-6.639670e+000
1.772309e+003,-7.781964e+000
1.773273e+003,-7.688034e+000
1.774238e+003,-6.514533e+000
1.775202e+003,-6.004990e+000
1.776166e+003,-6.503272e+000
1.777130e+003,-6.600818e+000
1.778095e+003,-5.412900e+000
1.779059e+003,-4.345581e+000
1.780023e+003,-4.823718e+000
1.780987e+003,-6.049933e+000
1.781952e+003,-6.829495e+000
1.782916e+003,-7.205508e+000
1.783880e+003,-7.202685e+000
1.784844e+003,-6.708219e+000
1.785808e+003,-6.236841e+000
1.786773e+003,-5.895218e+000
1.787737e+003,-5.765866e+000
1.788701e+003,-6.116846e+000
1.789665e+003,-6.607144e+000
1.790630e+003,-6.569785e+000
1.791594e+003,-6.200372e+000
1.792558e+003,-6.422229e+000
1.793522e+003,-7.411050e+000
1.794487e+003,-8.269312e+000
1.795451e+003,-8.428510e+000
1.796415e+003,-8.081571e+000
1.797379e+003,-7.455600e+000
1.798344e+003,-6.670715e+000
1.799308e+003,-6.237320e+000
1.800272e+003,-6.385437e+000
1.801236e+003,-6.093122e+000
1.802201e+003,-3.981760e+000
1.803165e+003,-3.461926e+000
1.804129e+003,-6.875638e+000
1.805093e+003,-9.822470e+000
1.806057e+003,-9.604358e+000
1.807022e+003,-7.940640e+000
1.807986e+003,-6.518872e+000
1.808950e+003,-5.593512e+000
1.809914e+003,-4.766131e+000
1.810879e+003,-4.046967e+000
1.811843e+003,-4.301190e+000
1.812807e+003,-6.218131e+000
1.813771e+003,-8.513229e+000
1.814736e+003,-9.074411e+000
1.815700e+003,-8.176962e+000
1.816664e+003,-7.394806e+000
1.817628e+003,-6.716657e+000
1.818593e+003,-6.373343e+000
1.819557e+003,-6.501556e+000
1.820521e+003,-6.537802e+000
1.821485e+003,-6.243472e+000
1.822449e+003,-5.869443e+000
1.823414e+003,-5.509451e+000
1.824378e+003,-5.303744e+000
1.825342e+003,-5.428595e+000
1.826306e+003,-5.816293e+000
1.827271e+003,-6.365390e+000
1.828235e+003,-7.120004e+000
1.829199e+003,-7.357660e+000
1.830163e+003,-6.169434e+000
1.831128e+003,-4.967664e+000
1.832092e+003,-5.248258e+000
1.833056e+003,-6.124719e+000
1.834020e+003,-6.125485e+000
1.834984e+003,-5.457794e+000
1.835949e+003,-5.161410e+000
1.836913e+003,-5.396484e+000
1.837877e+003,-5.433225e+000
1.838841e+003,-4.878876e+000
1.839806e+003,-4.386655e+000
1.840770e+003,-4.726135e+000
1.841734e+003,-5.608362e+000
1.842698e+003,-6.147034e+000
1.843663e+003,-6.319104e+000
1.844627e+003,-5.997406e+000
1.845591e+003,-4.330582e+000
1.846555e+003,-3.570077e+000
1.847520e+003,-4.393396e+000
1.848484e+003,-5.400903e+000
1.849448e+003,-6.298816e+000
1.850412e+003,-6.871377e+000
1.851376e+003,-7.015500e+000
1.852341e+003,-6.736423e+000
1.853305e+003,-5.816354e+000
1.854269e+003,-4.504035e+000
1.855233e+003,-3.621002e+000
1.856198e+003,-3.526901e+000
1.857162e+003,-3.875830e+000
1.858126e+003,-4.452203e+000
1.859090e+003,-5.035934e+000
1.860055e+003,-5.174985e+000
1.861019e+003,-4.968606e+000
1.861983e+003,-4.789615e+000
1.862947e+003,-4.641208e+000
1.863911e+003,-4.588696e+000
1.864876e+003,-4.651956e+000
1.865840e+003,-4.664017e+000
1.866804e+003,-4.480121e+000
1.867768e+003,-4.368323e+000
1.868733e+003,-5.059393e+000
1.869697e+003,-5.928375e+000
1.870661e+003,-4.641889e+000
1.871625e+003,-1.178738e+000
1.872590e+003,3.456512e-001
1.873554e+003,-1.779871e+000
1.874518e+003,-3.212677e+000
1.875482e+003,-1.907019e+000
1.876447e+003,-5.666016e-001
1.877411e+003,-1.023547e+000
1.878375e+003,-2.128781e+000
1.879339e+003,-2.766071e+000
1.880303e+003,-2.880801e+000
1.881268e+003,-2.574747e+000
1.882232e+003,-1.970050e+000
1.883196e+003,-1.360944e+000
1.884160e+003,-8.936402e-001
1.885125e+003,-4.156647e-001
1.886089e+003,2.438843e-001
1.887053e+003,9.270843e-001
1.888017e+003,1.243240e+000
1.888982e+003,1.203958e+000
1.889946e+003,1.016010e+000
1.890910e+003,6.912231e-001
1.891874e+003,1.170013e-001
1.892839e+003,-1.120789e+000
1.893803e+003,-1.754324e+000
1.894767e+003,-7.962524e-001
1.895731e+003,5.790375e-001
1.896695e+003,1.396011e+000
1.897660e+003,1.849707e+000
1.898624e+003,2.420822e+000
1.899588e+003,3.010541e+000
1.900552e+003,2.523999e+000
1.901517e+003,2.014099e-001
1.902481e+003,-1.207797e+000
1.903445e+003,1.416687e-001
1.904409e+003,1.886581e+000
1.905374e+003,2.934640e+000
1.906338e+003,3.208935e+000
1.907302e+003,2.093710e+000
1.908266e+003,2.740356e-001
1.909230e+003,-9.256287e-001
1.910195e+003,-1.260236e+000
1.911159e+003,-1.156601e+000
1.912123e+003,-7.999390e-001
1.913087e+003,1.363068e-001
1.914052e+003,2.023849e+000
1.915016e+003,3.761441e+000
1.915980e+003,2.869195e+000
1.916944e+003,-3.954224e-001
1.917909e+003,-2.653723e+000
1.918873e+003,-3.846475e+000
1.919837e+003,-4.199570e+000
1.920801e+003,-3.422604e+000
1.921766e+003,-2.697473e+000
1.922730e+003,-2.421548e+000
1.923694e+003,-2.379321e+000
1.924658e+003,-2.800973e+000
1.925622e+003,-3.049841e+000
1.926587e+003,-1.884805e+000
1.927551e+003,1.194885e-001
1.928515e+003,7.484039e-001
1.929479e+003,-3.622070e-001
1.930444e+003,-1.169281e+000
1.931408e+003,-9.966339e-001
1.932372e+003,-6.142395e-001
1.933336e+003,-3.559570e-001
1.934301e+003,-3.916321e-002
1.935265e+003,8.729340e-001
1.936229e+003,1.702762e+000
1.937193e+003,1.168957e+000
1.938157e+003,-2.962494e-001
1.939122e+003,-1.362463e+000
1.940086e+003,-1.576044e+000
1.941050e+003,-9.025757e-001
1.942014e+003,6.160248e-001
1.942979e+003,1.848859e+000
1.943943e+003,1.255258e+000
1.944907e+003,-1.866394e-001
1.945871e+003,7.154633e-001
1.946836e+003,3.790683e+000
1.947800e+003,4.535547e+000
1.948764e+003,2.522259e+000
1.949728e+003,7.276337e-001
1.950693e+003,-3.804626e-001
1.951657e+003,-7.484649e-001
1.952621e+003,1.209412e-002
1.953585e+003,9.254791e-001
1.954549e+003,1.010782e+000
1.955514e+003,6.078216e-001
1.956478e+003,4.188751e-001
1.957442e+003,4.339722e-001
1.958406e+003,5.074738e-001
1.959371e+003,6.522003e-001
1.960335e+003,7.671784e-001
1.961299e+003,7.965180e-001
1.962263e+003,8.954529e-001
1.963228e+003,1.277920e+000
1.964192e+003,1.545602e+000
1.965156e+003,8.927887e-001
1.966120e+003,3.388824e-001
1.967084e+003,1.620050e+000
1.968049e+003,4.042358e+000
1.969013e+003,5.610571e+000
1.969977e+003,5.807340e+000
1.970941e+003,5.392352e+000
1.971906e+003,4.772290e+000
1.972870e+003,4.219391e+000
1.973834e+003,4.233441e+000
1.974798e+003,4.331824e+000
1.975763e+003,3.387662e+000
1.976727e+003,1.826358e+000
1.977691e+003,9.473327e-001
1.978655e+003,8.074616e-001
1.979620e+003,1.092859e+000
1.980584e+003,1.739526e+000
1.981548e+003,2.515485e+000
1.982512e+003,3.264697e+000
1.983476e+003,4.282227e+000
1.984441e+003,6.042703e+000
1.985405e+003,7.750800e+000
1.986369e+003,7.413321e+000
1.987333e+003,5.111871e+000
1.988298e+003,3.341354e+000
1.989262e+003,2.068698e+000
1.990226e+003,1.275128e+000
1.991190e+003,9.844513e-001
1.992155e+003,1.187036e+000
1.993119e+003,2.448950e+000
1.994083e+003,3.538864e+000
1.995047e+003,3.325287e+000
1.996011e+003,2.988864e+000
1.996976e+003,4.259308e+000
1.997940e+003,6.266150e+000
1.998904e+003,6.755969e+000
1.999868e+003,5.571652e+000
2.000833e+003,4.311780e+000
2.001797e+003,3.113763e+000
2.002761e+003,2.507623e+000
2.003725e+003,2.969980e+000
2.004690e+003,3.778180e+000
2.005654e+003,4.643466e+000
2.006618e+003,5.463019e+000
2.007582e+003,6.299017e+000
2.008547e+003,6.959939e+000
2.009511e+003,6.955026e+000
2.010475e+003,6.488263e+000
2.011439e+003,6.430051e+000
2.012403e+003,7.007767e+000
2.013368e+003,7.479510e+000
2.014332e+003,7.315009e+000
2.015296e+003,6.891070e+000
2.016260e+003,6.870132e+000
2.017225e+003,6.857825e+000
2.018189e+003,5.320346e+000
2.019153e+003,2.952969e+000
2.020117e+003,3.079053e+000
2.021082e+003,5.611630e+000
2.022046e+003,7.051303e+000
2.023010e+003,6.542371e+000
2.023974e+003,5.629098e+000
2.024938e+003,5.092608e+000
2.025903e+003,4.814996e+000
2.026867e+003,4.731287e+000
2.027831e+003,4.636697e+000
2.028795e+003,4.010596e+000
2.029760e+003,2.921899e+000
2.030724e+003,2.426004e+000
2.031688e+003,2.742166e+000
2.032652e+003,2.556827e+000
2.033617e+003,1.310724e+000
2.034581e+003,8.279877e-001
2.035545e+003,1.941730e+000
2.036509e+003,3.405158e+000
2.037474e+003,5.012918e+000
2.038438e+003,6.071908e+000
2.039402e+003,5.458423e+000
2.040366e+003,3.958194e+000
2.041330e+003,3.505991e+000
2.042295e+003,4.101233e+000
2.043259e+003,3.604288e+000
2.044223e+003,6.018494e-001
2.045187e+003,-4.397186e-001
2.046152e+003,3.278351e+000
2.047116e+003,6.376264e+000
2.048080e+003,6.418051e+000
2.049044e+003,5.547067e+000
2.050009e+003,4.811246e+000
2.050973e+003,4.511224e+000
2.051937e+003,5.223840e+000
2.052901e+003,6.394919e+000
2.053865e+003,6.689026e+000
2.054830e+003,5.971143e+000
2.055794e+003,5.382010e+000
2.056758e+003,5.433267e+000
2.057722e+003,5.595358e+000
2.058687e+003,5.470645e+000
2.059651e+003,5.342432e+000
2.060615e+003,5.399948e+000
2.061579e+003,5.618100e+000
2.062544e+003,6.353955e+000
2.063508e+003,7.154388e+000
2.064472e+003,6.840552e+000
2.065436e+003,5.568814e+000
2.066401e+003,4.493234e+000
2.067365e+003,3.973550e+000
2.068329e+003,3.533514e+000
2.069293e+003,2.882443e+000
2.070258e+003,2.272275e+000
2.071222e+003,1.938589e+000
2.072186e+003,2.022250e+000
2.073150e+003,3.004437e+000
2.074115e+003,4.647406e+000
2.075079e+003,6.046335e+000
2.076043e+003,7.095258e+000
2.077007e+003,7.297723e+000
2.077971e+003,6.648496e+000
2.078936e+003,6.021701e+000
2.079900e+003,5.721564e+000
2.080864e+003,5.409680e+000
2.081828e+003,4.830215e+000
2.082792e+003,4.315051e+000
2.083757e+003,4.335837e+000
2.084721e+003,4.778100e+000
2.085685e+003,5.324301e+000
2.086649e+003,6.012464e+000
2.087614e+003,6.294980e+000
2.088578e+003,6.141406e+000
2.089542e+003,5.674960e+000
2.090506e+003,4.676190e+000
2.091471e+003,4.007532e+000
2.092435e+003,4.196112e+000
2.093399e+003,4.290765e+000
2.094363e+003,3.494772e+000
2.095328e+003,2.516373e+000
2.096292e+003,2.167914e+000
2.097256e+003,2.385880e+000
2.098220e+003,3.186185e+000
2.099185e+003,4.740326e+000
2.100149e+003,5.564758e+000
2.101113e+003,5.206070e+000
2.102077e+003,4.869409e+000
2.103042e+003,4.793664e+000
2.104006e+003,4.426611e+000
2.104970e+003,2.828326e+000
2.105934e+003,1.907562e+000
2.106898e+003,3.298987e+000
2.107863e+003,5.316949e+000
2.108827e+003,6.624326e+000
2.109791e+003,7.121716e+000
2.110755e+003,6.285730e+000
2.111719e+003,4.227109e+000
2.112684e+003,3.285910e+000
2.113648e+003,4.169775e+000
2.114612e+003,5.191711e+000
2.115576e+003,6.431912e+000
2.116541e+003,7.066635e+000
2.117505e+003,6.426852e+000
2.118469e+003,5.583432e+000
2.119433e+003,4.751578e+000
2.120398e+003,4.466250e+000
2.121362e+003,5.993857e+000
2.122326e+003,8.017774e+000
2.123290e+003,7.702981e+000
2.124255e+003,5.380633e+000
2.125219e+003,4.352866e+000
2.126183e+003,5.618539e+000
2.127147e+003,7.093680e+000
2.128112e+003,8.239301e+000
2.129076e+003,8.773206e+000
2.130040e+003,7.913895e+000
2.131004e+003,7.038535e+000
2.131969e+003,7.391061e+000
2.132933e+003,8.164358e+000
2.133897e+003,8.728681e+000
2.134861e+003,8.857422e+000
2.135825e+003,7.972547e+000
2.136790e+003,6.414386e+000
2.137754e+003,5.494009e+000
2.138718e+003,5.611719e+000
2.139682e+003,5.973020e+000
2.140646e+003,6.106067e+000
2.141611e+003,6.464017e+000
2.142575e+003,7.913538e+000
2.143539e+003,9.161463e+000
2.144503e+003,8.742719e+000
2.145468e+003,7.536224e+000
2.146432e+003,6.300427e+000
2.147396e+003,5.415433e+000
2.148360e+003,5.630014e+000
2.149325e+003,6.643332e+000
2.150289e+003,7.277945e+000
2.151253e+003,7.233533e+000
2.152217e+003,7.289499e+000
2.153182e+003,7.918134e+000
2.154146e+003,8.528338e+000
2.155110e+003,8.501056e+000
2.156074e+003,8.245636e+000
2.157039e+003,8.383047e+000
2.158003e+003,8.480548e+000
2.158967e+003,7.345193e+000
2.159931e+003,5.925323e+000
2.160896e+003,6.580514e+000
2.161860e+003,8.949244e+000
2.162824e+003,1.129258e+001
2.163788e+003,1.291166e+001
2.164752e+003,1.318279e+001
2.165717e+003,1.189963e+001
2.166681e+003,1.029340e+001
2.167645e+003,9.342310e+000
2.168609e+003,9.003046e+000
2.169573e+003,9.662457e+000
2.170538e+003,1.063642e+001
2.171502e+003,1.053208e+001
2.172466e+003,9.614367e+000
2.173430e+003,8.105927e+000
2.174395e+003,6.582352e+000
2.175359e+003,7.061493e+000
2.176323e+003,9.363012e+000
2.177287e+003,1.070404e+001
2.178252e+003,1.006035e+001
2.179216e+003,9.069013e+000
2.180180e+003,8.928815e+000
2.181144e+003,8.869543e+000
2.182109e+003,7.727539e+000
2.183073e+003,6.304886e+000
2.184037e+003,6.458481e+000
2.185001e+003,7.485486e+000
2.185966e+003,7.378268e+000
2.186930e+003,6.641049e+000
2.187894e+003,7.550781e+000
2.188858e+003,9.795446e+000
2.189823e+003,1.022408e+001
2.190787e+003,8.234503e+000
2.191751e+003,6.783624e+000
2.192715e+003,7.478131e+000
2.193679e+003,8.515661e+000
2.194644e+003,8.122006e+000
2.195608e+003,7.213473e+000
2.196572e+003,7.247839e+000
2.197536e+003,7.907580e+000
2.198500e+003,8.518237e+000
2.199465e+003,9.092413e+000
2.200429e+003,9.649084e+000
2.201393e+003,1.017578e+001
2.202357e+003,1.085674e+001
2.203322e+003,1.152166e+001
2.204286e+003,1.089102e+001
2.205250e+003,8.744562e+000
2.206214e+003,7.429251e+000
2.207179e+003,8.548864e+000
2.208143e+003,1.009616e+001
2.209107e+003,9.666407e+000
2.210071e+003,8.190570e+000
2.211036e+003,7.111051e+000
2.212000e+003,6.428180e+000
2.212964e+003,6.007926e+000
2.213928e+003,6.014148e+000
2.214893e+003,7.349802e+000
2.215857e+003,9.669397e+000
2.216821e+003,1.120570e+001
2.217785e+003,1.166168e+001
2.218750e+003,1.250679e+001
2.219714e+003,1.432568e+001
2.220678e+003,1.555540e+001
2.221642e+003,1.489107e+001
2.222606e+003,1.374298e+001
2.223571e+003,1.394483e+001
2.224535e+003,1.483837e+001
2.225499e+003,1.527953e+001
2.226463e+003,1.553392e+001
2.227427e+003,1.598548e+001
2.228392e+003,1.679206e+001
2.229356e+003,1.855451e+001
2.230320e+003,2.096139e+001
2.231284e+003,2.257154e+001
2.232249e+003,2.316175e+001
2.233213e+003,2.416413e+001
2.234177e+003,2.630613e+001
2.235141e+003,2.864197e+001
2.236106e+003,3.039199e+001
2.237070e+003,3.181183e+001
2.238034e+003,3.303344e+001
2.238998e+003,3.417650e+001
2.239963e+003,3.536044e+001
2.240927e+003,3.670852e+001
2.241891e+003,3.839162e+001
2.242855e+003,4.043966e+001
2.243820e+003,4.273719e+001
2.244784e+003,4.536887e+001
2.245748e+003,4.906522e+001
2.246712e+003,5.364863e+001
2.247677e+003,5.673686e+001
2.248641e+003,5.703153e+001
2.249605e+003,5.763036e+001
2.250569e+003,6.179776e+001
2.251533e+003,6.589058e+001
2.252498e+003,6.664922e+001
2.253462e+003,6.549953e+001
2.254426e+003,6.290452e+001
2.255390e+003,6.024365e+001
2.256354e+003,5.971395e+001
2.257319e+003,6.013688e+001
2.258283e+003,5.924850e+001
2.259247e+003,5.684798e+001
2.260211e+003,5.354583e+001
2.261176e+003,4.966110e+001
2.262140e+003,4.611940e+001
2.263104e+003,4.326927e+001
2.264068e+003,4.086436e+001
2.265033e+003,3.889365e+001
2.265997e+003,3.716589e+001
2.266961e+003,3.584622e+001
2.267925e+003,3.438530e+001
2.268890e+003,3.261457e+001
2.269854e+003,3.024748e+001
2.270818e+003,2.623592e+001
2.271782e+003,2.192555e+001
2.272747e+003,1.969138e+001
2.273711e+003,1.930109e+001
2.274675e+003,1.892404e+001
2.275639e+003,1.820518e+001
2.276604e+003,1.728934e+001
2.277568e+003,1.601470e+001
2.278532e+003,1.499166e+001
2.279496e+003,1.442667e+001
2.280460e+003,1.394921e+001
2.281425e+003,1.384875e+001
2.282389e+003,1.329884e+001
2.283353e+003,1.160546e+001
2.284317e+003,9.556494e+000
2.285281e+003,7.557089e+000
2.286246e+003,5.874051e+000
2.287210e+003,4.917676e+000
2.288174e+003,4.643075e+000
2.289138e+003,4.901334e+000
2.290103e+003,5.913150e+000
2.291067e+003,6.255670e+000
2.292031e+003,5.661719e+000
2.292995e+003,4.927515e+000
2.293960e+003,3.839642e+000
2.294924e+003,2.990521e+000
2.295888e+003,2.532019e+000
2.296852e+003,2.332416e+000
2.297817e+003,2.411175e+000
2.298781e+003,2.623618e+000
2.299745e+003,2.934006e+000
2.300709e+003,3.203986e+000
2.301674e+003,3.146198e+000
2.302638e+003,2.775888e+000
2.303602e+003,2.224420e+000
2.304566e+003,1.434341e+000
2.305531e+003,9.997345e-001
2.306495e+003,1.042609e+000
2.307459e+003,7.072021e-001
2.308423e+003,-2.243500e-001
2.309387e+003,-2.591248e-001
2.310352e+003,1.077924e+000
2.311316e+003,1.993301e+000
2.312280e+003,1.610376e+000
2.313244e+003,1.089035e+000
2.314208e+003,1.385190e+000
2.315173e+003,1.937802e+000
2.316137e+003,2.081601e+000
2.317101e+003,1.560376e+000
2.318065e+003,-1.353214e+000
2.319030e+003,-5.336893e+000
2.319994e+003,-4.058493e+000
2.320958e+003,9.278534e-001
2.321922e+003,3.154071e+000
2.322887e+003,2.397073e+000
2.323851e+003,7.923676e-001
2.324815e+003,-9.412903e-001
2.325779e+003,-2.483243e+000
2.326744e+003,-3.605640e+000
2.327708e+003,-3.838409e+000
2.328672e+003,-2.869794e+000
2.329636e+003,-1.717792e+000
2.330601e+003,-1.190204e+000
2.331565e+003,-1.200461e+000
2.332529e+003,-2.076279e+000
2.333493e+003,-3.014981e+000
2.334458e+003,-2.778091e+000
2.335422e+003,-2.239322e+000
2.336386e+003,-2.769162e+000
2.337350e+003,-3.831631e+000
2.338314e+003,-4.306479e+000
2.339279e+003,-4.238495e+000
2.340243e+003,-4.389215e+000
2.341207e+003,-4.846298e+000
2.342171e+003,-4.692420e+000
2.343135e+003,-3.343109e+000
2.344100e+003,-2.829422e+000
2.345064e+003,-4.609186e+000
2.346028e+003,-6.288892e+000
2.346992e+003,-7.380197e+000
2.347957e+003,-7.704825e+000
2.348921e+003,-6.622766e+000
2.349885e+003,-5.359476e+000
2.350849e+003,-4.609097e+000
2.351814e+003,-4.374780e+000
2.352778e+003,-4.993716e+000
2.353742e+003,-5.928674e+000
2.354706e+003,-5.557742e+000
2.355671e+003,-4.066983e+000
2.356635e+003,-4.511963e+000
2.357599e+003,-7.756052e+000
2.358563e+003,-9.297968e+000
2.359528e+003,-8.738815e+000
2.360492e+003,-7.710376e+000
2.361456e+003,-6.163684e+000
2.362420e+003,-4.872510e+000
2.363385e+003,-3.961874e+000
2.364349e+003,-4.062869e+000
2.365313e+003,-5.673322e+000
2.366277e+003,-7.217053e+000
2.367241e+003,-7.183194e+000
2.368206e+003,-6.700729e+000
2.369170e+003,-7.718314e+000
2.370134e+003,-9.422894e+000
2.371098e+003,-9.255588e+000
2.372063e+003,-7.715426e+000
2.373027e+003,-6.642947e+000
2.373991e+003,-6.065686e+000
2.374955e+003,-6.325778e+000
2.375919e+003,-7.113400e+000
2.376884e+003,-7.219275e+000
2.377848e+003,-6.535263e+000
2.378812e+003,-5.511249e+000
2.379776e+003,-4.520966e+000
2.380741e+003,-4.842957e+000
2.381705e+003,-7.246539e+000
2.382669e+003,-9.151581e+000
2.383633e+003,-8.471069e+000
2.384598e+003,-6.822577e+000
2.385562e+003,-4.589826e+000
2.386526e+003,-3.043353e+000
2.387490e+003,-3.641629e+000
2.388455e+003,-4.918497e+000
2.389419e+003,-5.186044e+000
2.390383e+003,-5.425360e+000
2.391347e+003,-8.013644e+000
2.392312e+003,-1.139160e+001
2.393276e+003,-1.137979e+001
2.394240e+003,-8.173700e+000
2.395204e+003,-6.424771e+000
2.396168e+003,-7.019385e+000
2.397133e+003,-7.135214e+000
2.398097e+003,-6.247461e+000
2.399061e+003,-5.639096e+000
2.400025e+003,-5.324457e+000
2.400990e+003,-5.479642e+000
2.401954e+003,-6.613794e+000
2.402918e+003,-6.932809e+000
2.403882e+003,-5.287408e+000
2.404846e+003,-3.636746e+000
2.405811e+003,-3.619821e+000
2.406775e+003,-4.165054e+000
2.407739e+003,-3.707367e+000
2.408703e+003,-2.915118e+000
2.409668e+003,-3.779474e+000
2.410632e+003,-5.826334e+000
2.411596e+003,-6.688074e+000
2.412560e+003,-6.534421e+000
2.413525e+003,-5.664114e+000
2.414489e+003,-4.459073e+000
2.415453e+003,-4.351578e+000
2.416417e+003,-5.252448e+000
2.417382e+003,-6.108878e+000
2.418346e+003,-6.515982e+000
2.419310e+003,-6.176874e+000
2.420274e+003,-5.029938e+000
2.421239e+003,-4.135803e+000
2.422203e+003,-4.255890e+000
2.423167e+003,-4.472998e+000
2.424131e+003,-4.388587e+000
2.425095e+003,-3.834735e+000
2.426060e+003,-1.809552e+000
2.427024e+003,-3.145477e-001
2.427988e+003,-1.087079e+000
2.428952e+003,-2.916104e+000
2.429917e+003,-5.848199e+000
2.430881e+003,-8.097964e+000
2.431845e+003,-6.032376e+000
2.432809e+003,-1.251434e+000
2.433773e+003,4.004211e-002
2.434738e+003,-2.175232e+000
2.435702e+003,-3.576092e+000
2.436666e+003,-4.274353e+000
2.437630e+003,-3.535239e+000
2.438595e+003,-7.546509e-001
2.439559e+003,5.290070e-001
2.440523e+003,-4.068207e-001
2.441487e+003,-4.511475e-001
2.442452e+003,1.335770e+000
2.443416e+003,3.230405e+000
2.444380e+003,4.361273e+000
2.445344e+003,4.557013e+000
2.446309e+003,3.639868e+000
2.447273e+003,2.476822e+000
2.448237e+003,2.024719e+000
2.449201e+003,2.362708e+000
2.450166e+003,4.715979e+000
2.451130e+003,7.104575e+000
2.452094e+003,5.275473e+000
2.453058e+003,1.995233e+000
2.454022e+003,2.015143e+000
2.454987e+003,3.795178e+000
2.455951e+003,4.096375e+000
2.456915e+003,2.932388e+000
2.457879e+003,1.253558e+000
2.458844e+003,-4.136597e-001
2.459808e+003,-7.584594e-001
2.460772e+003,6.368225e-001
2.461736e+003,2.147345e+000
2.462700e+003,3.626865e+000
2.463665e+003,4.774405e+000
2.464629e+003,5.891965e+000
2.465593e+003,6.235376e+000
2.466557e+003,5.290344e+000
2.467522e+003,4.141421e+000
2.468486e+003,2.978842e+000
2.469450e+003,2.544968e+000
2.470414e+003,3.533377e+000
2.471379e+003,4.890869e+000
2.472343e+003,5.350845e+000
2.473307e+003,5.223981e+000
2.474271e+003,5.041458e+000
2.475236e+003,4.992593e+000
2.476200e+003,6.162625e+000
2.477164e+003,7.802686e+000
2.478128e+003,7.232239e+000
2.479093e+003,5.383447e+000
2.480057e+003,4.921896e+000
2.481021e+003,5.632516e+000
2.481985e+003,6.149783e+000
2.482949e+003,6.250037e+000
2.483914e+003,6.262454e+000
2.484878e+003,6.296967e+000
2.485842e+003,6.444089e+000
2.486806e+003,6.771029e+000
2.487771e+003,7.076566e+000
2.488735e+003,6.917038e+000
2.489699e+003,7.334821e+000
2.490663e+003,9.657947e+000
2.491627e+003,1.095856e+001
2.492592e+003,9.343847e+000
2.493556e+003,7.946762e+000
2.494520e+003,8.410406e+000
2.495484e+003,9.329107e+000
2.496449e+003,9.527911e+000
2.497413e+003,9.481451e+000
2.498377e+003,9.925797e+000
2.499341e+003,1.063592e+001
2.500306e+003,1.104320e+001
2.501270e+003,1.118697e+001
2.502234e+003,1.105663e+001
2.503198e+003,1.078723e+001
2.504163e+003,1.088255e+001
2.505127e+003,1.123922e+001
2.506091e+003,1.158203e+001
2.507055e+003,1.185074e+001
2.508020e+003,1.176913e+001
2.508984e+003,1.161603e+001
2.509948e+003,1.276736e+001
2.510912e+003,1.540289e+001
2.511876e+003,1.681298e+001
2.512841e+003,1.556997e+001
2.513805e+003,1.474817e+001
2.514769e+003,1.562120e+001
2.515733e+003,1.658934e+001
2.516698e+003,1.695787e+001
2.517662e+003,1.777195e+001
2.518626e+003,1.979741e+001
2.519590e+003,2.174069e+001
2.520554e+003,2.300176e+001
2.521519e+003,2.356324e+001
2.522483e+003,2.317642e+001
2.523447e+003,2.294751e+001
2.524411e+003,2.460380e+001
2.525376e+003,2.740237e+001
2.526340e+003,2.982447e+001
2.527304e+003,3.154014e+001
2.528268e+003,3.081366e+001
2.529233e+003,2.905056e+001
2.530197e+003,2.961286e+001
2.531161e+003,3.195134e+001
2.532125e+003,3.471335e+001
2.533090e+003,3.742272e+001
2.534054e+003,3.996099e+001
2.535018e+003,4.207795e+001
2.535982e+003,4.267637e+001
2.536947e+003,4.164347e+001
2.537911e+003,4.172453e+001
2.538875e+003,4.397181e+001
2.539839e+003,4.612257e+001
2.540803e+003,4.776574e+001
2.541768e+003,4.949809e+001
2.542732e+003,5.167761e+001
2.543696e+003,5.302604e+001
2.544660e+003,5.311477e+001
2.545625e+003,5.306074e+001
2.546589e+003,5.331920e+001
2.547553e+003,5.418121e+001
2.548517e+003,5.587296e+001
2.549482e+003,5.741213e+001
2.550446e+003,5.772493e+001
2.551410e+003,5.713689e+001
2.552374e+003,5.548521e+001
2.553339e+003,5.383846e+001
2.554303e+003,5.457644e+001
2.555267e+003,5.557225e+001
2.556231e+003,5.361851e+001
2.557196e+003,5.051908e+001
2.558160e+003,4.837849e+001
2.559124e+003,4.734808e+001
2.560088e+003,4.820870e+001
2.561052e+003,4.984351e+001
2.562017e+003,4.779019e+001
2.562981e+003,4.208997e+001
2.563945e+003,4.053599e+001
2.564909e+003,4.450426e+001
2.565874e+003,4.454667e+001
2.566838e+003,3.991613e+001
2.567802e+003,3.791668e+001
2.568766e+003,3.918397e+001
2.569730e+003,3.955391e+001
2.570695e+003,3.815974e+001
2.571659e+003,3.566491e+001
2.572623e+003,3.254741e+001
2.573587e+003,3.032273e+001
2.574552e+003,2.977287e+001
2.575516e+003,2.912027e+001
2.576480e+003,2.710054e+001
2.577444e+003,2.483677e+001
2.578409e+003,2.263695e+001
2.579373e+003,2.080818e+001
2.580337e+003,1.972814e+001
2.581301e+003,1.897390e+001
2.582266e+003,1.820366e+001
2.583230e+003,1.789055e+001
2.584194e+003,1.867078e+001
2.585158e+003,1.941534e+001
2.586123e+003,1.906638e+001
2.587087e+003,1.795952e+001
2.588051e+003,1.649776e+001
2.589015e+003,1.500352e+001
2.589979e+003,1.477633e+001
2.590944e+003,1.526035e+001
2.591908e+003,1.407178e+001
2.592872e+003,1.189207e+001
2.593836e+003,1.011703e+001
2.594801e+003,9.045896e+000
2.595765e+003,9.460144e+000
2.596729e+003,1.058675e+001
2.597693e+003,1.063499e+001
2.598657e+003,9.555243e+000
2.599622e+003,8.230023e+000
2.600586e+003,6.867172e+000
2.601550e+003,6.336130e+000
2.602514e+003,7.424792e+000
2.603479e+003,7.265521e+000
2.604443e+003,5.181113e+000
2.605407e+003,3.873025e+000
2.606371e+003,3.700293e+000
2.607336e+003,3.765954e+000
2.608300e+003,3.872494e+000
2.609264e+003,3.774704e+000
2.610228e+003,3.374170e+000
2.611193e+003,2.819629e+000
2.612157e+003,2.218588e+000
2.613121e+003,1.648840e+000
2.614085e+003,1.105872e+000
2.615050e+003,8.371918e-001
2.616014e+003,1.268286e+000
2.616978e+003,1.712079e+000
2.617942e+003,2.185773e+000
2.618906e+003,2.009506e+000
2.619871e+003,-2.035370e-001
2.620835e+003,-2.078265e+000
2.621799e+003,-1.679742e+000
2.622763e+003,-5.014831e-001
2.623728e+003,3.117920e-001
2.624692e+003,6.479248e-001
2.625656e+003,2.424011e-001
2.626620e+003,-6.404663e-001
2.627584e+003,-1.537256e+000
2.628549e+003,-2.155509e+000
2.629513e+003,-9.448150e-001
2.630477e+003,9.835052e-001
2.631441e+003,8.029358e-001
2.632406e+003,-3.564087e-001
2.633370e+003,1.318390e-001
2.634334e+003,1.528455e+000
2.635298e+003,1.589108e+000
2.636263e+003,5.898803e-001
2.637227e+003,4.742523e-001
2.638191e+003,1.433685e+000
2.639155e+003,1.924924e+000
2.640120e+003,1.791702e+000
2.641084e+003,1.906827e+000
2.642048e+003,2.270508e+000
2.643012e+003,2.671509e+000
2.643977e+003,3.134284e+000
2.644941e+003,3.084314e+000
2.645905e+003,2.433981e+000
2.646869e+003,1.110855e+000
2.647833e+003,-6.735412e-001
2.648798e+003,-1.599869e+000
2.649762e+003,-1.228302e+000
2.650726e+003,-1.025836e+000
2.651690e+003,-1.918146e+000
2.652655e+003,-2.179086e+000
2.653619e+003,-1.756683e-001
2.654583e+003,1.268182e+000
2.655547e+003,6.292359e-001
2.656511e+003,5.653076e-001
2.657476e+003,2.273370e+000
2.658440e+003,3.202447e+000
2.659404e+003,2.184674e+000
2.660368e+003,7.159454e-001
2.661333e+003,-2.365814e-001
2.662297e+003,-6.583496e-001
2.663261e+003,-5.070404e-001
2.664225e+003,-3.102020e-001
2.665190e+003,-7.651215e-001
2.666154e+003,-1.481299e+000
2.667118e+003,-2.454111e+000
2.668082e+003,-2.894824e+000
2.669047e+003,-1.395947e+000
2.670011e+003,1.607697e-001
2.670975e+003,-2.237457e-001
2.671939e+003,-1.219189e+000
2.672904e+003,-1.264957e+000
2.673868e+003,-8.452881e-001
2.674832e+003,-5.667816e-001
2.675796e+003,-6.094849e-001
2.676760e+003,-1.585223e+000
2.677725e+003,-3.097214e+000
2.678689e+003,-3.477887e+000
2.679653e+003,-2.989694e+000
2.680617e+003,-2.134137e+000
2.681582e+003,-1.273831e+000
2.682546e+003,-1.074475e+000
2.683510e+003,-1.304596e+000
2.684474e+003,-1.757852e+000
2.685438e+003,-2.082556e+000
2.686403e+003,-1.275156e+000
2.687367e+003,4.102325e-001
2.688331e+003,7.040283e-001
2.689295e+003,-4.585541e-001
2.690260e+003,-5.899994e-001
2.691224e+003,4.966858e-001
2.692188e+003,6.965942e-001
2.693152e+003,2.416992e-003
2.694117e+003,-5.306091e-001
2.695081e+003,-6.879272e-001
2.696045e+003,2.501190e-001
2.697009e+003,1.811301e+000
2.697974e+003,1.542426e+000
2.698938e+003,-7.983215e-001
2.699902e+003,-2.575790e+000
2.700866e+003,-2.927316e+000
2.701831e+003,-2.568332e+000
2.702795e+003,-1.377704e+000
2.703759e+003,-1.054657e-001
2.704723e+003,1.717194e+000
2.705688e+003,2.125574e+000
2.706652e+003,6.003845e-001
2.707616e+003,-6.107880e-001
2.708580e+003,-9.228973e-001
2.709544e+003,-1.024353e+000
2.710509e+003,-1.197610e+000
2.711473e+003,-1.152805e+000
2.712437e+003,-7.514740e-001
2.713401e+003,-7.575439e-001
2.714365e+003,-1.966757e+000
2.715330e+003,-2.815778e+000
2.716294e+003,-2.036041e+000
2.717258e+003,-1.454761e+000
2.718222e+003,-1.980640e+000
2.719187e+003,-2.427444e+000
2.720151e+003,-2.492859e+000
2.721115e+003,-2.232996e+000
2.722079e+003,-1.634540e+000
2.723044e+003,-1.090286e+000
2.724008e+003,-8.859771e-001
2.724972e+003,-1.134985e+000
2.725936e+003,-2.121164e+000
2.726901e+003,-2.879837e+000
2.727865e+003,-2.144232e+000
2.728829e+003,-9.435638e-001
2.729793e+003,6.470215e-001
2.730758e+003,1.397781e+000
2.731722e+003,-3.712463e-001
2.732686e+003,-2.329922e+000
2.733650e+003,-2.884012e+000
2.734615e+003,-2.784827e+000
2.735579e+003,-2.577109e+000
2.736543e+003,-2.418329e+000
2.737507e+003,-2.561377e+000
2.738471e+003,-2.682986e+000
2.739436e+003,-1.936087e+000
2.740400e+003,-1.030093e+000
2.741364e+003,-1.327914e+000
2.742328e+003,-1.995505e+000
2.743292e+003,-2.236545e+000
2.744257e+003,-2.114551e+000
2.745221e+003,-1.253500e+000
2.746185e+003,-5.700256e-001
2.747149e+003,-1.764606e+000
2.748114e+003,-3.231329e+000
2.749078e+003,-2.436710e+000
2.750042e+003,-3.454712e-001
2.751006e+003,5.813110e-001
2.751971e+003,4.778625e-001
2.752935e+003,-7.766449e-001
2.753899e+003,-2.272147e+000
2.754863e+003,-1.674829e+000
2.755828e+003,-9.955139e-002
2.756792e+003,9.778900e-001
2.757756e+003,1.325244e+000
2.758720e+003,4.847870e-001
2.759685e+003,-8.904297e-001
2.760649e+003,-1.235437e+000
2.761613e+003,-9.941589e-001
2.762577e+003,-1.849680e+000
2.763542e+003,-3.464688e+000
2.764506e+003,-2.861966e+000
2.765470e+003,-5.365814e-001
2.766434e+003,1.475891e+000
2.767398e+003,2.617017e+000
2.768363e+003,7.510163e-001
2.769327e+003,-2.557181e+000
2.770291e+003,-4.144507e+000
2.771255e+003,-4.037433e+000
2.772219e+003,-3.119186e+000
2.773184e+003,-1.803815e+000
2.774148e+003,-1.155280e+000
2.775112e+003,-1.156235e+000
2.776076e+003,-1.213739e+000
2.777041e+003,-1.319858e+000
2.778005e+003,-1.195813e+000
2.778969e+003,-9.533142e-001
2.779933e+003,-1.476566e+000
2.780898e+003,-2.331262e+000
2.781862e+003,-1.823700e+000
2.782826e+003,-4.716187e-001
2.783790e+003,-2.906128e-001
2.784755e+003,-1.220258e+000
2.785719e+003,-1.427557e+000
2.786683e+003,-6.862213e-001
2.787647e+003,-1.191776e+000
2.788612e+003,-3.341431e+000
2.789576e+003,-3.031155e+000
2.790540e+003,-3.827026e-001
2.791504e+003,8.233429e-001
2.792469e+003,6.219940e-001
2.793433e+003,3.182770e-001
2.794397e+003,4.405518e-002
2.795361e+003,-5.590454e-001
2.796325e+003,-1.443906e+000
2.797290e+003,-2.321646e+000
2.798254e+003,-3.057929e+000
2.799218e+003,-2.943771e+000
2.800182e+003,-1.842950e+000
2.801146e+003,-6.579132e-001
2.802111e+003,6.883270e-001
2.803075e+003,1.712881e+000
2.804039e+003,2.333374e+000
2.805003e+003,2.342462e+000
2.805968e+003,1.792642e+000
2.806932e+003,1.088065e+000
2.807896e+003,3.950226e-001
2.808860e+003,-6.089478e-001
2.809825e+003,-1.783948e+000
2.810789e+003,-1.308289e+000
2.811753e+003,1.683655e+000
2.812717e+003,2.346786e+000
2.813682e+003,-2.273865e-002
2.814646e+003,-1.288544e+000
2.815610e+003,-1.354092e+000
2.816574e+003,-3.879822e-001
2.817539e+003,1.191910e+000
2.818503e+003,1.773874e+000
2.819467e+003,1.185321e+000
2.820431e+003,-4.084168e-002
2.821396e+003,-1.532468e+000
2.822360e+003,-2.656070e+000
2.823324e+003,-3.331476e+000
2.824288e+003,-2.432843e+000
2.825252e+003,9.553070e-001
2.826217e+003,1.910269e+000
2.827181e+003,3.676636e-001
2.828145e+003,-3.476685e-001
2.829109e+003,-9.700012e-002
2.830073e+003,1.363159e-001
2.831038e+003,1.546448e-001
2.832002e+003,-1.258514e-001
2.832966e+003,-5.483978e-001
2.833930e+003,-4.340637e-001
2.834895e+003,3.617523e-001
2.835859e+003,1.116025e+000
2.836823e+003,1.938391e+000
2.837787e+003,1.632315e+000
2.838752e+003,8.540954e-002
2.839716e+003,-1.577942e-001
2.840680e+003,7.991760e-001
2.841644e+003,1.223996e+000
2.842609e+003,9.344574e-001
2.843573e+003,2.993530e-001
2.844537e+003,-4.368103e-001
2.845501e+003,-8.726654e-001
2.846466e+003,-9.812530e-001
2.847430e+003,-1.448444e+000
2.848394e+003,-2.490131e+000
2.849358e+003,-2.169260e+000
2.850323e+003,-3.579346e-001
2.851287e+003,5.829010e-001
2.852251e+003,6.215271e-001
2.853215e+003,1.630554e-002
2.854179e+003,-8.329895e-001
2.855144e+003,-1.001639e+000
2.856108e+003,-4.978150e-001
2.857072e+003,4.226410e-001
2.858036e+003,1.501364e+000
2.859000e+003,1.294428e+000
2.859965e+003,-2.724823e-001
2.860929e+003,-9.566803e-001
2.861893e+003,-7.650726e-001
2.862857e+003,-2.154144e-001
2.863822e+003,5.191101e-001
2.864786e+003,4.207153e-002
2.865750e+003,-9.055725e-001
2.866714e+003,5.299377e-001
2.867679e+003,3.202847e+000
2.868643e+003,3.257153e+000
2.869607e+003,9.744232e-001
2.870571e+003,-1.131989e-001
2.871536e+003,3.742981e-002
2.872500e+003,8.444306e-001
2.873464e+003,2.197998e+000
2.874428e+003,1.868018e+000
2.875393e+003,4.261047e-001
2.876357e+003,-6.143616e-001
2.877321e+003,-8.556458e-001
2.878285e+003,1.148254e+000
2.879250e+003,3.709830e+000
2.880214e+003,2.891776e+000
2.881178e+003,-3.465271e-002
2.882142e+003,-3.609711e-001
2.883106e+003,1.138361e+000
2.884071e+003,1.010599e+000
2.885035e+003,-1.665466e-001
2.885999e+003,1.273532e+000
2.886963e+003,3.845432e+000
2.887927e+003,3.935330e+000
2.888892e+003,2.611868e+000
2.889856e+003,1.149734e+000
2.890820e+003,1.501648e-001
2.891784e+003,4.862091e-001
2.892749e+003,1.511237e+000
2.893713e+003,2.304797e+000
2.894677e+003,2.643829e+000
2.895641e+003,1.805878e+000
2.896606e+003,4.282715e-001
2.897570e+003,4.312409e-001
2.898534e+003,1.025360e+000
2.899498e+003,7.009155e-001
2.900463e+003,3.997162e-001
2.901427e+003,1.578839e+000
2.902391e+003,3.098624e+000
2.903355e+003,4.023444e+000
2.904320e+003,3.978735e+000
2.905284e+003,2.344092e+000
2.906248e+003,3.371399e-001
2.907212e+003,-1.989746e-001
2.908177e+003,1.006317e-001
2.909141e+003,3.998566e-001
2.910105e+003,6.463226e-001
2.911069e+003,7.848908e-001
2.912033e+003,8.393768e-001
2.912998e+003,1.072299e+000
2.913962e+003,8.488617e-001
2.914926e+003,-5.294830e-001
2.915890e+003,-1.408881e+000
2.916854e+003,-4.951080e-001
2.917819e+003,3.886352e-001
2.918783e+003,-7.032684e-001
2.919747e+003,-1.963947e+000
2.920711e+003,-1.356772e+000
2.921676e+003,-3.819031e-001
2.922640e+003,2.546356e-001
2.923604e+003,6.109985e-001
2.924568e+003,3.981323e-001
2.925533e+003,7.920502e-001
2.926497e+003,2.262906e+000
2.927461e+003,3.739459e+000
2.928425e+003,4.782053e+000
2.929390e+003,1.809985e+000
2.930354e+003,-8.810823e+000
2.931318e+003,-1.544216e+001
2.932282e+003,-6.546374e+000
2.933247e+003,2.672180e-001
2.934211e+003,-3.959228e-001
2.935175e+003,-1.370895e+000
2.936139e+003,-2.565762e+000
2.937104e+003,-1.957819e+000
2.938068e+003,7.413849e-001
2.939032e+003,2.650601e+000
2.939996e+003,2.815366e+000
2.940960e+003,2.039139e+000
2.941925e+003,6.617706e-001
2.942889e+003,-2.202881e-001
2.943853e+003,-5.942383e-002
2.944817e+003,9.252930e-002
2.945781e+003,1.490234e-001
2.946746e+003,5.433990e-001
2.947710e+003,1.237357e+000
2.948674e+003,1.637592e+000
2.949638e+003,1.778317e+000
2.950603e+003,2.296805e+000
2.951567e+003,3.012775e+000
2.952531e+003,2.541275e+000
2.953495e+003,9.037110e-001
2.954460e+003,1.146103e+000
2.955424e+003,3.349698e+000
2.956388e+003,3.159070e+000
2.957352e+003,9.193298e-001
2.958317e+003,1.267090e-002
2.959281e+003,2.222839e-001
2.960245e+003,1.249490e+000
2.961209e+003,2.176120e+000
2.962174e+003,7.464630e-001
2.963138e+003,-1.575424e+000
2.964102e+003,-1.073132e+000
2.965066e+003,1.172580e+000
2.966031e+003,2.726630e+000
2.966995e+003,3.692526e+000
2.967959e+003,4.499893e+000
2.968923e+003,4.873847e+000
2.969887e+003,3.630524e+000
2.970852e+003,2.270667e+000
2.971816e+003,3.382102e+000
2.972780e+003,4.532477e+000
2.973744e+003,2.687726e+000
2.974708e+003,2.442780e-001
2.975673e+003,-9.589966e-001
2.976637e+003,-1.040866e+000
2.977601e+003,4.766846e-003
2.978565e+003,1.208002e+000
2.979530e+003,1.091296e+000
2.980494e+003,8.356384e-001
2.981458e+003,1.275769e+000
2.982422e+003,2.104620e+000
2.983387e+003,3.880029e+000
2.984351e+003,4.332623e+000
2.985315e+003,2.502618e+000
2.986279e+003,6.763000e-001
2.987244e+003,3.736267e-002
2.988208e+003,2.709381e-001
2.989172e+003,1.216663e+000
2.990136e+003,2.167941e+000
2.991101e+003,3.368680e+000
2.992065e+003,3.062262e+000
2.993029e+003,-3.636322e-001
2.993993e+003,-1.469723e+000
2.994958e+003,4.296936e-001
2.995922e+003,1.314111e+000
2.996886e+003,6.237030e-001
2.997850e+003,4.061371e-001
2.998814e+003,1.122742e+000
2.999779e+003,1.953406e+000
3.000743e+003,2.642386e+000
3.001707e+003,2.802924e+000
3.002671e+003,2.423395e+000
3.003635e+003,1.794717e+000
3.004600e+003,9.109741e-001
3.005564e+003,-3.400635e-001
3.006528e+003,-1.630780e+000
3.007492e+003,-2.152859e+000
3.008457e+003,-1.790851e+000
3.009421e+003,5.255737e-002
3.010385e+003,2.412933e+000
3.011349e+003,3.002209e+000
3.012314e+003,2.240714e+000
3.013278e+003,1.088620e+000
3.014242e+003,-9.644470e-002
3.015206e+003,1.228027e-002
3.016171e+003,8.007721e-001
3.017135e+003,1.557614e+000
3.018099e+003,2.049182e+000
3.019063e+003,1.888046e+000
3.020028e+003,1.587585e+000
3.020992e+003,1.605240e+000
3.021956e+003,1.569397e+000
3.022920e+003,1.117911e+000
3.023885e+003,7.158508e-001
3.024849e+003,9.479614e-001
3.025813e+003,1.260840e+000
3.026777e+003,1.148520e+000
3.027741e+003,9.014770e-001
3.028706e+003,4.971039e-001
3.029670e+003,2.837036e-001
3.030634e+003,3.466400e-001
3.031598e+003,6.820434e-001
3.032563e+003,1.249777e+000
3.033527e+003,1.954681e+000
3.034491e+003,2.716168e+000
3.035455e+003,2.966925e+000
3.036420e+003,2.319977e+000
3.037384e+003,2.183109e+000
3.038348e+003,3.216699e+000
3.039312e+003,3.221765e+000
3.040277e+003,2.180286e+000
3.041241e+003,1.754175e+000
3.042205e+003,1.877737e+000
3.043169e+003,1.517621e+000
3.044134e+003,7.605713e-001
3.045098e+003,3.794098e-001
3.046062e+003,3.474640e-001
3.047026e+003,-9.686279e-003
3.047990e+003,-5.376740e-001
3.048955e+003,-3.378448e-001
3.049919e+003,3.381867e-001
3.050883e+003,5.427673e-001
3.051847e+003,2.933685e-001
3.052812e+003,-1.010040e+000
3.053776e+003,-2.096341e+000
3.054740e+003,-1.004208e+000
3.055704e+003,5.312378e-001
3.056668e+003,9.490356e-001
3.057633e+003,8.490509e-001
3.058597e+003,8.409546e-001
3.059561e+003,8.765259e-001
3.060525e+003,1.172507e+000
3.061490e+003,9.757782e-001
3.062454e+003,-1.084991e+000
3.063418e+003,-2.468131e+000
3.064382e+003,-2.100224e+000
3.065347e+003,-1.186166e+000
3.066311e+003,-2.990723e-003
3.067275e+003,-1.025757e-001
3.068239e+003,-1.820284e+000
3.069204e+003,-2.588168e+000
3.070168e+003,-1.285861e+000
3.071132e+003,-4.496094e-001
3.072096e+003,-1.405734e+000
3.073061e+003,-1.161337e+000
3.074025e+003,4.456940e-001
3.074989e+003,2.174365e+000
3.075953e+003,3.589453e+000
3.076917e+003,2.798422e+000
3.077882e+003,6.193939e-001
3.078846e+003,-4.450104e-001
3.079810e+003,-3.321625e-001
3.080774e+003,-2.503021e-001
3.081739e+003,-4.664002e-002
3.082703e+003,1.277811e+000
3.083667e+003,2.930777e+000
3.084631e+003,1.737750e+000
3.085595e+003,-3.820557e-001
3.086560e+003,-2.406555e-001
3.087524e+003,5.414764e-001
3.088488e+003,4.677033e-001
3.089452e+003,-1.320892e-001
3.090417e+003,-1.125221e+000
3.091381e+003,-1.809866e+000
3.092345e+003,-1.628567e+000
3.093309e+003,-1.244739e+000
3.094274e+003,-1.233600e+000
3.095238e+003,-1.346901e+000
3.096202e+003,-1.965547e+000
3.097166e+003,-1.415950e+000
3.098131e+003,1.258228e+000
3.099095e+003,1.607584e+000
3.100059e+003,-9.141480e-001
3.101023e+003,-2.179959e+000
3.101988e+003,-1.351250e+000
3.102952e+003,1.234558e-001
3.103916e+003,1.607178e+000
3.104880e+003,1.667545e+000
3.105844e+003,1.577393e-001
3.106809e+003,-3.161377e-001
3.107773e+003,1.339874e-001
3.108737e+003,4.352508e-001
3.109701e+003,3.160644e-001
3.110666e+003,-1.499353e+000
3.111630e+003,-3.434753e+000
3.112594e+003,-2.437469e+000
3.113558e+003,-4.585876e-001
3.114522e+003,-2.754181e-001
3.115487e+003,-8.120788e-001
3.116451e+003,-5.594025e-001
3.117415e+003,4.463501e-002
3.118379e+003,4.588226e-001
3.119344e+003,7.969177e-001
3.120308e+003,1.354285e+000
3.121272e+003,1.377795e+000
3.122236e+003,4.457825e-001
3.123201e+003,-1.967361e-001
3.124165e+003,-1.507217e-001
3.125129e+003,5.387939e-001
3.126093e+003,1.688763e+000
3.127058e+003,1.951776e+000
3.128022e+003,6.270294e-001
3.128986e+003,-2.949768e-001
3.129950e+003,-4.450485e-001
3.130915e+003,-3.489670e-001
3.131879e+003,-9.945526e-002
3.132843e+003,-1.178131e+000
3.133807e+003,-2.788878e+000
3.134771e+003,-2.055754e+000
3.135736e+003,-1.313278e-001
3.136700e+003,-3.791275e-001
3.137664e+003,-1.801869e+000
3.138628e+003,-2.146669e+000
3.139593e+003,-1.867216e+000
3.140557e+003,-2.253615e+000
3.141521e+003,-2.359097e+000
3.142485e+003,1.663620e-001
3.143449e+003,2.446289e+000
3.144414e+003,2.255621e+000
3.145378e+003,6.931244e-001
3.146342e+003,-2.220538e+000
3.147306e+003,-3.085728e+000
3.148271e+003,-4.586533e-001
3.149235e+003,1.450842e+000
3.150199e+003,2.432342e-001
3.151163e+003,-1.118697e+000
3.152128e+003,-1.421606e+000
3.153092e+003,-1.507690e+000
3.154056e+003,-1.456351e+000
3.155020e+003,-6.543884e-001
3.155985e+003,5.979202e-001
3.156949e+003,8.932495e-001
3.157913e+003,3.519058e-001
3.158877e+003,-6.572021e-001
3.159842e+003,-1.541196e+000
3.160806e+003,-9.650589e-001
3.161770e+003,4.318070e-001
3.162734e+003,9.881347e-001
3.163698e+003,1.005533e+000
3.164663e+003,1.315219e+000
3.165627e+003,1.178052e+000
3.166591e+003,-9.914109e-001
3.167555e+003,-2.609821e+000
3.168520e+003,-2.064864e+000
3.169484e+003,-1.476642e+000
3.170448e+003,-1.834332e+000
3.171412e+003,-1.956854e+000
3.172376e+003,-1.155827e+000
3.173341e+003,-3.516556e-001
3.174305e+003,2.573853e-002
3.175269e+003,2.194656e-001
3.176233e+003,3.184433e-001
3.177198e+003,-1.071808e-001
3.178162e+003,-9.675781e-001
3.179126e+003,-1.563484e+000
3.180090e+003,-1.818823e+000
3.181055e+003,-1.762070e+000
3.182019e+003,-1.550989e+000
3.182983e+003,-1.562642e+000
3.183947e+003,-1.620209e+000
3.184912e+003,-1.178850e+000
3.185876e+003,-6.747879e-001
3.186840e+003,-1.511763e+000
3.187804e+003,-2.320538e+000
3.188769e+003,-1.173262e+000
3.189733e+003,-9.600373e-002
3.190697e+003,-2.763123e-001
3.191661e+003,-6.721954e-001
3.192625e+003,-8.401001e-001
3.193590e+003,-9.896942e-001
3.194554e+003,-1.234856e+000
3.195518e+003,-1.591397e+000
3.196482e+003,-2.195216e+000
3.197447e+003,-2.319629e+000
3.198411e+003,-1.976797e+000
3.199375e+003,-6.133881e-001
3.200339e+003,1.425439e+000
3.201303e+003,2.402215e+000
3.202268e+003,2.322147e+000
3.203232e+003,1.216180e+000
3.204196e+003,-2.074783e-001
3.205160e+003,-7.150055e-001
3.206125e+003,-6.060974e-001
3.207089e+003,-3.176361e-001
3.208053e+003,-1.419525e-001
3.209017e+003,-9.939728e-001
3.209982e+003,-1.643646e+000
3.210946e+003,-6.872162e-001
3.211910e+003,2.179581e-001
3.212874e+003,5.035660e-001
3.213839e+003,3.503982e-001
3.214803e+003,-1.225723e-001
3.215767e+003,-1.164337e-001
3.216731e+003,6.065429e-001
3.217696e+003,7.028275e-001
3.218660e+003,-5.064057e-001
3.219624e+003,-5.876862e-001
3.220588e+003,5.303925e-001
3.221552e+003,7.161423e-001
3.222517e+003,1.688370e-001
3.223481e+003,-7.213241e-001
3.224445e+003,-1.594307e+000
3.225409e+003,-1.884047e+000
3.226374e+003,-1.805591e+000
3.227338e+003,-1.677283e+000
3.228302e+003,-1.389314e+000
3.229266e+003,-6.945953e-001
3.230230e+003,-2.736236e-001
3.231195e+003,-1.504688e+000
3.232159e+003,-2.122714e+000
3.233123e+003,-4.183701e-001
3.234087e+003,3.935013e-001
3.235052e+003,-1.702576e-001
3.236016e+003,-4.719605e-001
3.236980e+003,-2.350815e-001
3.237944e+003,-3.652817e-001
3.238909e+003,-9.543350e-001
3.239873e+003,-7.661560e-001
3.240837e+003,6.084900e-002
3.241801e+003,-4.337448e-001
3.242766e+003,-1.732536e+000
3.243730e+003,-1.760104e+000
3.244694e+003,-1.102814e+000
3.245658e+003,-1.970215e-002
3.246623e+003,4.403702e-001
3.247587e+003,-6.688706e-001
3.248551e+003,-2.121884e+000
3.249515e+003,-3.176797e+000
3.250479e+003,-3.380103e+000
3.251444e+003,-2.224896e+000
3.252408e+003,-1.495224e+000
3.253372e+003,-2.610361e+000
3.254336e+003,-3.473593e+000
3.255301e+003,-4.036174e+000
3.256265e+003,-2.605144e+000
3.257229e+003,1.254364e-001
3.258193e+003,7.233933e-001
3.259157e+003,-4.899185e-001
3.260122e+003,-1.616020e+000
3.261086e+003,-2.228806e+000
3.262050e+003,-2.052232e+000
3.263014e+003,-1.270811e+000
3.263979e+003,3.542450e-001
3.264943e+003,1.489893e+000
3.265907e+003,-3.050507e-001
3.266871e+003,-1.971185e+000
3.267836e+003,-1.812262e+000
3.268800e+003,-1.310397e+000
3.269764e+003,-8.802689e-001
3.270728e+003,-6.881027e-001
3.271693e+003,-8.143250e-001
3.272657e+003,-1.527506e+000
3.273621e+003,-2.976671e+000
3.274585e+003,-2.698144e+000
3.275550e+003,-5.352951e-001
3.276514e+003,6.014206e-001
3.277478e+003,8.128616e-001
3.278442e+003,-2.275223e-001
3.279406e+003,-1.467468e+000
3.280371e+003,-1.250659e+000
3.281335e+003,-6.545212e-001
3.282299e+003,-7.291916e-001
3.283263e+003,-4.479462e-001
3.284228e+003,1.256567e+000
3.285192e+003,2.516675e+000
3.286156e+003,1.298332e+000
3.287120e+003,2.135803e-001
3.288084e+003,-2.522339e-001
3.289049e+003,2.108917e-001
3.290013e+003,1.406409e+000
3.290977e+003,9.453171e-001
3.291941e+003,-6.367722e-001
3.292906e+003,-1.858933e-001
3.293870e+003,1.745566e+000
3.294834e+003,1.954799e+000
3.295798e+003,7.912781e-001
3.296763e+003,-1.576791e+000
3.297727e+003,-3.527519e+000
3.298691e+003,-1.579349e+000
3.299655e+003,1.027806e+000
3.300620e+003,2.383084e+000
3.301584e+003,2.439191e+000
3.302548e+003,1.088524e+000
3.303512e+003,4.837494e-001
3.304477e+003,1.346463e+000
3.305441e+003,2.453293e+000
3.306405e+003,3.348264e+000
3.307369e+003,3.124136e+000
3.308333e+003,1.709596e+000
3.309298e+003,2.019911e+000
3.310262e+003,3.367947e+000
3.311226e+003,3.760196e+000
3.312190e+003,3.623700e+000
3.313155e+003,3.869464e+000
3.314119e+003,3.633316e+000
3.315083e+003,2.085083e+000
3.316047e+003,8.233902e-001
3.317011e+003,1.202411e+000
3.317976e+003,1.679550e+000
3.318940e+003,6.379868e-001
3.319904e+003,7.014176e-001
3.320868e+003,2.608148e+000
3.321833e+003,3.704926e+000
3.322797e+003,3.862265e+000
3.323761e+003,3.343131e+000
3.324725e+003,2.558939e+000
3.325690e+003,2.443744e+000
3.326654e+003,2.660519e+000
3.327618e+003,2.232715e+000
3.328582e+003,1.628352e+000
3.329547e+003,1.868130e+000
3.330511e+003,2.285159e+000
3.331475e+003,2.314931e+000
3.332439e+003,1.765247e+000
3.333404e+003,1.754593e-001
3.334368e+003,-1.913437e-001
3.335332e+003,1.002460e+000
3.336296e+003,1.442725e+000
3.337260e+003,6.570953e-001
3.338225e+003,1.040604e-001
3.339189e+003,1.331955e-001
3.340153e+003,4.760376e-001
3.341117e+003,1.003500e+000
3.342082e+003,7.507111e-001
3.343046e+003,3.218246e-001
3.344010e+003,1.046548e+000
3.344974e+003,1.586801e+000
3.345938e+003,8.404068e-001
3.346903e+003,-2.556625e-001
3.347867e+003,-1.254497e+000
3.348831e+003,-1.670145e+000
3.349795e+003,-1.214662e+000
3.350760e+003,-1.043249e+000
3.351724e+003,-2.010449e+000
3.352688e+003,-1.004309e+000
3.353652e+003,1.628915e+000
3.354617e+003,2.064147e+000
3.355581e+003,9.366684e-001
3.356545e+003,-5.737931e-001
3.357509e+003,-1.715247e+000
3.358474e+003,-1.659079e+000
3.359438e+003,-1.520734e+000
3.360402e+003,-2.439363e+000
3.361366e+003,-2.697659e+000
3.362331e+003,3.217926e-001
3.363295e+003,1.830829e+000
3.364259e+003,-9.338150e-001
3.365223e+003,-2.195488e+000
3.366188e+003,-1.659035e+000
3.367152e+003,-6.507614e-001
3.368116e+003,1.529846e-002
3.369080e+003,-1.883128e+000
3.370044e+003,-4.773738e+000
3.371009e+003,-4.368668e+000
3.371973e+003,-2.283441e+000
3.372937e+003,-1.375276e+000
3.373901e+003,-1.206799e+000
3.374865e+003,-1.789374e+000
3.375830e+003,-2.003960e+000
3.376794e+003,-1.206741e+000
3.377758e+003,-8.794082e-001
3.378722e+003,-1.259174e+000
3.379687e+003,-1.563618e+000
3.380651e+003,-1.512355e+000
3.381615e+003,-7.576813e-001
3.382579e+003,4.129593e-001
3.383544e+003,1.309509e-001
3.384508e+003,-1.014345e+000
3.385472e+003,-9.324967e-001
3.386436e+003,-3.669205e-001
3.387401e+003,1.251633e-001
3.388365e+003,8.895874e-004
3.389329e+003,-1.110625e+000
3.390293e+003,-1.701620e+000
3.391258e+003,-1.152939e+000
3.392222e+003,4.517822e-001
3.393186e+003,3.081247e+000
3.394150e+003,4.157580e+000
3.395115e+003,3.386395e+000
3.396079e+003,3.634039e+000
3.397043e+003,4.442569e+000
3.398007e+003,4.181778e+000
3.398971e+003,3.776199e+000
3.399936e+003,4.687842e+000
3.400900e+003,5.812033e+000
3.401864e+003,6.472674e+000
3.402828e+003,6.884253e+000
3.403792e+003,7.205432e+000
3.404757e+003,7.362918e+000
3.405721e+003,6.992920e+000
3.406685e+003,7.624341e+000
3.407649e+003,9.256098e+000
3.408614e+003,9.836157e+000
3.409578e+003,9.995605e+000
3.410542e+003,1.227357e+001
3.411506e+003,1.470955e+001
3.412471e+003,1.374590e+001
3.413435e+003,1.242682e+001
3.414399e+003,1.377015e+001
3.415363e+003,1.596447e+001
3.416328e+003,1.789827e+001
3.417292e+003,1.830106e+001
3.418256e+003,1.561139e+001
3.419220e+003,1.628409e+001
3.420185e+003,2.008377e+001
3.421149e+003,2.151040e+001
3.422113e+003,2.079361e+001
3.423077e+003,2.029222e+001
3.424042e+003,2.043343e+001
3.425006e+003,2.155733e+001
3.425970e+003,2.229815e+001
3.426934e+003,1.993044e+001
