7.140112e+001,4.578765e+001
7.236536e+001,4.584968e+001
7.332959e+001,4.915448e+001
7.429382e+001,5.296912e+001
7.525806e+001,5.801299e+001
7.622229e+001,5.963593e+001
7.718652e+001,5.381028e+001
7.815076e+001,3.574792e+001
7.911499e+001,2.566704e+001
8.007922e+001,2.330377e+001
8.104346e+001,2.618005e+001
8.200769e+001,3.289340e+001
8.297192e+001,4.706099e+001
8.393616e+001,5.885427e+001
8.490039e+001,6.661841e+001
8.586462e+001,7.032310e+001
8.682886e+001,7.036899e+001
8.779310e+001,6.455531e+001
8.875733e+001,5.668075e+001
8.972157e+001,4.825962e+001
9.068580e+001,4.012646e+001
9.165003e+001,3.273199e+001
9.261427e+001,2.897820e+001
9.357850e+001,2.773601e+001
9.454273e+001,2.791829e+001
9.550697e+001,2.899804e+001
9.647120e+001,3.177201e+001
9.743543e+001,3.254838e+001
9.839967e+001,3.072101e+001
9.936390e+001,2.759893e+001
1.003281e+002,2.457987e+001
1.012924e+002,2.101926e+001
1.022566e+002,1.877320e+001
1.032208e+002,1.882145e+001
1.041851e+002,2.047396e+001
1.051493e+002,2.212543e+001
1.061135e+002,2.230111e+001
1.070778e+002,2.188821e+001
1.080420e+002,2.107270e+001
1.090062e+002,1.997548e+001
1.099705e+002,1.868377e+001
1.109347e+002,1.676685e+001
1.118989e+002,1.476351e+001
1.128632e+002,1.392214e+001
1.138274e+002,1.518621e+001
1.147916e+002,1.903986e+001
1.157559e+002,2.106935e+001
1.167201e+002,2.100236e+001
1.176843e+002,1.999274e+001
1.186486e+002,1.944153e+001
1.196128e+002,1.992416e+001
1.205770e+002,1.996879e+001
1.215413e+002,1.941126e+001
1.225055e+002,1.836254e+001
1.234697e+002,1.710472e+001
1.244340e+002,1.585237e+001
1.253982e+002,1.428242e+001
1.263624e+002,1.135314e+001
1.273267e+002,7.407428e+000
1.282909e+002,4.354181e+000
1.292551e+002,8.226263e+000
1.302194e+002,1.440246e+001
1.311836e+002,1.883207e+001
1.321478e+002,1.894772e+001
1.331121e+002,1.471566e+001
1.340763e+002,1.159092e+001
1.350405e+002,9.456988e+000
1.360048e+002,8.158117e+000
1.369690e+002,7.568377e+000
1.379332e+002,8.041095e+000
1.388975e+002,9.001361e+000
1.398617e+002,1.062216e+001
1.408259e+002,1.250889e+001
1.417902e+002,1.415716e+001
1.427544e+002,1.631020e+001
1.437186e+002,1.699118e+001
1.446829e+002,1.486944e+001
1.456471e+002,1.055545e+001
1.466113e+002,5.964697e+000
1.475756e+002,2.626624e+000
1.485398e+002,1.002643e+000
1.495040e+002,2.925885e+000
1.504683e+002,8.619390e+000
1.514325e+002,1.663779e+001
1.523967e+002,1.799468e+001
1.533610e+002,1.427285e+001
1.543252e+002,9.984924e+000
1.552894e+002,8.455139e+000
1.562537e+002,1.107255e+001
1.572179e+002,1.203400e+001
1.581821e+002,9.649317e+000
1.591464e+002,7.002215e+000
1.601106e+002,7.715356e+000
1.610748e+002,1.643996e+001
1.620391e+002,2.162604e+001
1.630033e+002,1.896348e+001
1.639676e+002,1.177282e+001
1.649318e+002,5.228674e+000
1.658960e+002,4.746362e+000
1.668603e+002,6.331201e+000
1.678245e+002,7.732770e+000
1.687887e+002,8.560339e+000
1.697530e+002,9.088165e+000
1.707172e+002,1.015409e+001
1.716814e+002,1.143550e+001
1.726457e+002,1.202780e+001
1.736099e+002,1.153903e+001
1.745741e+002,9.915308e+000
1.755384e+002,8.463641e+000
1.765026e+002,6.844330e+000
1.774668e+002,5.639173e+000
1.784311e+002,5.569220e+000
1.793953e+002,7.525586e+000
1.803595e+002,7.814435e+000
1.813238e+002,4.387567e+000
1.822880e+002,3.644043e-001
1.832522e+002,-1.545447e+000
1.842165e+002,1.168060e+000
1.851807e+002,4.077539e+000
1.861449e+002,3.466742e+000
1.871092e+002,9.523255e-001
1.880734e+002,-1.268402e+000
1.890376e+002,-1.719360e-002
1.900019e+002,3.510803e+000
1.909661e+002,5.483246e+000
1.919303e+002,5.676373e+000
1.928946e+002,4.861267e+000
1.938588e+002,5.526477e+000
1.948230e+002,8.172644e+000
1.957873e+002,1.126892e+001
1.967515e+002,1.431580e+001
1.977157e+002,1.740705e+001
1.986800e+002,2.233580e+001
1.996442e+002,2.851336e+001
2.006084e+002,3.684016e+001
2.015727e+002,5.120823e+001
2.025369e+002,7.241965e+001
2.035011e+002,8.666934e+001
2.044654e+002,8.024379e+001
2.054296e+002,6.670872e+001
2.063938e+002,5.233389e+001
2.073581e+002,4.142499e+001
2.083223e+002,3.460324e+001
2.092865e+002,3.243305e+001
2.102508e+002,3.384783e+001
2.112150e+002,3.803616e+001
2.121792e+002,4.426698e+001
2.131435e+002,5.344367e+001
2.141077e+002,5.852299e+001
2.150719e+002,5.792533e+001
2.160362e+002,5.478059e+001
2.170004e+002,5.370832e+001
2.179646e+002,5.659927e+001
2.189289e+002,5.916813e+001
2.198931e+002,5.839289e+001
2.208573e+002,5.709386e+001
2.218216e+002,6.092403e+001
2.227858e+002,8.033595e+001
2.237500e+002,9.878856e+001
2.247143e+002,1.118249e+002
2.256785e+002,1.179429e+002
2.266427e+002,1.166453e+002
2.276070e+002,1.016252e+002
2.285712e+002,7.967491e+001
2.295354e+002,5.858245e+001
2.304997e+002,4.083179e+001
2.314639e+002,2.654908e+001
2.324281e+002,1.814919e+001
2.333924e+002,1.643083e+001
2.343566e+002,1.550466e+001
2.353208e+002,1.307092e+001
2.362851e+002,8.700610e+000
2.372493e+002,5.579163e+000
2.382135e+002,4.277179e+000
2.391778e+002,3.478387e+000
2.401420e+002,2.555255e+000
2.411062e+002,1.253809e+000
2.420705e+002,2.846680e-001
2.430347e+002,7.413940e-002
2.439989e+002,2.154114e-001
2.449632e+002,4.943054e-001
2.459274e+002,7.700561e-001
2.468916e+002,1.030218e+000
2.478559e+002,1.302655e+000
2.488201e+002,1.541705e+000
2.497843e+002,1.601337e+000
2.507486e+002,1.304504e+000
2.517128e+002,5.577087e-001
2.526770e+002,3.351013e-001
2.536413e+002,8.435547e-001
2.546055e+002,1.572253e+000
2.555697e+002,1.701196e+000
2.565340e+002,3.864380e-001
2.574982e+002,-2.955810e-001
2.584625e+002,2.228088e-001
2.594267e+002,1.461926e+000
2.603909e+002,2.564459e+000
2.613552e+002,2.957165e+000
2.623194e+002,3.004218e+000
2.632836e+002,2.699493e+000
2.642479e+002,2.218561e+000
2.652121e+002,1.847198e+000
2.661763e+002,2.148273e+000
2.671406e+002,2.770685e+000
2.681048e+002,3.170862e+000
2.690690e+002,3.244733e+000
2.700333e+002,3.073444e+000
2.709975e+002,3.006989e+000
2.719617e+002,3.195489e+000
2.729260e+002,3.100922e+000
2.738902e+002,2.470447e+000
2.748544e+002,1.313794e+000
2.758187e+002,3.122559e-001
2.767829e+002,-3.506958e-001
2.777471e+002,-1.103131e+000
2.787114e+002,-2.120111e+000
2.796756e+002,-3.383044e+000
2.806398e+002,-4.479584e+000
2.816041e+002,-5.949585e+000
2.825683e+002,-6.694849e+000
2.835325e+002,-5.343860e+000
2.844968e+002,-1.587427e+000
2.854610e+002,2.772565e+000
2.864252e+002,2.779395e+000
2.873895e+002,3.778931e-001
2.883537e+002,-1.800140e+000
2.893179e+002,-2.083551e+000
2.902822e+002,-3.096252e-001
2.912464e+002,9.495667e-001
2.922106e+002,2.201355e+000
2.931749e+002,2.571069e+000
2.941391e+002,9.780518e-001
2.951033e+002,-3.803528e+000
2.960676e+002,-6.662512e+000
2.970318e+002,-6.401062e+000
2.979960e+002,-5.093543e+000
2.989603e+002,-4.065539e+000
2.999245e+002,-3.925452e+000
3.008887e+002,-4.061200e+000
3.018530e+002,-4.187994e+000
3.028172e+002,-4.195453e+000
3.037814e+002,-3.914593e+000
3.047457e+002,-3.186237e+000
3.057099e+002,-2.141034e+000
3.066741e+002,-1.095081e+000
3.076384e+002,-1.507202e-001
3.086026e+002,2.029541e-001
3.095668e+002,-6.136047e-001
3.105311e+002,-3.177765e+000
3.114953e+002,-4.611005e+000
3.124595e+002,-4.303101e+000
3.134238e+002,-3.433753e+000
3.143880e+002,-3.484259e+000
3.153522e+002,-5.519135e+000
3.163165e+002,-6.726434e+000
3.172807e+002,-6.325592e+000
3.182449e+002,-5.014502e+000
3.192092e+002,-3.579535e+000
3.201734e+002,-2.515741e+000
3.211376e+002,-1.559430e+000
3.221019e+002,-4.748169e-001
3.230661e+002,7.206726e-001
3.240303e+002,2.045831e+000
3.249946e+002,3.582221e+000
3.259588e+002,5.072821e+000
3.269230e+002,5.546893e+000
3.278873e+002,4.958832e+000
3.288515e+002,3.977661e+000
3.298157e+002,3.796924e+000
3.307800e+002,5.273511e+000
3.317442e+002,6.307752e+000
3.327084e+002,6.302167e+000
3.336727e+002,5.927020e+000
3.346369e+002,6.442370e+000
3.356011e+002,9.094068e+000
3.365654e+002,1.137551e+001
3.375296e+002,1.244907e+001
3.384938e+002,1.284429e+001
3.394581e+002,1.333838e+001
3.404223e+002,1.435373e+001
3.413865e+002,1.612040e+001
3.423508e+002,1.866494e+001
3.433150e+002,2.202493e+001
3.442792e+002,2.625165e+001
3.452435e+002,3.153633e+001
3.462077e+002,3.795974e+001
3.471719e+002,4.383516e+001
3.481362e+002,4.811574e+001
3.491004e+002,5.318819e+001
3.500646e+002,6.439164e+001
3.510289e+002,8.241577e+001
3.519931e+002,1.084213e+002
3.529573e+002,1.446453e+002
3.539216e+002,1.881781e+002
3.548858e+002,2.360547e+002
3.558500e+002,3.029354e+002
3.568143e+002,3.498254e+002
3.577785e+002,3.627277e+002
3.587427e+002,3.474559e+002
3.597070e+002,3.137697e+002
3.606712e+002,2.639178e+002
3.616354e+002,2.091673e+002
3.625997e+002,1.626299e+002
3.635639e+002,1.253402e+002
3.645281e+002,9.677763e+001
3.654924e+002,7.582252e+001
3.664566e+002,6.474413e+001
3.674208e+002,5.556284e+001
3.683851e+002,4.869358e+001
3.693493e+002,4.349174e+001
3.703135e+002,3.864967e+001
3.712778e+002,3.415334e+001
3.722420e+002,3.048205e+001
3.732062e+002,2.781431e+001
3.741705e+002,2.590680e+001
3.751347e+002,2.442599e+001
3.760989e+002,2.336755e+001
3.770632e+002,2.254183e+001
3.780274e+002,2.183473e+001
3.789916e+002,2.115389e+001
3.799559e+002,2.042965e+001
3.809201e+002,1.962537e+001
3.818844e+002,1.877029e+001
3.828486e+002,1.767184e+001
3.838128e+002,1.640727e+001
3.847771e+002,1.548810e+001
3.857413e+002,1.569088e+001
3.867055e+002,1.765955e+001
3.876698e+002,1.932206e+001
3.886340e+002,2.033199e+001
3.895982e+002,2.111909e+001
3.905625e+002,2.250904e+001
3.915267e+002,2.580306e+001
3.924909e+002,2.730632e+001
3.934552e+002,2.555376e+001
3.944194e+002,2.235403e+001
3.953836e+002,1.958861e+001
3.963479e+002,1.837776e+001
3.973121e+002,1.788815e+001
3.982763e+002,1.697688e+001
3.992406e+002,1.610097e+001
4.002048e+002,1.594197e+001
4.011690e+002,1.715994e+001
4.021333e+002,1.953787e+001
4.030975e+002,2.121636e+001
4.040617e+002,2.221337e+001
4.050260e+002,2.322531e+001
4.059902e+002,2.498441e+001
4.069544e+002,2.783022e+001
4.079187e+002,3.046037e+001
4.088829e+002,3.192355e+001
4.098471e+002,3.385112e+001
4.108114e+002,3.736535e+001
4.117756e+002,4.271578e+001
4.127398e+002,4.979819e+001
4.137041e+002,6.180346e+001
4.146683e+002,7.305582e+001
4.156325e+002,7.903916e+001
4.165968e+002,7.740069e+001
4.175610e+002,7.140076e+001
4.185252e+002,6.510658e+001
4.194895e+002,5.917706e+001
4.204537e+002,5.464898e+001
4.214179e+002,5.218886e+001
4.223822e+002,5.171555e+001
4.233464e+002,5.172929e+001
4.243106e+002,5.191915e+001
4.252749e+002,5.263628e+001
4.262391e+002,5.321038e+001
4.272033e+002,5.332388e+001
4.281676e+002,5.815109e+001
4.291318e+002,6.943537e+001
4.300960e+002,8.352251e+001
4.310603e+002,9.929713e+001
4.320245e+002,1.164526e+002
4.329887e+002,1.358075e+002
4.339530e+002,1.586047e+002
4.349172e+002,1.837160e+002
4.358814e+002,2.148362e+002
4.368457e+002,2.499842e+002
4.378099e+002,2.822933e+002
4.387741e+002,2.975107e+002
4.397384e+002,2.976213e+002
4.407026e+002,2.874186e+002
4.416668e+002,2.668759e+002
4.426311e+002,2.390169e+002
4.435953e+002,2.140020e+002
4.445595e+002,1.920635e+002
4.455238e+002,1.734736e+002
4.464880e+002,1.588574e+002
4.474522e+002,1.475703e+002
4.484165e+002,1.387150e+002
4.493807e+002,1.347673e+002
4.503449e+002,1.299883e+002
4.513092e+002,1.224378e+002
4.522734e+002,1.129035e+002
4.532376e+002,1.024414e+002
4.542019e+002,9.147284e+001
4.551661e+002,8.120427e+001
4.561303e+002,7.257748e+001
4.570946e+002,6.557320e+001
4.580588e+002,6.009399e+001
4.590230e+002,5.603571e+001
4.599873e+002,5.361556e+001
4.609515e+002,5.219070e+001
4.619157e+002,5.187522e+001
4.628800e+002,5.194899e+001
4.638442e+002,5.161323e+001
4.648084e+002,5.034318e+001
4.657727e+002,5.042687e+001
4.667369e+002,5.218840e+001
4.677011e+002,5.484946e+001
4.686654e+002,5.847184e+001
4.696296e+002,6.313051e+001
4.705938e+002,6.669975e+001
4.715581e+002,6.799913e+001
4.725223e+002,6.741502e+001
4.734865e+002,6.431448e+001
4.744508e+002,5.887927e+001
4.754150e+002,5.252032e+001
4.763792e+002,4.914260e+001
4.773435e+002,4.769652e+001
4.783077e+002,4.542024e+001
4.792719e+002,4.129644e+001
4.802362e+002,3.584209e+001
4.812004e+002,3.189305e+001
4.821646e+002,3.003573e+001
4.831289e+002,2.897977e+001
4.840931e+002,2.949792e+001
4.850573e+002,3.071359e+001
4.860216e+002,3.023993e+001
4.869858e+002,2.558301e+001
4.879500e+002,2.173033e+001
4.889143e+002,2.056104e+001
4.898785e+002,2.112382e+001
4.908427e+002,2.182171e+001
4.918070e+002,2.135322e+001
4.927712e+002,2.020647e+001
4.937354e+002,1.909683e+001
4.946997e+002,1.818840e+001
4.956639e+002,1.785821e+001
4.966281e+002,1.849850e+001
4.975924e+002,2.022220e+001
4.985566e+002,2.205875e+001
4.995208e+002,2.374092e+001
5.004851e+002,2.579272e+001
5.014493e+002,2.895051e+001
5.024135e+002,3.371291e+001
5.033778e+002,3.716129e+001
5.043420e+002,3.826874e+001
5.053063e+002,3.911519e+001
5.062705e+002,4.109956e+001
5.072347e+002,4.422668e+001
5.081990e+002,4.617187e+001
5.091632e+002,4.382578e+001
5.101274e+002,3.979775e+001
5.110917e+002,3.485143e+001
5.120559e+002,2.957030e+001
5.130201e+002,2.458005e+001
5.139844e+002,2.119430e+001
5.149486e+002,1.928479e+001
5.159128e+002,1.713108e+001
5.168771e+002,1.447950e+001
5.178413e+002,1.164642e+001
5.188055e+002,9.297107e+000
5.197698e+002,7.440259e+000
5.207340e+002,6.188153e+000
5.216982e+002,5.847705e+000
5.226625e+002,5.886023e+000
5.236267e+002,5.671863e+000
5.245909e+002,4.857855e+000
5.255552e+002,4.265033e+000
5.265194e+002,4.700025e+000
5.274836e+002,5.300208e+000
5.284479e+002,5.217072e+000
5.294121e+002,4.017096e+000
5.303763e+002,2.331561e+000
5.313406e+002,1.448279e+000
5.323048e+002,1.098791e+000
5.332690e+002,1.047504e+000
5.342333e+002,1.209503e+000
5.351975e+002,1.537921e+000
5.361617e+002,1.579871e+000
5.371260e+002,1.043359e+000
5.380902e+002,7.337341e-001
5.390544e+002,9.428467e-001
5.400187e+002,1.451166e+000
5.409829e+002,1.594702e+000
5.419471e+002,7.855713e-001
5.429114e+002,2.791199e-001
5.438756e+002,5.520996e-001
5.448398e+002,1.273456e+000
5.458041e+002,1.964539e+000
5.467683e+002,2.322748e+000
5.477325e+002,2.426752e+000
5.486968e+002,2.374976e+000
5.496610e+002,2.219562e+000
5.506252e+002,2.110028e+000
5.515895e+002,2.171051e+000
5.525537e+002,2.380749e+000
5.535179e+002,1.871039e+000
5.544822e+002,3.757507e-001
5.554464e+002,-7.770264e-001
5.564106e+002,-7.757508e-001
5.573749e+002,3.685364e-001
5.583391e+002,1.201941e+000
5.593033e+002,1.321728e+000
5.602676e+002,1.437598e+000
5.612318e+002,1.767407e+000
5.621960e+002,2.254083e+000
5.631603e+002,2.681390e+000
5.641245e+002,2.987939e+000
5.650887e+002,3.037689e+000
5.660530e+002,2.559845e+000
5.670172e+002,1.749200e+000
5.679814e+002,9.911499e-001
5.689457e+002,6.968689e-001
5.699099e+002,8.623596e-001
5.708741e+002,1.196375e+000
5.718384e+002,1.802716e+000
5.728026e+002,2.237262e+000
5.737668e+002,2.083746e+000
5.747311e+002,1.209961e+000
5.756953e+002,2.749695e-001
5.766595e+002,-9.140564e-001
5.776238e+002,-1.934900e+000
5.785880e+002,-2.646484e+000
5.795522e+002,-3.029944e+000
5.805165e+002,-3.127033e+000
5.814807e+002,-2.454419e+000
5.824449e+002,-1.919031e+000
5.834092e+002,-2.259497e+000
5.843734e+002,-3.259698e+000
5.853376e+002,-4.201404e+000
5.863019e+002,-4.177698e+000
5.872661e+002,-3.424365e+000
5.882303e+002,-3.574176e+000
5.891946e+002,-4.661822e+000
5.901588e+002,-5.595319e+000
5.911230e+002,-5.116437e+000
5.920873e+002,-2.621124e+000
5.930515e+002,-1.169818e+000
5.940157e+002,-1.007880e+000
5.949800e+002,-1.209528e+000
5.959442e+002,-1.487091e+000
5.969084e+002,-1.791119e+000
5.978727e+002,-1.922760e+000
5.988369e+002,-1.708777e+000
5.998011e+002,-1.307544e+000
6.007654e+002,-4.765625e-001
6.017296e+002,5.311767e-001
6.026938e+002,1.071527e+000
6.036581e+002,2.122986e-001
6.046223e+002,-1.415399e+000
6.055865e+002,-1.731213e+000
6.065508e+002,-7.906494e-001
6.075150e+002,3.901916e-001
6.084792e+002,6.628418e-001
6.094435e+002,-3.143249e-001
6.104077e+002,-3.200561e-001
6.113719e+002,1.273450e+000
6.123362e+002,2.804089e+000
6.133004e+002,3.226752e+000
6.142646e+002,2.531415e+000
6.152289e+002,2.243176e+000
6.161931e+002,3.624371e+000
6.171573e+002,4.947913e+000
6.181216e+002,5.379181e+000
6.190858e+002,5.230927e+000
6.200500e+002,5.476953e+000
6.210143e+002,7.197028e+000
6.219785e+002,9.599762e+000
6.229427e+002,1.106479e+001
6.239070e+002,1.167758e+001
6.248712e+002,1.188522e+001
6.258354e+002,1.211013e+001
6.267997e+002,1.235913e+001
6.277639e+002,1.329990e+001
6.287281e+002,1.545026e+001
6.296924e+002,1.729713e+001
6.306566e+002,1.799984e+001
6.316208e+002,1.766602e+001
6.325851e+002,1.756966e+001
6.335493e+002,1.913196e+001
6.345135e+002,2.000282e+001
6.354778e+002,1.888752e+001
6.364420e+002,1.654628e+001
6.374063e+002,1.453496e+001
6.383705e+002,1.408043e+001
6.393347e+002,1.451935e+001
6.402990e+002,1.465500e+001
6.412632e+002,1.460663e+001
6.422274e+002,1.467308e+001
6.431917e+002,1.508198e+001
6.441559e+002,1.576860e+001
6.451201e+002,1.543556e+001
6.460844e+002,1.380042e+001
6.470486e+002,1.195386e+001
6.480128e+002,9.795008e+000
6.489771e+002,7.584436e+000
6.499413e+002,6.496783e+000
6.509055e+002,7.948834e+000
6.518698e+002,8.965014e+000
6.528340e+002,8.720551e+000
6.537982e+002,7.689887e+000
6.547625e+002,6.436951e+000
6.557267e+002,5.235449e+000
6.566909e+002,4.150006e+000
6.576552e+002,2.813000e+000
6.586194e+002,1.700848e+000
6.595836e+002,1.872034e+000
6.605479e+002,3.826092e+000
6.615121e+002,7.047320e+000
6.624763e+002,9.262378e+000
6.634406e+002,1.022693e+001
6.644048e+002,1.075421e+001
6.653690e+002,1.077461e+001
6.663333e+002,1.035159e+001
6.672975e+002,9.581286e+000
6.682617e+002,8.178339e+000
6.692260e+002,7.287610e+000
6.701902e+002,7.345508e+000
6.711544e+002,7.774512e+000
6.721187e+002,8.120069e+000
6.730829e+002,8.197912e+000
6.740471e+002,8.167297e+000
6.750114e+002,7.944519e+000
6.759756e+002,7.969409e+000
6.769398e+002,9.169622e+000
6.779041e+002,1.154177e+001
6.788683e+002,1.394810e+001
6.798325e+002,1.428634e+001
6.807968e+002,1.172402e+001
6.817610e+002,1.008491e+001
6.827252e+002,9.856201e+000
6.836895e+002,1.009035e+001
6.846537e+002,9.960541e+000
6.856179e+002,9.367084e+000
6.865822e+002,8.840899e+000
6.875464e+002,8.081244e+000
6.885106e+002,7.822925e+000
6.894749e+002,8.814160e+000
6.904391e+002,1.073631e+001
6.914034e+002,1.242609e+001
6.923676e+002,1.265705e+001
6.933318e+002,1.229857e+001
6.942961e+002,1.255337e+001
6.952603e+002,1.335944e+001
6.962245e+002,1.439683e+001
6.971888e+002,1.537428e+001
6.981530e+002,1.626401e+001
6.991172e+002,1.699058e+001
7.000815e+002,1.732115e+001
7.010457e+002,1.787366e+001
7.020099e+002,1.907648e+001
7.029742e+002,2.080377e+001
7.039384e+002,2.234819e+001
7.049026e+002,2.375488e+001
7.058669e+002,2.454304e+001
7.068311e+002,2.398035e+001
7.077953e+002,2.298933e+001
7.087596e+002,2.288378e+001
7.097238e+002,2.444017e+001
7.106880e+002,2.632994e+001
7.116523e+002,2.569966e+001
7.126165e+002,2.402548e+001
7.135807e+002,2.388822e+001
7.145450e+002,2.623168e+001
7.155092e+002,2.972238e+001
7.164734e+002,3.067101e+001
7.174377e+002,2.754221e+001
7.184019e+002,2.470870e+001
7.193661e+002,2.194778e+001
7.203304e+002,1.952686e+001
7.212946e+002,1.776191e+001
7.222589e+002,1.675604e+001
7.232231e+002,1.628359e+001
7.241873e+002,1.648153e+001
7.251516e+002,1.691077e+001
7.261158e+002,1.760640e+001
7.270800e+002,1.833036e+001
7.280443e+002,1.849128e+001
7.290085e+002,1.719788e+001
7.299727e+002,1.532810e+001
7.309370e+002,1.483179e+001
7.319012e+002,1.554840e+001
7.328654e+002,1.634784e+001
7.338297e+002,1.621155e+001
7.347939e+002,1.509662e+001
7.357581e+002,1.375717e+001
7.367224e+002,1.131684e+001
7.376866e+002,9.754974e+000
7.386508e+002,9.836517e+000
7.396151e+002,1.119151e+001
7.405793e+002,1.290010e+001
7.415435e+002,1.524413e+001
7.425078e+002,1.703466e+001
7.434720e+002,1.739255e+001
7.444362e+002,1.715955e+001
7.454005e+002,1.728455e+001
7.463647e+002,1.818232e+001
7.473289e+002,1.928156e+001
7.482932e+002,1.937198e+001
7.492574e+002,1.886433e+001
7.502216e+002,1.867303e+001
7.511859e+002,1.899865e+001
7.521501e+002,1.942438e+001
7.531143e+002,1.919168e+001
7.540786e+002,1.782257e+001
7.550428e+002,1.711140e+001
7.560070e+002,1.728436e+001
7.569713e+002,1.771828e+001
7.579355e+002,1.818418e+001
7.588997e+002,1.860428e+001
7.598640e+002,1.871128e+001
7.608282e+002,1.801302e+001
7.617924e+002,1.735718e+001
7.627567e+002,1.697767e+001
7.637209e+002,1.699445e+001
7.646851e+002,1.754765e+001
7.656494e+002,1.875343e+001
7.666136e+002,2.051530e+001
7.675778e+002,2.302498e+001
7.685421e+002,2.616751e+001
7.695063e+002,2.777420e+001
7.704705e+002,2.640336e+001
7.714348e+002,2.289894e+001
7.723990e+002,2.061569e+001
7.733632e+002,1.987384e+001
7.743275e+002,2.009507e+001
7.752917e+002,2.222459e+001
7.762559e+002,2.458245e+001
7.772202e+002,2.533712e+001
7.781844e+002,2.401696e+001
7.791486e+002,2.294851e+001
7.801129e+002,2.523041e+001
7.810771e+002,2.793197e+001
7.820413e+002,2.879987e+001
7.830056e+002,2.795733e+001
7.839698e+002,2.700974e+001
7.849340e+002,2.780535e+001
7.858983e+002,3.028205e+001
7.868625e+002,3.213935e+001
7.878267e+002,3.330906e+001
7.887910e+002,3.422066e+001
7.897552e+002,3.505845e+001
7.907194e+002,3.584918e+001
7.916837e+002,3.665657e+001
7.926479e+002,3.742281e+001
7.936121e+002,3.822912e+001
7.945764e+002,3.936122e+001
7.955406e+002,4.036864e+001
7.965048e+002,4.056577e+001
7.974691e+002,3.972331e+001
7.984333e+002,3.903609e+001
7.993975e+002,4.034879e+001
8.003618e+002,4.250013e+001
8.013260e+002,4.433605e+001
8.022902e+002,4.565754e+001
8.032545e+002,4.702891e+001
8.042187e+002,4.938277e+001
8.051829e+002,5.311589e+001
8.061472e+002,5.551878e+001
8.071114e+002,5.522515e+001
8.080756e+002,5.529202e+001
8.090399e+002,5.745294e+001
8.100041e+002,6.149012e+001
8.109683e+002,6.562808e+001
8.119326e+002,6.887804e+001
8.128968e+002,7.290704e+001
8.138610e+002,7.865717e+001
8.148253e+002,8.530795e+001
8.157895e+002,9.195879e+001
8.167537e+002,9.817576e+001
8.177180e+002,1.038474e+002
8.186822e+002,1.084945e+002
8.196464e+002,1.125230e+002
8.206107e+002,1.171140e+002
8.215749e+002,1.225945e+002
8.225391e+002,1.275351e+002
8.235034e+002,1.296303e+002
8.244676e+002,1.281513e+002
8.254318e+002,1.256247e+002
8.263961e+002,1.212948e+002
8.273603e+002,1.173638e+002
8.283245e+002,1.154910e+002
8.292888e+002,1.149325e+002
8.302530e+002,1.127298e+002
8.312172e+002,1.066215e+002
8.321815e+002,9.998976e+001
8.331457e+002,9.495565e+001
8.341099e+002,9.115117e+001
8.350742e+002,8.802853e+001
8.360384e+002,8.527913e+001
8.370026e+002,8.292506e+001
8.379669e+002,8.116408e+001
8.389311e+002,7.999195e+001
8.398953e+002,7.787669e+001
8.408596e+002,7.425959e+001
8.418238e+002,7.020476e+001
8.427880e+002,6.691874e+001
8.437523e+002,6.446741e+001
8.447165e+002,6.256253e+001
8.456807e+002,6.238423e+001
8.466450e+002,6.144249e+001
8.476092e+002,5.800923e+001
8.485734e+002,5.313152e+001
8.495377e+002,4.903056e+001
8.505019e+002,4.695250e+001
8.514661e+002,4.648215e+001
8.524304e+002,4.799067e+001
8.533946e+002,5.020760e+001
8.543588e+002,5.098977e+001
8.553231e+002,4.953856e+001
8.562873e+002,4.663399e+001
8.572515e+002,4.392809e+001
8.582158e+002,4.104091e+001
8.591800e+002,3.998196e+001
8.601442e+002,4.189039e+001
8.611085e+002,4.421096e+001
8.620727e+002,4.536935e+001
8.630369e+002,4.542691e+001
8.640012e+002,4.539857e+001
8.649654e+002,4.588869e+001
8.659296e+002,4.588697e+001
8.668939e+002,4.437318e+001
8.678581e+002,4.233890e+001
8.688223e+002,4.120736e+001
8.697866e+002,4.167091e+001
8.707508e+002,4.288088e+001
8.717150e+002,4.297990e+001
8.726793e+002,4.227041e+001
8.736435e+002,4.244532e+001
8.746077e+002,4.407866e+001
8.755720e+002,4.573800e+001
8.765362e+002,4.535794e+001
8.775004e+002,4.232717e+001
8.784647e+002,3.992833e+001
8.794289e+002,3.832063e+001
8.803931e+002,3.712415e+001
8.813574e+002,3.653472e+001
8.823216e+002,3.620518e+001
8.832858e+002,3.552497e+001
8.842501e+002,3.421865e+001
8.852143e+002,3.271938e+001
8.861785e+002,3.116325e+001
8.871428e+002,2.971487e+001
8.881070e+002,2.866077e+001
8.890712e+002,2.806318e+001
8.900355e+002,2.775580e+001
8.909997e+002,2.750666e+001
8.919639e+002,2.738121e+001
8.929282e+002,2.685345e+001
8.938924e+002,2.544753e+001
8.948566e+002,2.429992e+001
8.958209e+002,2.419190e+001
8.967851e+002,2.486485e+001
8.977493e+002,2.519210e+001
8.987136e+002,2.480184e+001
8.996778e+002,2.414688e+001
9.006420e+002,2.318211e+001
9.016063e+002,2.226144e+001
9.025705e+002,2.190967e+001
9.035347e+002,2.216028e+001
9.044990e+002,2.233069e+001
9.054632e+002,2.143810e+001
9.064274e+002,1.964033e+001
9.073917e+002,1.798418e+001
9.083559e+002,1.651347e+001
9.093201e+002,1.545925e+001
9.102844e+002,1.511716e+001
9.112486e+002,1.542924e+001
9.122128e+002,1.543239e+001
9.131771e+002,1.511735e+001
9.141413e+002,1.443167e+001
9.151055e+002,1.300635e+001
9.160698e+002,1.146693e+001
9.170340e+002,1.040123e+001
9.179982e+002,9.922793e+000
9.189625e+002,9.641821e+000
9.199267e+002,9.215158e+000
9.208909e+002,8.918940e+000
9.218552e+002,9.235601e+000
9.228194e+002,9.963739e+000
9.237836e+002,1.039096e+001
9.247479e+002,9.942945e+000
9.257121e+002,8.875269e+000
9.266763e+002,8.742908e+000
9.276406e+002,1.030628e+001
9.286048e+002,1.105711e+001
9.295690e+002,1.020399e+001
9.305333e+002,8.795324e+000
9.314975e+002,8.039953e+000
9.324617e+002,8.092096e+000
9.334260e+002,8.056317e+000
9.343902e+002,7.437411e+000
9.353545e+002,6.737979e+000
9.363187e+002,6.107398e+000
9.372830e+002,5.563388e+000
9.382472e+002,5.004880e+000
9.392114e+002,4.398395e+000
9.401757e+002,4.055573e+000
9.411399e+002,4.928809e+000
9.421041e+002,6.779599e+000
9.430684e+002,8.136099e+000
9.440326e+002,8.608890e+000
9.449968e+002,8.691980e+000
9.459611e+002,9.076208e+000
9.469253e+002,9.900024e+000
9.478895e+002,1.048954e+001
9.488538e+002,1.034628e+001
9.498180e+002,1.042703e+001
9.507822e+002,1.145180e+001
9.517465e+002,1.265852e+001
9.527107e+002,1.269618e+001
9.536749e+002,1.100302e+001
9.546392e+002,9.282336e+000
9.556034e+002,1.004576e+001
9.565676e+002,1.185076e+001
9.575319e+002,1.293424e+001
9.584961e+002,1.313913e+001
9.594603e+002,1.317855e+001
9.604246e+002,1.373329e+001
9.613888e+002,1.478043e+001
9.623530e+002,1.635331e+001
9.633173e+002,1.899360e+001
9.642815e+002,2.137162e+001
9.652457e+002,2.208831e+001
9.662100e+002,2.323607e+001
9.671742e+002,2.719556e+001
9.681384e+002,3.440601e+001
9.691027e+002,4.385617e+001
9.700669e+002,5.533857e+001
9.710311e+002,6.877643e+001
9.719954e+002,8.874461e+001
9.729596e+002,1.105500e+002
9.739238e+002,1.239601e+002
9.748881e+002,1.220862e+002
9.758523e+002,1.085426e+002
9.768165e+002,9.453869e+001
9.777808e+002,7.961327e+001
9.787450e+002,6.728712e+001
9.797092e+002,5.847257e+001
9.806735e+002,5.197387e+001
9.816377e+002,4.702537e+001
9.826019e+002,4.366743e+001
9.835662e+002,4.077113e+001
9.845304e+002,3.825869e+001
9.854946e+002,3.604368e+001
9.864589e+002,3.427612e+001
9.874231e+002,3.270928e+001
9.883873e+002,3.048520e+001
9.893516e+002,2.751708e+001
9.903158e+002,2.559315e+001
9.912800e+002,2.773251e+001
9.922443e+002,3.318977e+001
9.932085e+002,3.717297e+001
9.941727e+002,3.937882e+001
9.951370e+002,4.231968e+001
9.961012e+002,4.744995e+001
9.970654e+002,5.462714e+001
9.980297e+002,6.362320e+001
9.989939e+002,7.183189e+001
9.999581e+002,8.728293e+001
1.000922e+003,1.050696e+002
1.001887e+003,1.342998e+002
1.002851e+003,1.861370e+002
1.003815e+003,2.577689e+002
1.004779e+003,3.374193e+002
1.005744e+003,4.295015e+002
1.006708e+003,5.005684e+002
1.007672e+003,4.986269e+002
1.008636e+003,4.434383e+002
1.009600e+003,3.718752e+002
1.010565e+003,2.991839e+002
1.011529e+003,2.302408e+002
1.012493e+003,1.759248e+002
1.013457e+003,1.389050e+002
1.014422e+003,1.107419e+002
1.015386e+003,9.333545e+001
1.016350e+003,7.992346e+001
1.017314e+003,6.891120e+001
1.018279e+003,5.969637e+001
1.019243e+003,5.157634e+001
1.020207e+003,4.430585e+001
1.021171e+003,3.842747e+001
1.022135e+003,3.524521e+001
1.023100e+003,3.312374e+001
1.024064e+003,3.059119e+001
1.025028e+003,2.761879e+001
1.025992e+003,2.523922e+001
1.026957e+003,2.441133e+001
1.027921e+003,2.487717e+001
1.028885e+003,2.464574e+001
1.029849e+003,2.330657e+001
1.030814e+003,2.220993e+001
1.031778e+003,2.168725e+001
1.032742e+003,2.116060e+001
1.033706e+003,1.998175e+001
1.034671e+003,1.820067e+001
1.035635e+003,1.675535e+001
1.036599e+003,1.592284e+001
1.037563e+003,1.567721e+001
1.038527e+003,1.643970e+001
1.039492e+003,1.749467e+001
1.040456e+003,1.798060e+001
1.041420e+003,1.757751e+001
1.042384e+003,1.653901e+001
1.043349e+003,1.509669e+001
1.044313e+003,1.332733e+001
1.045277e+003,1.312189e+001
1.046241e+003,1.504826e+001
1.047206e+003,1.665689e+001
1.048170e+003,1.641535e+001
1.049134e+003,1.511117e+001
1.050098e+003,1.477300e+001
1.051063e+003,1.595785e+001
1.052027e+003,1.694414e+001
1.052991e+003,1.692674e+001
1.053955e+003,1.668013e+001
1.054919e+003,1.659701e+001
1.055884e+003,1.664907e+001
1.056848e+003,1.666799e+001
1.057812e+003,1.657789e+001
1.058776e+003,1.645057e+001
1.059741e+003,1.639734e+001
1.060705e+003,1.632780e+001
1.061669e+003,1.582522e+001
1.062633e+003,1.465582e+001
1.063598e+003,1.346065e+001
1.064562e+003,1.278288e+001
1.065526e+003,1.265535e+001
1.066490e+003,1.306342e+001
1.067454e+003,1.456577e+001
1.068419e+003,1.569037e+001
1.069383e+003,1.581512e+001
1.070347e+003,1.561431e+001
1.071311e+003,1.560363e+001
1.072276e+003,1.588314e+001
1.073240e+003,1.635447e+001
1.074204e+003,1.702936e+001
1.075168e+003,1.759913e+001
1.076133e+003,1.719659e+001
1.077097e+003,1.606881e+001
1.078061e+003,1.490595e+001
1.079025e+003,1.375663e+001
1.079990e+003,1.309437e+001
1.080954e+003,1.390488e+001
1.081918e+003,1.654579e+001
1.082882e+003,1.817244e+001
1.083846e+003,1.778710e+001
1.084811e+003,1.731119e+001
1.085775e+003,1.687603e+001
1.086739e+003,1.665775e+001
1.087703e+003,1.712160e+001
1.088668e+003,1.822165e+001
1.089632e+003,1.883231e+001
1.090596e+003,1.763598e+001
1.091560e+003,1.568481e+001
1.092525e+003,1.511602e+001
1.093489e+003,1.566175e+001
1.094453e+003,1.646283e+001
1.095417e+003,1.723383e+001
1.096381e+003,1.778434e+001
1.097346e+003,1.755250e+001
1.098310e+003,1.607875e+001
1.099274e+003,1.546161e+001
1.100238e+003,1.637386e+001
1.101203e+003,1.731596e+001
1.102167e+003,1.796601e+001
1.103131e+003,1.830161e+001
1.104095e+003,1.833646e+001
1.105060e+003,1.806831e+001
1.106024e+003,1.746595e+001
1.106988e+003,1.604832e+001
1.107952e+003,1.485587e+001
1.108917e+003,1.600967e+001
1.109881e+003,1.881959e+001
1.110845e+003,2.031336e+001
1.111809e+003,1.875805e+001
1.112773e+003,1.558557e+001
1.113738e+003,1.426785e+001
1.114702e+003,1.564669e+001
1.115666e+003,1.664756e+001
1.116630e+003,1.719366e+001
1.117595e+003,1.746065e+001
1.118559e+003,1.727743e+001
1.119523e+003,1.695509e+001
1.120487e+003,1.691808e+001
1.121452e+003,1.729899e+001
1.122416e+003,1.796972e+001
1.123380e+003,1.897757e+001
1.124344e+003,1.999948e+001
1.125308e+003,2.066771e+001
1.126273e+003,2.103648e+001
1.127237e+003,2.128166e+001
1.128201e+003,2.149858e+001
1.129165e+003,2.159202e+001
1.130130e+003,2.132056e+001
1.131094e+003,2.053357e+001
1.132058e+003,1.967568e+001
1.133022e+003,1.806338e+001
1.133987e+003,1.724995e+001
1.134951e+003,1.850069e+001
1.135915e+003,2.056230e+001
1.136879e+003,2.154798e+001
1.137844e+003,2.099634e+001
1.138808e+003,2.013967e+001
1.139772e+003,1.971062e+001
1.140736e+003,1.968193e+001
1.141700e+003,2.028853e+001
1.142665e+003,2.131180e+001
1.143629e+003,2.194199e+001
1.144593e+003,2.176682e+001
1.145557e+003,2.133245e+001
1.146522e+003,2.174493e+001
1.147486e+003,2.330844e+001
1.148450e+003,2.410121e+001
1.149414e+003,2.366367e+001
1.150379e+003,2.327386e+001
1.151343e+003,2.329538e+001
1.152307e+003,2.352588e+001
1.153271e+003,2.357062e+001
1.154235e+003,2.336381e+001
1.155200e+003,2.339779e+001
1.156164e+003,2.412999e+001
1.157128e+003,2.532420e+001
1.158092e+003,2.678315e+001
1.159057e+003,2.829290e+001
1.160021e+003,2.923383e+001
1.160985e+003,2.934192e+001
1.161949e+003,2.910265e+001
1.162914e+003,2.926586e+001
1.163878e+003,2.991279e+001
1.164842e+003,3.050253e+001
1.165806e+003,3.136844e+001
1.166771e+003,3.163591e+001
1.167735e+003,3.060643e+001
1.168699e+003,2.938583e+001
1.169663e+003,2.884997e+001
1.170627e+003,2.911254e+001
1.171592e+003,2.998354e+001
1.172556e+003,3.150666e+001
1.173520e+003,3.322960e+001
1.174484e+003,3.440047e+001
1.175449e+003,3.523982e+001
1.176413e+003,3.613786e+001
1.177377e+003,3.716430e+001
1.178341e+003,3.837189e+001
1.179306e+003,3.998471e+001
1.180270e+003,4.193736e+001
1.181234e+003,4.306367e+001
1.182198e+003,4.286522e+001
1.183162e+003,4.255175e+001
1.184127e+003,4.171068e+001
1.185091e+003,4.130210e+001
1.186055e+003,4.283343e+001
1.187019e+003,4.522083e+001
1.187984e+003,4.564951e+001
1.188948e+003,4.276736e+001
1.189912e+003,3.891138e+001
1.190876e+003,3.688873e+001
1.191841e+003,3.627211e+001
1.192805e+003,3.596621e+001
1.193769e+003,3.592271e+001
1.194733e+003,3.586359e+001
1.195698e+003,3.541844e+001
1.196662e+003,3.496761e+001
1.197626e+003,3.576742e+001
1.198590e+003,3.845047e+001
1.199554e+003,4.001195e+001
1.200519e+003,3.967463e+001
1.201483e+003,3.877020e+001
1.202447e+003,3.714625e+001
1.203411e+003,3.546520e+001
1.204376e+003,3.460307e+001
1.205340e+003,3.459495e+001
1.206304e+003,3.443614e+001
1.207268e+003,3.321089e+001
1.208233e+003,3.151203e+001
1.209197e+003,3.088578e+001
1.210161e+003,3.114701e+001
1.211125e+003,3.168956e+001
1.212089e+003,3.274976e+001
1.213054e+003,3.321947e+001
1.214018e+003,3.107723e+001
1.214982e+003,2.673757e+001
1.215946e+003,2.533582e+001
1.216911e+003,2.905335e+001
1.217875e+003,3.255799e+001
1.218839e+003,3.457636e+001
1.219803e+003,3.547976e+001
1.220768e+003,3.506569e+001
1.221732e+003,3.394559e+001
1.222696e+003,3.332333e+001
1.223660e+003,3.382891e+001
1.224625e+003,3.463042e+001
1.225589e+003,3.411808e+001
1.226553e+003,3.224015e+001
1.227517e+003,3.170858e+001
1.228481e+003,3.304527e+001
1.229446e+003,3.444175e+001
1.230410e+003,3.523899e+001
1.231374e+003,3.551836e+001
1.232338e+003,3.518942e+001
1.233303e+003,3.421628e+001
1.234267e+003,3.393822e+001
1.235231e+003,3.558353e+001
1.236195e+003,3.697673e+001
1.237160e+003,3.678190e+001
1.238124e+003,3.569074e+001
1.239088e+003,3.428040e+001
1.240052e+003,3.293899e+001
1.241016e+003,3.225943e+001
1.241981e+003,3.281722e+001
1.242945e+003,3.430759e+001
1.243909e+003,3.536239e+001
1.244873e+003,3.603445e+001
1.245838e+003,3.604955e+001
1.246802e+003,3.450521e+001
1.247766e+003,3.325605e+001
1.248730e+003,3.358973e+001
1.249695e+003,3.491766e+001
1.250659e+003,3.589347e+001
1.251623e+003,3.619065e+001
1.252587e+003,3.647595e+001
1.253552e+003,3.731112e+001
1.254516e+003,3.817829e+001
1.255480e+003,3.841330e+001
1.256444e+003,3.830712e+001
1.257408e+003,3.871763e+001
1.258373e+003,3.995249e+001
1.259337e+003,4.115398e+001
1.260301e+003,4.111897e+001
1.261265e+003,3.987301e+001
1.262230e+003,3.840675e+001
1.263194e+003,3.550520e+001
1.264158e+003,3.402730e+001
1.265122e+003,3.502971e+001
1.266087e+003,3.664771e+001
1.267051e+003,3.790988e+001
1.268015e+003,3.874282e+001
1.268979e+003,3.924335e+001
1.269943e+003,3.942697e+001
1.270908e+003,3.970827e+001
1.271872e+003,4.076410e+001
1.272836e+003,4.206676e+001
1.273800e+003,4.230839e+001
1.274765e+003,4.155473e+001
1.275729e+003,4.075751e+001
1.276693e+003,4.029710e+001
1.277657e+003,4.010613e+001
1.278622e+003,4.010095e+001
1.279586e+003,4.026180e+001
1.280550e+003,4.046548e+001
1.281514e+003,4.073236e+001
1.282479e+003,4.122480e+001
1.283443e+003,4.230707e+001
1.284407e+003,4.326261e+001
1.285371e+003,4.323612e+001
1.286335e+003,4.255525e+001
1.287300e+003,4.235394e+001
1.288264e+003,4.324075e+001
1.289228e+003,4.446027e+001
1.290192e+003,4.473826e+001
1.291157e+003,4.411314e+001
1.292121e+003,4.393578e+001
1.293085e+003,4.430565e+001
1.294049e+003,4.446370e+001
1.295014e+003,4.417536e+001
1.295978e+003,4.367092e+001
1.296942e+003,4.286861e+001
1.297906e+003,4.192951e+001
1.298870e+003,4.223351e+001
1.299835e+003,4.473892e+001
1.300799e+003,4.708499e+001
1.301763e+003,4.782683e+001
1.302727e+003,4.764588e+001
1.303692e+003,4.657092e+001
1.304656e+003,4.521433e+001
1.305620e+003,4.512220e+001
1.306584e+003,4.711884e+001
1.307549e+003,4.981203e+001
1.308513e+003,5.049712e+001
1.309477e+003,4.880656e+001
1.310441e+003,4.761828e+001
1.311406e+003,4.709655e+001
1.312370e+003,4.693734e+001
1.313334e+003,4.728566e+001
1.314298e+003,4.784383e+001
1.315263e+003,4.846554e+001
1.316227e+003,4.907617e+001
1.317191e+003,4.947736e+001
1.318155e+003,4.955181e+001
1.319120e+003,4.969679e+001
1.320084e+003,5.041973e+001
1.321048e+003,5.146849e+001
1.322012e+003,5.244189e+001
1.322976e+003,5.328745e+001
1.323941e+003,5.363718e+001
1.324905e+003,5.333846e+001
1.325869e+003,5.258396e+001
1.326833e+003,5.132259e+001
1.327798e+003,4.954802e+001
1.328762e+003,4.874968e+001
1.329726e+003,4.956380e+001
1.330690e+003,5.035428e+001
1.331655e+003,5.058652e+001
1.332619e+003,5.074187e+001
1.333583e+003,5.134933e+001
1.334547e+003,5.207545e+001
1.335511e+003,5.209415e+001
1.336476e+003,5.115449e+001
1.337440e+003,5.011643e+001
1.338404e+003,5.010759e+001
1.339368e+003,5.096070e+001
1.340333e+003,5.096672e+001
1.341297e+003,4.955039e+001
1.342261e+003,4.894321e+001
1.343225e+003,5.001331e+001
1.344190e+003,5.134631e+001
1.345154e+003,5.187850e+001
1.346118e+003,5.195826e+001
1.347082e+003,5.272387e+001
1.348047e+003,5.448559e+001
1.349011e+003,5.537579e+001
1.349975e+003,5.352990e+001
1.350939e+003,5.122367e+001
1.351903e+003,5.081364e+001
1.352868e+003,5.178675e+001
1.353832e+003,5.349199e+001
1.354796e+003,5.564697e+001
1.355760e+003,5.694323e+001
1.356725e+003,5.588885e+001
1.357689e+003,5.313015e+001
1.358653e+003,5.152539e+001
1.359617e+003,5.116810e+001
1.360582e+003,5.173792e+001
1.361546e+003,5.446803e+001
1.362510e+003,5.651405e+001
1.363474e+003,5.671130e+001
1.364438e+003,5.605030e+001
1.365403e+003,5.534578e+001
1.366367e+003,5.482645e+001
1.367331e+003,5.444432e+001
1.368295e+003,5.418299e+001
1.369260e+003,5.433184e+001
1.370224e+003,5.561875e+001
1.371188e+003,5.808550e+001
1.372152e+003,5.947311e+001
1.373117e+003,5.933931e+001
1.374081e+003,5.907184e+001
1.375045e+003,5.905642e+001
1.376009e+003,5.924572e+001
1.376974e+003,5.980651e+001
1.377938e+003,6.063154e+001
1.378902e+003,6.093691e+001
1.379866e+003,6.034982e+001
1.380830e+003,5.959195e+001
1.381795e+003,5.893303e+001
1.382759e+003,5.853905e+001
1.383723e+003,5.878405e+001
1.384687e+003,5.947938e+001
1.385652e+003,6.012070e+001
1.386616e+003,6.049464e+001
1.387580e+003,6.047139e+001
1.388544e+003,5.974296e+001
1.389509e+003,5.840903e+001
1.390473e+003,5.776117e+001
1.391437e+003,5.805022e+001
1.392401e+003,5.871023e+001
1.393365e+003,6.008295e+001
1.394330e+003,6.120588e+001
1.395294e+003,6.142158e+001
1.396258e+003,6.124795e+001
1.397222e+003,6.134371e+001
1.398187e+003,6.191528e+001
1.399151e+003,6.297419e+001
1.400115e+003,6.448610e+001
1.401079e+003,6.580604e+001
1.402044e+003,6.569647e+001
1.403008e+003,6.413496e+001
1.403972e+003,6.312939e+001
1.404936e+003,6.290658e+001
1.405901e+003,6.279414e+001
1.406865e+003,6.196740e+001
1.407829e+003,6.159332e+001
1.408793e+003,6.358608e+001
1.409757e+003,6.730111e+001
1.410722e+003,6.956657e+001
1.411686e+003,6.934230e+001
1.412650e+003,6.832121e+001
1.413614e+003,6.721828e+001
1.414579e+003,6.648312e+001
1.415543e+003,6.683427e+001
1.416507e+003,6.792025e+001
1.417471e+003,6.882642e+001
1.418436e+003,6.922501e+001
1.419400e+003,6.907733e+001
1.420364e+003,6.812516e+001
1.421328e+003,6.681868e+001
1.422292e+003,6.697888e+001
1.423257e+003,6.902976e+001
1.424221e+003,7.072190e+001
1.425185e+003,7.172503e+001
1.426149e+003,7.221892e+001
1.427114e+003,7.214936e+001
1.428078e+003,7.190843e+001
1.429042e+003,7.154673e+001
1.430006e+003,7.121986e+001
1.430971e+003,7.133037e+001
1.431935e+003,7.207814e+001
1.432899e+003,7.317627e+001
1.433863e+003,7.428548e+001
1.434828e+003,7.540004e+001
1.435792e+003,7.571294e+001
1.436756e+003,7.455103e+001
1.437720e+003,7.360585e+001
1.438684e+003,7.286729e+001
1.439649e+003,7.270476e+001
1.440613e+003,7.358208e+001
1.441577e+003,7.506728e+001
1.442541e+003,7.666327e+001
1.443506e+003,7.809774e+001
1.444470e+003,7.852715e+001
1.445434e+003,7.727529e+001
1.446398e+003,7.576186e+001
1.447363e+003,7.600507e+001
1.448327e+003,7.738985e+001
1.449291e+003,7.847123e+001
1.450255e+003,7.917564e+001
1.451219e+003,7.976875e+001
1.452184e+003,8.057430e+001
1.453148e+003,8.101582e+001
1.454112e+003,7.994430e+001
1.455076e+003,7.770293e+001
1.456041e+003,7.651505e+001
1.457005e+003,7.680122e+001
1.457969e+003,7.779759e+001
1.458933e+003,7.961977e+001
1.459898e+003,8.159685e+001
1.460862e+003,8.366965e+001
1.461826e+003,8.539355e+001
1.462790e+003,8.590522e+001
1.463755e+003,8.529084e+001
1.464719e+003,8.484346e+001
1.465683e+003,8.553323e+001
1.466647e+003,8.692770e+001
1.467611e+003,8.810887e+001
1.468576e+003,8.913259e+001
1.469540e+003,8.923447e+001
1.470504e+003,8.786068e+001
1.471468e+003,8.648988e+001
1.472433e+003,8.482388e+001
1.473397e+003,8.369661e+001
1.474361e+003,8.387730e+001
1.475325e+003,8.486003e+001
1.476290e+003,8.589793e+001
1.477254e+003,8.668838e+001
1.478218e+003,8.728587e+001
1.479182e+003,8.776654e+001
1.480146e+003,8.806240e+001
1.481111e+003,8.788477e+001
1.482075e+003,8.710368e+001
1.483039e+003,8.679391e+001
1.484003e+003,8.746455e+001
1.484968e+003,8.768768e+001
1.485932e+003,8.701231e+001
1.486896e+003,8.609109e+001
1.487860e+003,8.534488e+001
1.488825e+003,8.467941e+001
1.489789e+003,8.371916e+001
1.490753e+003,8.245319e+001
1.491717e+003,8.183276e+001
1.492682e+003,8.265260e+001
1.493646e+003,8.409547e+001
1.494610e+003,8.484895e+001
1.495574e+003,8.510272e+001
1.496538e+003,8.562994e+001
1.497503e+003,8.665923e+001
1.498467e+003,8.702852e+001
1.499431e+003,8.536571e+001
1.500395e+003,8.327776e+001
1.501360e+003,8.323923e+001
1.502324e+003,8.478550e+001
1.503288e+003,8.524651e+001
1.504252e+003,8.394048e+001
1.505217e+003,8.252232e+001
1.506181e+003,8.164745e+001
1.507145e+003,8.116920e+001
1.508109e+003,8.107765e+001
1.509073e+003,8.121303e+001
1.510038e+003,8.135377e+001
1.511002e+003,8.143948e+001
1.511966e+003,8.140422e+001
1.512930e+003,8.120610e+001
1.513895e+003,8.100526e+001
1.514859e+003,8.091607e+001
1.515823e+003,8.087434e+001
1.516787e+003,8.140704e+001
1.517752e+003,8.309668e+001
1.518716e+003,8.419588e+001
1.519680e+003,8.418163e+001
1.520644e+003,8.341061e+001
1.521609e+003,8.129667e+001
1.522573e+003,7.896920e+001
1.523537e+003,7.789352e+001
1.524501e+003,7.806052e+001
1.525465e+003,7.829844e+001
1.526430e+003,7.788719e+001
1.527394e+003,7.731738e+001
1.528358e+003,7.747490e+001
1.529322e+003,7.830061e+001
1.530287e+003,7.828114e+001
1.531251e+003,7.673331e+001
1.532215e+003,7.579570e+001
1.533179e+003,7.555595e+001
1.534144e+003,7.572829e+001
1.535108e+003,7.643250e+001
1.536072e+003,7.730021e+001
1.537036e+003,7.829562e+001
1.538000e+003,7.910265e+001
1.538965e+003,7.885920e+001
1.539929e+003,7.725438e+001
1.540893e+003,7.537191e+001
1.541857e+003,7.448638e+001
1.542822e+003,7.445251e+001
1.543786e+003,7.432107e+001
1.544750e+003,7.376530e+001
1.545714e+003,7.409766e+001
1.546679e+003,7.686157e+001
1.547643e+003,7.831061e+001
1.548607e+003,7.588025e+001
1.549571e+003,7.288674e+001
1.550536e+003,7.294851e+001
1.551500e+003,7.503593e+001
1.552464e+003,7.583589e+001
1.553428e+003,7.445585e+001
1.554392e+003,7.255959e+001
1.555357e+003,7.130782e+001
1.556321e+003,7.050639e+001
1.557285e+003,6.999204e+001
1.558249e+003,6.978194e+001
1.559214e+003,6.925535e+001
1.560178e+003,6.817620e+001
1.561142e+003,6.747083e+001
1.562106e+003,6.747408e+001
1.563071e+003,6.778926e+001
1.564035e+003,6.849445e+001
1.564999e+003,6.926794e+001
1.565963e+003,6.910168e+001
1.566927e+003,6.787882e+001
1.567892e+003,6.696660e+001
1.568856e+003,6.722624e+001
1.569820e+003,6.745654e+001
1.570784e+003,6.601386e+001
1.571749e+003,6.362914e+001
1.572713e+003,6.213642e+001
1.573677e+003,6.158417e+001
1.574641e+003,6.113266e+001
1.575606e+003,6.045834e+001
1.576570e+003,5.979779e+001
1.577534e+003,5.938625e+001
1.578498e+003,5.917436e+001
1.579463e+003,5.910339e+001
1.580427e+003,5.911768e+001
1.581391e+003,5.881453e+001
1.582355e+003,5.797878e+001
1.583319e+003,5.731260e+001
1.584284e+003,5.764312e+001
1.585248e+003,5.812363e+001
1.586212e+003,5.717393e+001
1.587176e+003,5.540821e+001
1.588141e+003,5.493259e+001
1.589105e+003,5.624360e+001
1.590069e+003,5.747729e+001
1.591033e+003,5.751786e+001
1.591998e+003,5.670154e+001
1.592962e+003,5.514203e+001
1.593926e+003,5.308488e+001
1.594890e+003,5.211167e+001
1.595854e+003,5.263390e+001
1.596819e+003,5.278573e+001
1.597783e+003,5.153379e+001
1.598747e+003,5.012967e+001
1.599711e+003,4.969157e+001
1.600676e+003,4.952229e+001
1.601640e+003,4.872513e+001
1.602604e+003,4.743460e+001
1.603568e+003,4.648850e+001
1.604533e+003,4.620942e+001
1.605497e+003,4.585214e+001
1.606461e+003,4.435631e+001
1.607425e+003,4.240664e+001
1.608390e+003,4.215575e+001
1.609354e+003,4.370614e+001
1.610318e+003,4.461689e+001
1.611282e+003,4.428342e+001
1.612246e+003,4.364124e+001
1.613211e+003,4.310181e+001
1.614175e+003,4.240521e+001
1.615139e+003,4.128120e+001
1.616103e+003,4.000162e+001
1.617068e+003,3.898907e+001
1.618032e+003,3.827700e+001
1.618996e+003,3.760669e+001
1.619960e+003,3.682056e+001
1.620925e+003,3.586982e+001
1.621889e+003,3.456870e+001
1.622853e+003,3.306397e+001
1.623817e+003,3.215336e+001
1.624781e+003,3.193637e+001
1.625746e+003,3.199019e+001
1.626710e+003,3.236466e+001
1.627674e+003,3.267497e+001
1.628638e+003,3.273606e+001
1.629603e+003,3.257306e+001
1.630567e+003,3.227339e+001
1.631531e+003,3.180963e+001
1.632495e+003,3.104615e+001
1.633460e+003,3.001378e+001
1.634424e+003,2.900472e+001
1.635388e+003,2.818983e+001
1.636352e+003,2.753749e+001
1.637317e+003,2.697876e+001
1.638281e+003,2.652187e+001
1.639245e+003,2.646273e+001
1.640209e+003,2.694357e+001
1.641173e+003,2.725853e+001
1.642138e+003,2.733225e+001
1.643102e+003,2.712202e+001
1.644066e+003,2.655088e+001
1.645030e+003,2.574552e+001
1.645995e+003,2.469348e+001
1.646959e+003,2.353005e+001
1.647923e+003,2.242293e+001
1.648887e+003,2.147528e+001
1.649852e+003,2.117282e+001
1.650816e+003,2.215681e+001
1.651780e+003,2.350171e+001
1.652744e+003,2.297597e+001
1.653708e+003,2.066896e+001
1.654673e+003,1.945399e+001
1.655637e+003,1.982085e+001
1.656601e+003,2.000903e+001
1.657565e+003,1.939636e+001
1.658530e+003,1.867039e+001
1.659494e+003,1.814395e+001
1.660458e+003,1.773564e+001
1.661422e+003,1.740928e+001
1.662387e+003,1.712115e+001
1.663351e+003,1.677767e+001
1.664315e+003,1.635320e+001
1.665279e+003,1.591563e+001
1.666244e+003,1.558942e+001
1.667208e+003,1.521276e+001
1.668172e+003,1.430566e+001
1.669136e+003,1.290712e+001
1.670100e+003,1.176053e+001
1.671065e+003,1.082097e+001
1.672029e+003,1.061771e+001
1.672993e+003,1.211485e+001
1.673957e+003,1.332316e+001
1.674922e+003,1.233252e+001
1.675886e+003,1.080188e+001
1.676850e+003,1.078962e+001
1.677814e+003,1.195853e+001
1.678779e+003,1.269518e+001
1.679743e+003,1.250057e+001
1.680707e+003,1.181002e+001
1.681671e+003,1.067773e+001
1.682635e+003,9.562613e+000
1.683600e+003,9.551847e+000
1.684564e+003,1.040067e+001
1.685528e+003,1.020101e+001
1.686492e+003,8.520068e+000
1.687457e+003,7.629004e+000
1.688421e+003,8.756894e+000
1.689385e+003,1.007638e+001
1.690349e+003,1.028218e+001
1.691314e+003,9.882715e+000
1.692278e+003,9.413394e+000
1.693242e+003,8.783676e+000
1.694206e+003,7.379654e+000
1.695171e+003,4.922025e+000
1.696135e+003,3.271387e+000
1.697099e+003,3.960257e+000
1.698063e+003,5.696845e+000
1.699027e+003,7.373120e+000
1.699992e+003,8.682132e+000
1.700956e+003,8.306772e+000
1.701920e+003,6.164221e+000
1.702884e+003,4.348404e+000
1.703849e+003,3.455868e+000
1.704813e+003,3.629053e+000
1.705777e+003,5.961459e+000
1.706741e+003,8.480347e+000
1.707706e+003,7.189142e+000
1.708670e+003,3.262045e+000
1.709634e+003,1.315149e+000
1.710598e+003,2.172342e+000
1.711563e+003,3.233255e+000
1.712527e+003,3.517129e+000
1.713491e+003,3.481018e+000
1.714455e+003,3.495831e+000
1.715419e+003,3.452771e+000
1.716384e+003,3.126987e+000
1.717348e+003,2.532764e+000
1.718312e+003,1.687732e+000
1.719276e+003,5.899780e-001
1.720241e+003,2.268707e-001
1.721205e+003,1.530402e+000
1.722169e+003,3.332874e+000
1.723133e+003,3.816184e+000
1.724098e+003,3.097430e+000
1.725062e+003,1.798340e+000
1.726026e+003,-6.337708e-001
1.726990e+003,-1.470953e+000
1.727954e+003,1.406720e+000
1.728919e+003,3.755029e+000
1.729883e+003,3.168137e+000
1.730847e+003,1.591803e+000
1.731811e+003,1.014023e+000
1.732776e+003,1.080768e+000
1.733740e+003,4.658661e-001
1.734704e+003,-9.695160e-001
1.735668e+003,-2.191634e+000
1.736633e+003,-2.601196e+000
1.737597e+003,-2.294110e+000
1.738561e+003,-1.309885e+000
1.739525e+003,1.965851e-001
1.740490e+003,1.460803e+000
1.741454e+003,2.660086e+000
1.742418e+003,2.857434e+000
1.743382e+003,1.140033e+000
1.744346e+003,-1.539856e-001
1.745311e+003,-2.226501e-001
1.746275e+003,-2.604614e-001
1.747239e+003,-1.345673e+000
1.748203e+003,-2.528477e+000
1.749168e+003,-2.240935e+000
1.750132e+003,-9.159058e-001
1.751096e+003,-3.972046e-001
1.752060e+003,-1.312601e+000
1.753025e+003,-2.434421e+000
1.753989e+003,-2.621072e+000
1.754953e+003,-2.245842e+000
1.755917e+003,-2.136464e+000
1.756881e+003,-2.296757e+000
1.757846e+003,-2.712387e+000
1.758810e+003,-3.559065e+000
1.759774e+003,-4.096770e+000
1.760738e+003,-4.127730e+000
1.761703e+003,-4.011969e+000
1.762667e+003,-3.829106e+000
1.763631e+003,-3.599082e+000
1.764595e+003,-3.182347e+000
1.765560e+003,-2.768604e+000
1.766524e+003,-2.728919e+000
1.767488e+003,-3.096278e+000
1.768452e+003,-3.673917e+000
1.769417e+003,-4.408859e+000
1.770381e+003,-4.752170e+000
1.771345e+003,-3.620172e+000
1.772309e+003,-1.870802e+000
1.773273e+003,-2.006143e+000
1.774238e+003,-3.809020e+000
1.775202e+003,-4.493846e+000
1.776166e+003,-3.507793e+000
1.777130e+003,-2.686365e+000
1.778095e+003,-2.706596e+000
1.779059e+003,-3.160234e+000
1.780023e+003,-4.198486e+000
1.780987e+003,-5.130910e+000
1.781952e+003,-4.467761e+000
1.782916e+003,-2.632874e+000
1.783880e+003,-1.836412e+000
1.784844e+003,-2.587776e+000
1.785808e+003,-3.388939e+000
1.786773e+003,-3.554198e+000
1.787737e+003,-3.633308e+000
1.788701e+003,-4.283220e+000
1.789665e+003,-4.972649e+000
1.790630e+003,-4.680930e+000
1.791594e+003,-3.698277e+000
1.792558e+003,-3.242998e+000
1.793522e+003,-3.606220e+000
1.794487e+003,-4.116937e+000
1.795451e+003,-4.357202e+000
1.796415e+003,-4.388003e+000
1.797379e+003,-4.281663e+000
1.798344e+003,-4.112956e+000
1.799308e+003,-4.220769e+000
1.800272e+003,-4.891688e+000
1.801236e+003,-4.767503e+000
1.802201e+003,-2.997038e+000
1.803165e+003,-1.749222e+000
1.804129e+003,-1.339096e+000
1.805093e+003,-1.507462e+000
1.806057e+003,-2.594826e+000
1.807022e+003,-3.829074e+000
1.807986e+003,-4.453687e+000
1.808950e+003,-4.458781e+000
1.809914e+003,-4.026260e+000
1.810879e+003,-3.314563e+000
1.811843e+003,-2.560571e+000
1.812807e+003,-1.932802e+000
1.813771e+003,-1.787344e+000
1.814736e+003,-2.950084e+000
1.815700e+003,-5.004130e+000
1.816664e+003,-5.426773e+000
1.817628e+003,-4.019884e+000
1.818593e+003,-3.090552e+000
1.819557e+003,-2.908438e+000
1.820521e+003,-3.098637e+000
1.821485e+003,-3.874103e+000
1.822449e+003,-4.547666e+000
1.823414e+003,-4.506113e+000
1.824378e+003,-4.188022e+000
1.825342e+003,-4.119827e+000
1.826306e+003,-4.245828e+000
1.827271e+003,-4.257043e+000
1.828235e+003,-4.079428e+000
1.829199e+003,-3.902379e+000
1.830163e+003,-3.755302e+000
1.831128e+003,-3.709532e+000
1.832092e+003,-4.016055e+000
1.833056e+003,-4.356308e+000
1.834020e+003,-4.089532e+000
1.834984e+003,-3.416595e+000
1.835949e+003,-3.099802e+000
1.836913e+003,-3.263057e+000
1.837877e+003,-3.555183e+000
1.838841e+003,-3.826066e+000
1.839806e+003,-3.589966e+000
1.840770e+003,-2.132776e+000
1.841734e+003,-1.632446e-001
1.842698e+003,1.138550e-001
1.843663e+003,-1.517078e+000
1.844627e+003,-2.640761e+000
1.845591e+003,-3.523701e+000
1.846555e+003,-3.462857e+000
1.847520e+003,-1.376767e+000
1.848484e+003,2.184265e-001
1.849448e+003,3.658569e-001
1.850412e+003,-2.717651e-001
1.851376e+003,-1.722916e+000
1.852341e+003,-3.238838e+000
1.853305e+003,-3.545102e+000
1.854269e+003,-2.755853e+000
1.855233e+003,-2.296910e+000
1.856198e+003,-2.799289e+000
1.857162e+003,-3.289369e+000
1.858126e+003,-2.780509e+000
1.859090e+003,-1.673828e+000
1.860055e+003,-5.273407e-001
1.861019e+003,4.863281e-001
1.861983e+003,1.659485e-001
1.862947e+003,-1.592148e+000
1.863911e+003,-2.539670e+000
1.864876e+003,-1.937611e+000
1.865840e+003,-1.366504e+000
1.866804e+003,-1.907147e+000
1.867768e+003,-2.526824e+000
1.868733e+003,-1.979271e+000
1.869697e+003,-6.318329e-001
1.870661e+003,6.003693e-001
1.871625e+003,1.726318e+000
1.872590e+003,2.259186e+000
1.873554e+003,1.799423e+000
1.874518e+003,1.496896e+000
1.875482e+003,2.024460e+000
1.876447e+003,2.387628e+000
1.877411e+003,1.907193e+000
1.878375e+003,1.019751e+000
1.879339e+003,-1.028839e-001
1.880303e+003,-1.118607e+000
1.881268e+003,-1.349808e+000
1.882232e+003,-7.867157e-001
1.883196e+003,-6.912842e-002
1.884160e+003,4.411651e-001
1.885125e+003,7.360840e-001
1.886089e+003,7.590698e-001
1.887053e+003,6.571563e-001
1.888017e+003,9.151734e-001
1.888982e+003,1.547797e+000
1.889946e+003,2.061627e+000
1.890910e+003,2.482925e+000
1.891874e+003,2.616211e+000
1.892839e+003,2.131546e+000
1.893803e+003,1.991238e+000
1.894767e+003,2.864255e+000
1.895731e+003,4.032895e+000
1.896695e+003,5.127121e+000
1.897660e+003,5.930908e+000
1.898624e+003,5.896005e+000
1.899588e+003,5.126853e+000
1.900552e+003,4.603629e+000
1.901517e+003,4.599548e+000
1.902481e+003,4.417600e+000
1.903445e+003,3.692978e+000
1.904409e+003,2.857504e+000
1.905374e+003,1.938916e+000
1.906338e+003,1.304291e+000
1.907302e+003,1.760568e+000
1.908266e+003,2.629990e+000
1.909230e+003,2.223401e+000
1.910195e+003,6.591797e-001
1.911159e+003,-1.853424e-001
1.912123e+003,5.120544e-001
1.913087e+003,1.780041e+000
1.914052e+003,2.712598e+000
1.915016e+003,3.297250e+000
1.915980e+003,3.574945e+000
1.916944e+003,3.516824e+000
1.917909e+003,2.444934e+000
1.918873e+003,-9.597778e-003
1.919837e+003,-1.102231e+000
1.920801e+003,-5.133667e-002
1.921766e+003,9.331878e-001
1.922730e+003,9.851745e-001
1.923694e+003,8.928650e-001
1.924658e+003,1.124188e+000
1.925622e+003,1.622159e+000
1.926587e+003,2.561975e+000
1.927551e+003,3.719440e+000
1.928515e+003,4.339206e+000
1.929479e+003,4.340100e+000
1.930444e+003,3.845734e+000
1.931408e+003,2.163928e+000
1.932372e+003,1.071655e+000
1.933336e+003,2.187707e+000
1.934301e+003,3.383420e+000
1.935265e+003,2.400278e+000
1.936229e+003,7.327393e-001
1.937193e+003,6.762360e-001
1.938157e+003,1.951563e+000
1.939122e+003,3.317371e+000
1.940086e+003,4.210202e+000
1.941050e+003,3.959644e+000
1.942014e+003,2.212811e+000
1.942979e+003,4.808533e-001
1.943943e+003,7.133881e-001
1.944907e+003,2.150708e+000
1.945871e+003,2.661755e+000
1.946836e+003,2.307413e+000
1.947800e+003,2.063849e+000
1.948764e+003,1.955154e+000
1.949728e+003,1.642706e+000
1.950693e+003,9.583069e-001
1.951657e+003,4.111969e-001
1.952621e+003,3.098511e-001
1.953585e+003,3.790100e-001
1.954549e+003,2.840851e-001
1.955514e+003,2.049835e-001
1.956478e+003,6.306854e-001
1.957442e+003,1.517368e+000
1.958406e+003,2.177203e+000
1.959371e+003,2.554691e+000
1.960335e+003,2.793991e+000
1.961299e+003,2.867764e+000
1.962263e+003,2.898849e+000
1.963228e+003,3.003531e+000
1.964192e+003,2.980685e+000
1.965156e+003,2.258872e+000
1.966120e+003,1.635113e+000
1.967084e+003,2.472839e+000
1.968049e+003,4.205863e+000
1.969013e+003,5.134460e+000
1.969977e+003,4.902112e+000
1.970941e+003,4.583472e+000
1.971906e+003,4.807251e+000
1.972870e+003,5.081100e+000
1.973834e+003,4.894345e+000
1.974798e+003,4.434326e+000
1.975763e+003,3.830658e+000
1.976727e+003,3.226676e+000
1.977691e+003,3.255176e+000
1.978655e+003,3.813117e+000
1.979620e+003,3.856515e+000
1.980584e+003,3.202100e+000
1.981548e+003,3.042963e+000
1.982512e+003,4.020865e+000
1.983476e+003,5.217676e+000
1.984441e+003,5.746381e+000
1.985405e+003,5.639093e+000
1.986369e+003,4.895459e+000
1.987333e+003,3.558780e+000
1.988298e+003,2.745785e+000
1.989262e+003,2.441956e+000
1.990226e+003,2.624490e+000
1.991190e+003,3.560080e+000
1.992155e+003,4.529468e+000
1.993119e+003,6.102005e+000
1.994083e+003,6.765649e+000
1.995047e+003,4.776480e+000
1.996011e+003,2.274725e+000
1.996976e+003,1.401901e+000
1.997940e+003,1.804785e+000
1.998904e+003,2.611789e+000
1.999868e+003,3.698825e+000
2.000833e+003,4.654556e+000
2.001797e+003,5.333591e+000
2.002761e+003,5.923001e+000
2.003725e+003,6.479795e+000
2.004690e+003,7.009238e+000
2.005654e+003,7.756763e+000
2.006618e+003,8.255911e+000
2.007582e+003,7.855826e+000
2.008547e+003,6.958570e+000
2.009511e+003,6.171707e+000
2.010475e+003,5.650332e+000
2.011439e+003,5.420776e+000
2.012403e+003,5.435672e+000
2.013368e+003,5.412778e+000
2.014332e+003,5.143875e+000
2.015296e+003,4.866858e+000
2.016260e+003,4.882819e+000
2.017225e+003,5.140341e+000
2.018189e+003,5.591123e+000
2.019153e+003,6.152365e+000
2.020117e+003,6.572763e+000
2.021082e+003,6.806043e+000
2.022046e+003,6.764300e+000
2.023010e+003,6.441657e+000
2.023974e+003,5.706677e+000
2.024938e+003,4.424548e+000
2.025903e+003,3.216238e+000
2.026867e+003,2.731064e+000
2.027831e+003,2.809741e+000
2.028795e+003,3.120380e+000
2.029760e+003,3.675006e+000
2.030724e+003,4.195514e+000
2.031688e+003,4.853747e+000
2.032652e+003,4.595773e+000
2.033617e+003,2.700214e+000
2.034581e+003,1.506931e+000
2.035545e+003,1.669156e+000
2.036509e+003,2.587943e+000
2.037474e+003,4.569696e+000
2.038438e+003,6.479983e+000
2.039402e+003,7.110822e+000
2.040366e+003,6.834006e+000
2.041330e+003,6.351071e+000
2.042295e+003,5.708722e+000
2.043259e+003,5.104297e+000
2.044223e+003,4.396100e+000
2.045187e+003,4.139557e+000
2.046152e+003,4.696420e+000
2.047116e+003,5.347330e+000
2.048080e+003,6.433606e+000
2.049044e+003,6.812454e+000
2.050009e+003,5.054596e+000
2.050973e+003,2.689063e+000
2.051937e+003,1.151871e+000
2.052901e+003,6.912201e-001
2.053865e+003,1.742703e+000
2.054830e+003,3.960098e+000
2.055794e+003,5.365518e+000
2.056758e+003,5.069110e+000
2.057722e+003,4.166247e+000
2.058687e+003,3.083847e+000
2.059651e+003,2.221112e+000
2.060615e+003,2.079675e+000
2.061579e+003,2.266870e+000
2.062544e+003,2.235672e+000
2.063508e+003,2.170221e+000
2.064472e+003,2.538052e+000
2.065436e+003,3.285474e+000
2.066401e+003,4.085761e+000
2.067365e+003,4.765982e+000
2.068329e+003,5.198001e+000
2.069293e+003,5.304914e+000
2.070258e+003,4.963101e+000
2.071222e+003,3.866693e+000
2.072186e+003,2.623657e+000
2.073150e+003,2.779486e+000
2.074115e+003,3.925415e+000
2.075079e+003,4.030063e+000
2.076043e+003,3.245215e+000
2.077007e+003,3.803842e+000
2.077971e+003,5.980762e+000
2.078936e+003,7.144403e+000
2.079900e+003,6.299353e+000
2.080864e+003,5.039392e+000
2.081828e+003,4.481567e+000
2.082792e+003,4.311597e+000
2.083757e+003,4.136392e+000
2.084721e+003,3.880823e+000
2.085685e+003,3.213727e+000
2.086649e+003,2.105316e+000
2.087614e+003,1.760788e+000
2.088578e+003,2.357855e+000
2.089542e+003,2.905264e+000
2.090506e+003,3.345486e+000
2.091471e+003,3.380710e+000
2.092435e+003,2.566995e+000
2.093399e+003,2.277536e+000
2.094363e+003,3.898267e+000
2.095328e+003,5.769519e+000
2.096292e+003,5.490366e+000
2.097256e+003,3.787076e+000
2.098220e+003,3.327280e+000
2.099185e+003,4.314285e+000
2.100149e+003,4.762228e+000
2.101113e+003,4.101721e+000
2.102077e+003,3.896069e+000
2.103042e+003,4.927279e+000
2.104006e+003,5.329706e+000
2.104970e+003,3.859463e+000
2.105934e+003,2.671912e+000
2.106898e+003,3.148673e+000
2.107863e+003,4.252933e+000
2.108827e+003,5.120706e+000
2.109791e+003,5.733496e+000
2.110755e+003,6.135232e+000
2.111719e+003,6.310050e+000
2.112684e+003,6.149515e+000
2.113648e+003,5.411426e+000
2.114612e+003,5.078461e+000
2.115576e+003,5.970782e+000
2.116541e+003,6.370929e+000
2.117505e+003,5.199500e+000
2.118469e+003,3.938495e+000
2.119433e+003,3.263062e+000
2.120398e+003,3.203207e+000
2.121362e+003,4.240930e+000
2.122326e+003,5.582623e+000
2.123290e+003,5.598453e+000
2.124255e+003,4.485400e+000
2.125219e+003,4.196616e+000
2.126183e+003,5.335251e+000
2.127147e+003,6.448175e+000
2.128112e+003,6.921835e+000
2.129076e+003,7.167880e+000
2.130040e+003,7.299933e+000
2.131004e+003,7.385184e+000
2.131969e+003,7.468707e+000
2.132933e+003,7.512564e+000
2.133897e+003,7.600671e+000
2.134861e+003,7.610217e+000
2.135825e+003,7.146509e+000
2.136790e+003,6.345566e+000
2.137754e+003,5.934644e+000
2.138718e+003,6.099249e+000
2.139682e+003,6.028189e+000
2.140646e+003,5.130145e+000
2.141611e+003,4.366409e+000
2.142575e+003,4.634696e+000
2.143539e+003,5.257773e+000
2.144503e+003,5.716049e+000
2.145468e+003,6.041617e+000
2.146432e+003,6.250879e+000
2.147396e+003,6.358691e+000
2.148360e+003,6.332379e+000
2.149325e+003,6.233365e+000
2.150289e+003,6.167136e+000
2.151253e+003,6.209534e+000
2.152217e+003,6.573352e+000
2.153182e+003,7.401145e+000
2.154146e+003,8.367572e+000
2.155110e+003,9.464664e+000
2.156074e+003,1.007018e+001
2.157039e+003,8.805258e+000
2.158003e+003,6.873477e+000
2.158967e+003,6.191580e+000
2.159931e+003,6.528033e+000
2.160896e+003,7.357749e+000
2.161860e+003,8.383667e+000
2.162824e+003,9.081729e+000
2.163788e+003,9.382513e+000
2.164752e+003,9.871750e+000
2.165717e+003,1.075786e+001
2.166681e+003,1.075632e+001
2.167645e+003,8.482068e+000
2.168609e+003,5.976825e+000
2.169573e+003,6.450781e+000
2.170538e+003,8.464056e+000
2.171502e+003,9.508047e+000
2.172466e+003,9.673361e+000
2.173430e+003,8.889200e+000
2.174395e+003,7.619311e+000
2.175359e+003,7.330935e+000
2.176323e+003,8.080768e+000
2.177287e+003,8.677679e+000
2.178252e+003,8.609903e+000
2.179216e+003,8.040372e+000
2.180180e+003,7.087778e+000
2.181144e+003,6.272775e+000
2.182109e+003,6.138522e+000
2.183073e+003,6.649487e+000
2.184037e+003,8.245755e+000
2.185001e+003,1.023591e+001
2.185966e+003,1.081523e+001
2.186930e+003,1.026143e+001
2.187894e+003,9.454477e+000
2.188858e+003,8.646875e+000
2.189823e+003,8.102484e+000
2.190787e+003,7.894601e+000
2.191751e+003,8.245432e+000
2.192715e+003,9.235220e+000
2.193679e+003,9.785556e+000
2.194644e+003,8.735074e+000
2.195608e+003,7.288531e+000
2.196572e+003,7.675406e+000
2.197536e+003,8.996524e+000
2.198500e+003,8.942368e+000
2.199465e+003,8.005353e+000
2.200429e+003,7.603476e+000
2.201393e+003,7.724222e+000
2.202357e+003,7.887982e+000
2.203322e+003,7.939115e+000
2.204286e+003,7.647574e+000
2.205250e+003,7.004159e+000
2.206214e+003,6.560224e+000
2.207179e+003,6.693274e+000
2.208143e+003,7.255661e+000
2.209107e+003,8.190359e+000
2.210071e+003,9.169543e+000
2.211036e+003,9.377386e+000
2.212000e+003,9.276758e+000
2.212964e+003,1.034403e+001
2.213928e+003,1.197598e+001
2.214893e+003,1.218298e+001
2.215857e+003,1.113070e+001
2.216821e+003,1.009343e+001
2.217785e+003,9.548426e+000
2.218750e+003,9.926517e+000
2.219714e+003,1.135152e+001
2.220678e+003,1.309589e+001
2.221642e+003,1.466184e+001
2.222606e+003,1.572791e+001
2.223571e+003,1.559516e+001
2.224535e+003,1.489154e+001
2.225499e+003,1.467428e+001
2.226463e+003,1.480229e+001
2.227427e+003,1.473167e+001
2.228392e+003,1.482771e+001
2.229356e+003,1.647134e+001
2.230320e+003,1.928573e+001
2.231284e+003,2.133902e+001
2.232249e+003,2.212769e+001
2.233213e+003,2.258298e+001
2.234177e+003,2.321190e+001
2.235141e+003,2.376536e+001
2.236106e+003,2.386310e+001
2.237070e+003,2.429946e+001
2.238034e+003,2.619715e+001
2.238998e+003,2.881690e+001
2.239963e+003,3.162220e+001
2.240927e+003,3.414159e+001
2.241891e+003,3.539558e+001
2.242855e+003,3.586089e+001
2.243820e+003,3.641868e+001
2.244784e+003,3.737068e+001
2.245748e+003,3.902579e+001
2.246712e+003,4.135191e+001
2.247677e+003,4.375368e+001
2.248641e+003,4.596450e+001
2.249605e+003,4.773855e+001
2.250569e+003,4.819819e+001
2.251533e+003,4.913735e+001
2.252498e+003,5.378017e+001
2.253462e+003,5.811765e+001
2.254426e+003,5.727244e+001
2.255390e+003,5.396692e+001
2.256354e+003,5.178580e+001
2.257319e+003,5.039745e+001
2.258283e+003,4.815754e+001
2.259247e+003,4.520781e+001
2.260211e+003,4.307848e+001
2.261176e+003,4.202433e+001
2.262140e+003,4.017650e+001
2.263104e+003,3.638142e+001
2.264068e+003,3.295203e+001
2.265033e+003,3.159643e+001
2.265997e+003,3.044852e+001
2.266961e+003,2.842611e+001
2.267925e+003,2.612523e+001
2.268890e+003,2.351221e+001
2.269854e+003,2.133356e+001
2.270818e+003,2.112158e+001
2.271782e+003,2.148494e+001
2.272747e+003,1.952691e+001
2.273711e+003,1.584795e+001
2.274675e+003,1.396087e+001
2.275639e+003,1.456341e+001
2.276604e+003,1.458656e+001
2.277568e+003,1.292496e+001
2.278532e+003,1.131971e+001
2.279496e+003,9.719778e+000
2.280460e+003,8.874921e+000
2.281425e+003,9.570523e+000
2.282389e+003,1.047782e+001
2.283353e+003,1.127046e+001
2.284317e+003,1.157143e+001
2.285281e+003,1.072032e+001
2.286246e+003,9.318548e+000
2.287210e+003,8.308820e+000
2.288174e+003,7.689694e+000
2.289138e+003,7.383902e+000
2.290103e+003,7.562662e+000
2.291067e+003,7.114426e+000
2.292031e+003,5.535788e+000
2.292995e+003,4.297867e+000
2.293960e+003,3.253754e+000
2.294924e+003,2.903693e+000
2.295888e+003,3.635919e+000
2.296852e+003,4.629745e+000
2.297817e+003,5.776819e+000
2.298781e+003,6.542688e+000
2.299745e+003,6.430530e+000
2.300709e+003,5.663611e+000
2.301674e+003,4.399530e+000
2.302638e+003,2.890881e+000
2.303602e+003,2.560874e+000
2.304566e+003,3.519760e+000
2.305531e+003,3.603119e+000
2.306495e+003,2.669284e+000
2.307459e+003,2.233295e+000
2.308423e+003,2.447534e+000
2.309387e+003,2.929526e+000
2.310352e+003,3.612466e+000
2.311316e+003,4.164899e+000
2.312280e+003,4.463696e+000
2.313244e+003,4.146527e+000
2.314208e+003,2.823120e+000
2.315173e+003,1.421060e+000
2.316137e+003,1.467212e+000
2.317101e+003,2.089438e+000
2.318065e+003,3.630920e-001
2.319030e+003,-2.724844e+000
2.319994e+003,-2.906592e+000
2.320958e+003,-8.438751e-001
2.321922e+003,8.474701e-001
2.322887e+003,1.827200e+000
2.323851e+003,2.041885e+000
2.324815e+003,1.619672e+000
2.325779e+003,1.034210e+000
2.326744e+003,5.341064e-001
2.327708e+003,2.852722e-001
2.328672e+003,3.914856e-001
2.329636e+003,5.417846e-001
2.330601e+003,5.631714e-001
2.331565e+003,2.910644e-001
2.332529e+003,-8.550690e-001
2.333493e+003,-2.007497e+000
2.334458e+003,-2.123765e+000
2.335422e+003,-1.603278e+000
2.336386e+003,-4.871491e-001
2.337350e+003,4.887176e-001
2.338314e+003,-2.099396e-001
2.339279e+003,-2.021231e+000
2.340243e+003,-2.756070e+000
2.341207e+003,-2.121120e+000
2.342171e+003,-1.939937e+000
2.343135e+003,-2.932686e+000
2.344100e+003,-3.690228e+000
2.345064e+003,-3.795958e+000
2.346028e+003,-3.427329e+000
2.346992e+003,-1.678467e+000
2.347957e+003,-7.147461e-001
2.348921e+003,-2.514223e+000
2.349885e+003,-4.489179e+000
2.350849e+003,-4.814516e+000
2.351814e+003,-4.210635e+000
2.352778e+003,-3.287385e+000
2.353742e+003,-2.280952e+000
2.354706e+003,-1.613811e+000
2.355671e+003,-1.286304e+000
2.356635e+003,-1.620470e+000
2.357599e+003,-2.914575e+000
2.358563e+003,-3.621391e+000
2.359528e+003,-3.519745e+000
2.360492e+003,-3.583914e+000
2.361456e+003,-3.932941e+000
2.362420e+003,-4.382609e+000
2.363385e+003,-4.973555e+000
2.364349e+003,-5.148192e+000
2.365313e+003,-4.535532e+000
2.366277e+003,-3.916995e+000
2.367241e+003,-4.032046e+000
2.368206e+003,-4.475293e+000
2.369170e+003,-4.604451e+000
2.370134e+003,-4.503992e+000
2.371098e+003,-4.425525e+000
2.372063e+003,-4.326962e+000
2.373027e+003,-3.920206e+000
2.373991e+003,-3.317581e+000
2.374955e+003,-3.085417e+000
2.375919e+003,-3.153903e+000
2.376884e+003,-2.920210e+000
2.377848e+003,-2.411903e+000
2.378812e+003,-2.271606e+000
2.379776e+003,-2.692984e+000
2.380741e+003,-3.429402e+000
2.381705e+003,-4.366765e+000
2.382669e+003,-4.886212e+000
2.383633e+003,-4.411201e+000
2.384598e+003,-3.552963e+000
2.385562e+003,-2.368428e+000
2.386526e+003,-1.549365e+000
2.387490e+003,-1.986189e+000
2.388455e+003,-2.676685e+000
2.389419e+003,-2.482784e+000
2.390383e+003,-2.055873e+000
2.391347e+003,-2.487245e+000
2.392312e+003,-3.429329e+000
2.393276e+003,-3.948543e+000
2.394240e+003,-3.978610e+000
2.395204e+003,-3.792323e+000
2.396168e+003,-3.286478e+000
2.397133e+003,-3.106445e+000
2.398097e+003,-3.764561e+000
2.399061e+003,-3.805795e+000
2.400025e+003,-2.659218e+000
2.400990e+003,-2.004005e+000
2.401954e+003,-2.416716e+000
2.402918e+003,-2.870190e+000
2.403882e+003,-2.836633e+000
2.404846e+003,-2.965199e+000
2.405811e+003,-3.949904e+000
2.406775e+003,-4.541524e+000
2.407739e+003,-2.744162e+000
2.408703e+003,4.510498e-003
2.409668e+003,-5.501159e-001
2.410632e+003,-3.548819e+000
2.411596e+003,-4.685916e+000
2.412560e+003,-4.210734e+000
2.413525e+003,-2.684685e+000
2.414489e+003,-6.027588e-001
2.415453e+003,5.322021e-001
2.416417e+003,5.511261e-001
2.417382e+003,-3.226898e-001
2.418346e+003,-1.814989e+000
2.419310e+003,-3.340784e+000
2.420274e+003,-4.564629e+000
2.421239e+003,-4.616714e+000
2.422203e+003,-2.548782e+000
2.423167e+003,-5.428833e-001
2.424131e+003,-2.827789e-001
2.425095e+003,-4.342895e-001
2.426060e+003,-2.254639e-002
2.427024e+003,1.939545e-001
2.427988e+003,-7.419128e-001
2.428952e+003,-1.807301e+000
2.429917e+003,-2.043308e+000
2.430881e+003,-1.664391e+000
2.431845e+003,-7.708435e-001
2.432809e+003,2.895569e-001
2.433773e+003,3.171173e-001
2.434738e+003,-6.778564e-001
2.435702e+003,-1.209731e+000
2.436666e+003,-1.365552e+000
2.437630e+003,-6.147125e-001
2.438595e+003,1.373990e+000
2.439559e+003,2.725690e+000
2.440523e+003,3.139047e+000
2.441487e+003,3.628836e+000
2.442452e+003,4.497491e+000
2.443416e+003,4.928030e+000
2.444380e+003,4.508853e+000
2.445344e+003,3.632782e+000
2.446309e+003,2.582065e+000
2.447273e+003,2.146137e+000
2.448237e+003,3.623880e+000
2.449201e+003,5.682617e+000
2.450166e+003,6.309482e+000
2.451130e+003,5.909265e+000
2.452094e+003,4.394361e+000
2.453058e+003,2.828024e+000
2.454022e+003,3.476898e+000
2.454987e+003,4.881964e+000
2.455951e+003,3.712958e+000
2.456915e+003,9.719696e-001
2.457879e+003,9.501648e-002
2.458844e+003,1.429745e+000
2.459808e+003,3.156073e+000
2.460772e+003,5.016599e+000
2.461736e+003,5.837784e+000
2.462700e+003,4.112909e+000
2.463665e+003,3.443170e+000
2.464629e+003,5.294128e+000
2.465593e+003,6.459479e+000
2.466557e+003,6.011395e+000
2.467522e+003,5.417740e+000
2.468486e+003,5.203958e+000
2.469450e+003,5.254541e+000
2.470414e+003,5.565650e+000
2.471379e+003,5.771817e+000
2.472343e+003,5.329206e+000
2.473307e+003,4.909204e+000
2.474271e+003,6.204038e+000
2.475236e+003,8.342291e+000
2.476200e+003,8.204816e+000
2.477164e+003,6.623801e+000
2.478128e+003,5.921936e+000
2.479093e+003,5.999671e+000
2.480057e+003,6.302316e+000
2.481021e+003,6.790423e+000
2.481985e+003,7.893283e+000
2.482949e+003,9.336649e+000
2.483914e+003,1.004822e+001
2.484878e+003,9.767929e+000
2.485842e+003,8.977762e+000
2.486806e+003,7.622684e+000
2.487771e+003,7.113840e+000
2.488735e+003,8.961047e+000
2.489699e+003,1.012495e+001
2.490663e+003,8.942678e+000
2.491627e+003,8.182584e+000
2.492592e+003,9.488544e+000
2.493556e+003,1.037278e+001
2.494520e+003,9.270823e+000
2.495484e+003,8.084989e+000
2.496449e+003,8.426661e+000
2.497413e+003,9.416178e+000
2.498377e+003,9.877054e+000
2.499341e+003,9.785437e+000
2.500306e+003,8.773661e+000
2.501270e+003,7.309412e+000
2.502234e+003,7.913284e+000
2.503198e+003,9.851877e+000
2.504163e+003,1.016434e+001
2.505127e+003,9.511609e+000
2.506091e+003,1.071684e+001
2.507055e+003,1.326303e+001
2.508020e+003,1.461408e+001
2.508984e+003,1.447108e+001
2.509948e+003,1.392093e+001
2.510912e+003,1.335843e+001
2.511876e+003,1.312160e+001
2.512841e+003,1.341487e+001
2.513805e+003,1.376578e+001
2.514769e+003,1.379499e+001
2.515733e+003,1.419045e+001
2.516698e+003,1.532932e+001
2.517662e+003,1.654806e+001
2.518626e+003,1.800505e+001
2.519590e+003,1.892009e+001
2.520554e+003,1.851077e+001
2.521519e+003,1.832347e+001
2.522483e+003,1.980303e+001
2.523447e+003,2.177623e+001
2.524411e+003,2.252550e+001
2.525376e+003,2.269920e+001
2.526340e+003,2.400059e+001
2.527304e+003,2.588743e+001
2.528268e+003,2.644478e+001
2.529233e+003,2.638030e+001
2.530197e+003,2.737010e+001
2.531161e+003,2.915516e+001
2.532125e+003,3.141764e+001
2.533090e+003,3.344415e+001
2.534054e+003,3.342635e+001
2.535018e+003,3.190925e+001
2.535982e+003,3.179903e+001
2.536947e+003,3.368530e+001
2.537911e+003,3.541297e+001
2.538875e+003,3.632322e+001
2.539839e+003,3.745931e+001
2.540803e+003,3.913467e+001
2.541768e+003,4.080835e+001
2.542732e+003,4.311398e+001
2.543696e+003,4.334900e+001
2.544660e+003,4.005870e+001
2.545625e+003,3.813835e+001
2.546589e+003,3.998022e+001
2.547553e+003,4.260472e+001
2.548517e+003,4.372215e+001
2.549482e+003,4.422896e+001
2.550446e+003,4.523285e+001
2.551410e+003,4.613558e+001
2.552374e+003,4.582789e+001
2.553339e+003,4.494481e+001
2.554303e+003,4.444470e+001
2.555267e+003,4.397992e+001
2.556231e+003,4.312326e+001
2.557196e+003,4.195435e+001
2.558160e+003,4.018137e+001
2.559124e+003,3.848078e+001
2.560088e+003,3.844767e+001
2.561052e+003,3.943508e+001
2.562017e+003,3.874395e+001
2.562981e+003,3.625655e+001
2.563945e+003,3.406363e+001
2.564909e+003,3.196572e+001
2.565874e+003,3.149597e+001
2.566838e+003,3.306437e+001
2.567802e+003,3.298771e+001
2.568766e+003,3.096524e+001
2.569730e+003,2.954592e+001
2.570695e+003,2.911492e+001
2.571659e+003,2.763935e+001
2.572623e+003,2.466593e+001
2.573587e+003,2.256254e+001
2.574552e+003,2.254366e+001
2.575516e+003,2.248408e+001
2.576480e+003,2.072997e+001
2.577444e+003,1.927121e+001
2.578409e+003,1.993744e+001
2.579373e+003,2.043004e+001
2.580337e+003,1.943599e+001
2.581301e+003,1.811028e+001
2.582266e+003,1.705669e+001
2.583230e+003,1.600281e+001
2.584194e+003,1.455732e+001
2.585158e+003,1.319719e+001
2.586123e+003,1.237392e+001
2.587087e+003,1.208989e+001
2.588051e+003,1.243476e+001
2.589015e+003,1.307676e+001
2.589979e+003,1.287335e+001
2.590944e+003,1.210204e+001
2.591908e+003,1.199370e+001
2.592872e+003,1.218173e+001
2.593836e+003,1.176729e+001
2.594801e+003,1.088593e+001
2.595765e+003,9.820493e+000
2.596729e+003,8.738828e+000
2.597693e+003,7.879807e+000
2.598657e+003,7.217499e+000
2.599622e+003,6.452277e+000
2.600586e+003,5.539538e+000
2.601550e+003,4.920453e+000
2.602514e+003,4.763678e+000
2.603479e+003,4.572372e+000
2.604443e+003,4.161294e+000
2.605407e+003,4.348792e+000
2.606371e+003,5.401721e+000
2.607336e+003,5.977911e+000
2.608300e+003,5.775647e+000
2.609264e+003,5.036294e+000
2.610228e+003,3.888577e+000
2.611193e+003,2.771973e+000
2.612157e+003,1.965344e+000
2.613121e+003,1.576981e+000
2.614085e+003,1.740793e+000
2.615050e+003,2.094107e+000
2.616014e+003,2.397421e+000
2.616978e+003,2.670831e+000
2.617942e+003,3.089856e+000
2.618906e+003,3.320935e+000
2.619871e+003,3.270139e+000
2.620835e+003,2.796442e+000
2.621799e+003,1.482303e+000
2.622763e+003,1.107864e-001
2.623728e+003,-7.255081e-001
2.624692e+003,-8.152771e-001
2.625656e+003,3.392410e-001
2.626620e+003,2.043610e+000
2.627584e+003,2.345297e+000
2.628549e+003,1.700674e+000
2.629513e+003,1.563129e+000
2.630477e+003,1.728540e+000
2.631441e+003,1.756754e+000
2.632406e+003,1.711728e+000
2.633370e+003,1.707806e+000
2.634334e+003,1.848950e+000
2.635298e+003,2.410641e+000
2.636263e+003,3.180618e+000
2.637227e+003,3.600998e+000
2.638191e+003,3.587360e+000
2.639155e+003,2.868436e+000
2.640120e+003,1.223732e+000
2.641084e+003,4.261581e-001
2.642048e+003,5.905274e-001
2.643012e+003,7.217224e-001
2.643977e+003,7.826874e-001
2.644941e+003,6.852005e-001
2.645905e+003,4.432983e-001
2.646869e+003,2.870087e-001
2.647833e+003,2.677292e-001
2.648798e+003,2.352753e-001
2.649762e+003,1.719238e-001
2.650726e+003,5.646530e-001
2.651690e+003,1.865350e+000
2.652655e+003,2.494730e+000
2.653619e+003,1.070959e+000
2.654583e+003,-3.836975e-002
2.655547e+003,-1.626526e-001
2.656511e+003,1.774780e-001
2.657476e+003,1.115353e+000
2.658440e+003,1.764659e+000
2.659404e+003,1.764871e+000
2.660368e+003,1.296004e+000
2.661333e+003,4.423080e-001
2.662297e+003,-2.740021e-002
2.663261e+003,6.836182e-001
2.664225e+003,1.637935e+000
2.665190e+003,1.840221e+000
2.666154e+003,1.350961e+000
2.667118e+003,-6.698135e-001
2.668082e+003,-2.236775e+000
2.669047e+003,-9.449585e-001
2.670011e+003,9.617004e-001
2.670975e+003,1.816652e+000
2.671939e+003,1.713481e+000
2.672904e+003,3.780212e-001
2.673868e+003,-1.018849e+000
2.674832e+003,-7.004852e-001
2.675796e+003,4.236130e-001
2.676760e+003,-8.850098e-002
2.677725e+003,-1.708626e+000
2.678689e+003,-2.314868e+000
2.679653e+003,-2.163936e+000
2.680617e+003,-1.944243e+000
2.681582e+003,-1.661989e+000
2.682546e+003,-1.120013e+000
2.683510e+003,-5.057586e-001
2.684474e+003,-2.890854e-001
2.685438e+003,-3.233444e-001
2.686403e+003,2.122040e-002
2.687367e+003,6.663483e-001
2.688331e+003,5.933838e-001
2.689295e+003,-2.249252e-001
2.690260e+003,-2.277878e-001
2.691224e+003,7.660111e-001
2.692188e+003,5.909256e-001
2.693152e+003,-6.874374e-001
2.694117e+003,-4.581131e-001
2.695081e+003,1.147514e+000
2.696045e+003,2.110484e+000
2.697009e+003,1.956883e+000
2.697974e+003,3.065033e-001
2.698938e+003,-2.371164e+000
2.699902e+003,-3.152158e+000
2.700866e+003,-9.521469e-001
2.701831e+003,7.764130e-001
2.702795e+003,8.539200e-001
2.703759e+003,8.768402e-001
2.704723e+003,9.147720e-001
2.705688e+003,1.139163e+000
2.706652e+003,1.688341e+000
2.707616e+003,1.266115e+000
2.708580e+003,-4.000046e-001
2.709544e+003,-1.472717e+000
2.710509e+003,-1.279167e+000
2.711473e+003,-1.153934e+000
2.712437e+003,-1.843826e+000
2.713401e+003,-2.200565e+000
2.714365e+003,-1.194800e+000
2.715330e+003,-3.699814e-001
2.716294e+003,-5.228149e-001
2.717258e+003,-1.017737e+000
2.718222e+003,-1.715884e+000
2.719187e+003,-2.715862e+000
2.720151e+003,-4.585917e+000
2.721115e+003,-5.022188e+000
2.722079e+003,-2.693092e+000
2.723044e+003,-3.939011e-001
2.724008e+003,-2.136520e-001
2.724972e+003,-1.028137e+000
2.725936e+003,-1.909538e+000
2.726901e+003,-2.271693e+000
2.727865e+003,-7.559234e-001
2.728829e+003,6.383011e-001
2.729793e+003,1.128601e-001
2.730758e+003,-9.391114e-001
2.731722e+003,-2.038191e+000
2.732686e+003,-2.680431e+000
2.733650e+003,-2.420460e+000
2.734615e+003,-1.807349e+000
2.735579e+003,-1.182974e+000
2.736543e+003,-9.243286e-001
2.737507e+003,-1.627414e+000
2.738471e+003,-2.616458e+000
2.739436e+003,-2.504819e+000
2.740400e+003,-1.958049e+000
2.741364e+003,-2.159598e+000
2.742328e+003,-2.508508e+000
2.743292e+003,-2.330618e+000
2.744257e+003,-1.872960e+000
2.745221e+003,-1.166689e+000
2.746185e+003,-6.103745e-001
2.747149e+003,-8.243744e-001
2.748114e+003,-1.334161e+000
2.749078e+003,-1.491144e+000
2.750042e+003,-1.293198e+000
2.751006e+003,-6.346985e-001
2.751971e+003,2.232315e-001
2.752935e+003,2.538437e-001
2.753899e+003,-1.227875e-001
2.754863e+003,7.863922e-002
2.755828e+003,5.014343e-001
2.756792e+003,4.731049e-001
2.757756e+003,2.289414e-001
2.758720e+003,1.172256e-001
2.759685e+003,2.210587e-001
2.760649e+003,9.704437e-001
2.761613e+003,1.824860e+000
2.762577e+003,9.087906e-001
2.763542e+003,-1.406778e+000
2.764506e+003,-2.085379e+000
2.765470e+003,-1.463065e+000
2.766434e+003,-1.392069e+000
2.767398e+003,-1.528737e+000
2.768363e+003,-3.300506e-001
2.769327e+003,1.151877e+000
2.770291e+003,-8.260345e-002
2.771255e+003,-2.666365e+000
2.772219e+003,-2.298883e+000
2.773184e+003,5.000198e-001
2.774148e+003,6.728455e-001
2.775112e+003,-1.616794e+000
2.776076e+003,-2.041826e+000
2.777041e+003,-5.489960e-001
2.778005e+003,-1.345746e+000
2.778969e+003,-3.684912e+000
2.779933e+003,-2.812100e+000
2.780898e+003,6.138916e-002
2.781862e+003,3.512497e-001
2.782826e+003,-1.614130e+000
2.783790e+003,-3.655305e+000
2.784755e+003,-4.958282e+000
2.785719e+003,-4.094530e+000
2.786683e+003,-9.060211e-001
2.787647e+003,8.160111e-001
2.788612e+003,9.509796e-001
2.789576e+003,2.067413e-002
2.790540e+003,-1.874582e+000
2.791504e+003,-1.709564e+000
2.792469e+003,8.996888e-002
2.793433e+003,6.144821e-001
2.794397e+003,-1.179016e-001
2.795361e+003,-5.616455e-001
2.796325e+003,-5.291061e-001
2.797290e+003,-7.983185e-001
2.798254e+003,-1.451622e+000
2.799218e+003,-1.389584e+000
2.800182e+003,-3.803787e-001
2.801146e+003,1.395172e-001
2.802111e+003,1.210342e-001
2.803075e+003,6.175171e-001
2.804039e+003,1.518491e+000
2.805003e+003,1.522820e+000
2.805968e+003,6.153167e-001
2.806932e+003,-7.790787e-001
2.807896e+003,-2.134500e+000
2.808860e+003,-2.218773e+000
2.809825e+003,-9.725998e-001
2.810789e+003,-4.831848e-002
2.811753e+003,2.121826e-001
2.812717e+003,6.439514e-002
2.813682e+003,-6.907135e-001
2.814646e+003,-5.743759e-001
2.815610e+003,3.974899e-001
2.816574e+003,6.422272e-002
2.817539e+003,-1.368263e+000
2.818503e+003,-1.547241e+000
2.819467e+003,-5.196198e-001
2.820431e+003,-2.603790e-001
2.821396e+003,-9.977738e-001
2.822360e+003,-1.260637e+000
2.823324e+003,-7.210953e-001
2.824288e+003,5.908707e-001
2.825252e+003,3.326790e+000
2.826217e+003,3.708420e+000
2.827181e+003,1.658730e+000
2.828145e+003,1.109918e+000
2.829109e+003,2.011153e+000
2.830073e+003,1.886494e+000
2.831038e+003,5.732514e-001
2.832002e+003,-1.167076e+000
2.832966e+003,-2.736584e+000
2.833930e+003,-2.638127e+000
2.834895e+003,-5.434540e-001
2.835859e+003,1.207266e+000
2.836823e+003,2.620114e+000
2.837787e+003,2.342381e+000
2.838752e+003,2.153915e-001
2.839716e+003,-3.558106e-001
2.840680e+003,5.469635e-001
2.841644e+003,9.147263e-001
2.842609e+003,5.512878e-001
2.843573e+003,-2.081787e-001
2.844537e+003,-9.722107e-001
2.845501e+003,-6.580261e-001
2.846466e+003,7.870728e-001
2.847430e+003,1.205309e+000
2.848394e+003,3.044022e-001
2.849358e+003,-6.629852e-001
2.850323e+003,-1.722180e+000
2.851287e+003,-2.119948e+000
2.852251e+003,-1.908734e+000
2.853215e+003,-1.544044e+000
2.854179e+003,-1.077808e+000
2.855144e+003,-2.441818e-001
2.856108e+003,6.814163e-001
2.857072e+003,8.257111e-001
2.858036e+003,1.397995e-001
2.859000e+003,-8.637482e-001
2.859965e+003,-2.147620e+000
2.860929e+003,-1.613672e+000
2.861893e+003,7.984161e-001
2.862857e+003,1.088469e+000
2.863822e+003,-2.769852e-001
2.864786e+003,-1.094971e+000
2.865750e+003,-1.139427e+000
2.866714e+003,6.786652e-002
2.867679e+003,1.636938e+000
2.868643e+003,1.104846e+000
2.869607e+003,-1.065685e+000
2.870571e+003,-1.422313e+000
2.871536e+003,-1.000977e-001
2.872500e+003,9.706405e-001
2.873464e+003,1.744176e+000
2.874428e+003,1.401143e+000
2.875393e+003,2.484055e-001
2.876357e+003,-1.148883e+000
2.877321e+003,-2.188180e+000
2.878285e+003,-1.344576e+000
2.879250e+003,4.137985e-001
2.880214e+003,8.924958e-001
2.881178e+003,4.832214e-001
2.882142e+003,1.216855e+000
2.883106e+003,2.475003e+000
2.884071e+003,1.327071e+000
2.885035e+003,-1.374081e+000
2.885999e+003,-5.953125e-001
2.886963e+003,2.113023e+000
2.887927e+003,3.519988e+000
2.888892e+003,3.700197e+000
2.889856e+003,2.130574e+000
2.890820e+003,4.049988e-001
2.891784e+003,1.593277e+000
2.892749e+003,3.575539e+000
2.893713e+003,2.472655e+000
2.894677e+003,-2.892761e-002
2.895641e+003,3.387451e-004
2.896606e+003,1.462515e+000
2.897570e+003,1.235284e+000
2.898534e+003,4.244766e-001
2.899498e+003,9.460236e-001
2.900463e+003,1.804063e+000
2.901427e+003,1.744725e+000
2.902391e+003,1.438740e+000
2.903355e+003,1.802611e+000
2.904320e+003,2.123822e+000
2.905284e+003,1.606230e+000
2.906248e+003,8.059052e-001
2.907212e+003,5.638474e-001
2.908177e+003,6.215927e-001
2.909141e+003,5.754806e-001
2.910105e+003,5.319519e-001
2.911069e+003,6.810471e-001
2.912033e+003,7.808472e-001
2.912998e+003,9.030212e-001
2.913962e+003,4.886276e-001
2.914926e+003,-1.105818e+000
2.915890e+003,-2.311186e+000
2.916854e+003,-1.944931e+000
2.917819e+003,-1.187025e+000
2.918783e+003,-1.236475e+000
2.919747e+003,-1.377011e+000
2.920711e+003,-7.009048e-001
2.921676e+003,-4.526367e-002
2.922640e+003,-2.313019e-001
2.923604e+003,-8.540497e-002
2.924568e+003,1.192538e+000
2.925533e+003,2.052200e+000
2.926497e+003,1.918806e+000
2.927461e+003,1.398135e+000
2.928425e+003,9.083923e-001
2.929390e+003,-1.104567e+000
2.930354e+003,-6.317174e+000
2.931318e+003,-8.998213e+000
2.932282e+003,-3.002946e+000
2.933247e+003,1.482513e+000
2.934211e+003,1.428810e+000
2.935175e+003,9.516617e-001
2.936139e+003,2.036407e-001
2.937104e+003,-1.276413e+000
2.938068e+003,-3.340913e+000
2.939032e+003,-3.254163e+000
2.939996e+003,-5.610275e-001
2.940960e+003,1.518694e+000
2.941925e+003,1.723451e+000
2.942889e+003,1.699812e+000
2.943853e+003,2.092609e+000
2.944817e+003,1.776213e+000
2.945781e+003,5.752121e-001
2.946746e+003,-5.767212e-001
2.947710e+003,-1.567523e+000
2.948674e+003,-1.659811e+000
2.949638e+003,-9.649200e-001
2.950603e+003,-2.827347e-001
2.951567e+003,2.988495e-001
2.952531e+003,1.312463e+000
2.953495e+003,2.724617e+000
2.954460e+003,3.530037e+000
2.955424e+003,3.720795e+000
2.956388e+003,1.288615e+000
2.957352e+003,-3.182492e+000
2.958317e+003,-3.444563e+000
2.959281e+003,-9.408646e-001
2.960245e+003,3.479874e-001
2.961209e+003,4.867721e-001
2.962174e+003,2.168503e-001
2.963138e+003,-1.481461e-001
2.964102e+003,-3.728668e-001
2.965066e+003,-2.556366e-001
2.966031e+003,7.942871e-001
2.966995e+003,2.276187e+000
2.967959e+003,2.659413e+000
2.968923e+003,2.173404e+000
2.969887e+003,5.906982e-001
2.970852e+003,-7.929962e-001
2.971816e+003,-9.054871e-002
2.972780e+003,1.303777e+000
2.973744e+003,2.362221e+000
2.974708e+003,2.609306e+000
2.975673e+003,1.466896e+000
2.976637e+003,1.730637e-001
2.977601e+003,1.957382e-001
2.978565e+003,8.061157e-001
2.979530e+003,1.212978e+000
2.980494e+003,1.526025e+000
2.981458e+003,1.824245e+000
2.982422e+003,2.086221e+000
2.983387e+003,2.473306e+000
2.984351e+003,2.365190e+000
2.985315e+003,1.490152e+000
2.986279e+003,6.113159e-001
2.987244e+003,1.176971e-001
2.988208e+003,-2.361511e-001
2.989172e+003,-6.161087e-001
2.990136e+003,-8.125473e-001
2.991101e+003,-5.859024e-001
2.992065e+003,-3.605164e-001
2.993029e+003,-3.718979e-001
2.993993e+003,8.501129e-002
2.994958e+003,1.108166e+000
2.995922e+003,1.762320e+000
2.996886e+003,1.930450e+000
2.997850e+003,2.151950e+000
2.998814e+003,2.516682e+000
2.999779e+003,2.633633e+000
3.000743e+003,2.390327e+000
3.001707e+003,2.096802e+000
3.002671e+003,1.828990e+000
3.003635e+003,1.209756e+000
3.004600e+003,2.832459e-001
3.005564e+003,9.569244e-002
3.006528e+003,3.556000e-001
3.007492e+003,-2.607193e-001
3.008457e+003,-1.158836e+000
3.009421e+003,-6.840622e-001
3.010385e+003,7.980133e-001
3.011349e+003,2.200526e+000
3.012314e+003,3.046696e+000
3.013278e+003,1.834201e+000
3.014242e+003,-4.993561e-001
3.015206e+003,-8.618072e-001
3.016171e+003,-1.607742e-001
3.017135e+003,5.429825e-001
3.018099e+003,9.048249e-001
3.019063e+003,-2.220459e-002
3.020028e+003,-5.452225e-001
3.020992e+003,1.139288e+000
3.021956e+003,2.423703e+000
3.022920e+003,9.497620e-001
3.023885e+003,-1.084314e+000
3.024849e+003,-1.236642e+000
3.025813e+003,-8.985092e-001
3.026777e+003,-1.601639e+000
3.027741e+003,-1.954263e+000
3.028706e+003,-7.354065e-001
3.029670e+003,2.857666e-002
3.030634e+003,-2.081863e-001
3.031598e+003,-5.443985e-001
3.032563e+003,-6.626633e-001
3.033527e+003,-3.589020e-001
3.034491e+003,4.422348e-001
3.035455e+003,1.612570e+000
3.036420e+003,3.307086e+000
3.037384e+003,3.825606e+000
3.038348e+003,2.287996e+000
3.039312e+003,1.423259e+000
3.040277e+003,1.286462e+000
3.041241e+003,1.321471e+000
3.042205e+003,1.376451e+000
3.043169e+003,1.146809e+000
3.044134e+003,6.968430e-001
3.045098e+003,2.045532e-001
3.046062e+003,-1.773956e-001
3.047026e+003,8.818054e-002
3.047990e+003,7.876495e-001
3.048955e+003,7.316071e-001
3.049919e+003,7.254791e-002
3.050883e+003,-7.703308e-001
3.051847e+003,-1.503215e+000
3.052812e+003,-1.606693e+000
3.053776e+003,-1.305485e+000
3.054740e+003,-8.416244e-001
3.055704e+003,-1.683670e-001
3.056668e+003,9.538696e-001
3.057633e+003,1.737723e+000
3.058597e+003,1.254001e+000
3.059561e+003,3.773666e-001
3.060525e+003,2.855042e-001
3.061490e+003,1.512772e-001
3.062454e+003,-8.598191e-001
3.063418e+003,-1.779466e+000
3.064382e+003,-2.447517e+000
3.065347e+003,-2.350148e+000
3.066311e+003,-1.317361e+000
3.067275e+003,-4.516540e-001
3.068239e+003,-1.549698e-001
3.069204e+003,3.902588e-002
3.070168e+003,3.198410e-001
3.071132e+003,6.835327e-001
3.072096e+003,1.187210e+000
3.073061e+003,1.766408e+000
3.074025e+003,2.523582e+000
3.074989e+003,1.919305e+000
3.075953e+003,2.534866e-001
3.076917e+003,-6.099716e-001
3.077882e+003,-6.873886e-001
3.078846e+003,-6.954514e-001
3.079810e+003,-7.065827e-001
3.080774e+003,-5.774094e-001
3.081739e+003,-3.029373e-001
3.082703e+003,2.238327e-001
3.083667e+003,7.827469e-001
3.084631e+003,3.442688e-001
3.085595e+003,-2.359909e-001
3.086560e+003,8.480972e-001
3.087524e+003,2.052745e+000
3.088488e+003,1.832997e+000
3.089452e+003,8.129074e-001
3.090417e+003,-7.887665e-001
3.091381e+003,-1.856239e+000
3.092345e+003,-1.510223e+000
3.093309e+003,-5.661392e-001
3.094274e+003,4.067169e-001
3.095238e+003,1.098526e+000
3.096202e+003,9.734894e-001
3.097166e+003,1.306764e+000
3.098131e+003,2.770705e+000
3.099095e+003,2.418123e+000
3.100059e+003,-7.776032e-002
3.101023e+003,-1.508083e+000
3.101988e+003,-1.203816e+000
3.102952e+003,-9.476471e-002
3.103916e+003,1.291753e+000
3.104880e+003,9.749100e-001
3.105844e+003,-1.272876e+000
3.106809e+003,-1.887733e+000
3.107773e+003,-1.091953e+000
3.108737e+003,-1.830142e+000
3.109701e+003,-3.205093e+000
3.110666e+003,-2.760089e+000
3.111630e+003,-1.359276e+000
3.112594e+003,-3.272766e-001
3.113558e+003,1.404968e-001
3.114522e+003,-8.749084e-002
3.115487e+003,-4.364853e-001
3.116451e+003,-2.146912e-002
3.117415e+003,5.350677e-001
3.118379e+003,3.298111e-001
3.119344e+003,-1.418381e-001
3.120308e+003,-7.721207e-001
3.121272e+003,-1.169876e+000
3.122236e+003,-1.319836e+000
3.123201e+003,-6.123794e-001
3.124165e+003,1.092528e+000
3.125129e+003,1.691855e+000
3.126093e+003,4.671005e-001
3.127058e+003,-5.003494e-001
3.128022e+003,-3.197937e-001
3.128986e+003,1.778198e-001
3.129950e+003,1.030743e+000
3.130915e+003,1.433487e+000
3.131879e+003,1.375291e+000
3.132843e+003,3.040146e-001
3.133807e+003,-1.164757e+000
3.134771e+003,-1.253510e+000
3.135736e+003,-3.843918e-001
3.136700e+003,3.116241e-001
3.137664e+003,6.537369e-001
3.138628e+003,5.137116e-001
3.139593e+003,-2.983551e-002
3.140557e+003,-1.238664e+000
3.141521e+003,-2.161981e+000
3.142485e+003,-6.417099e-001
3.143449e+003,8.897049e-001
3.144414e+003,6.696014e-001
3.145378e+003,-7.394226e-001
3.146342e+003,-3.582851e+000
3.147306e+003,-3.889544e+000
3.148271e+003,1.074066e-002
3.149235e+003,2.865974e+000
3.150199e+003,1.690288e+000
3.151163e+003,-2.954102e-003
3.152128e+003,-8.689758e-001
3.153092e+003,-1.777032e+000
3.154056e+003,-2.910515e+000
3.155020e+003,-1.957822e+000
3.155985e+003,5.291595e-001
3.156949e+003,1.593349e+000
3.157913e+003,1.183659e+000
3.158877e+003,-1.193726e-001
3.159842e+003,-1.629596e+000
3.160806e+003,-1.988945e+000
3.161770e+003,-1.483571e+000
3.162734e+003,-5.898392e-001
3.163698e+003,1.014648e-001
3.164663e+003,-1.311670e+000
3.165627e+003,-2.895442e+000
3.166591e+003,-2.806126e+000
3.167555e+003,-1.684630e+000
3.168520e+003,5.541016e-001
3.169484e+003,1.418677e+000
3.170448e+003,-2.465866e-001
3.171412e+003,-1.193410e+000
3.172376e+003,4.802383e-001
3.173341e+003,1.904527e+000
3.174305e+003,1.484174e+000
3.175269e+003,1.022089e+000
3.176233e+003,8.001450e-001
3.177198e+003,-2.204895e-002
3.178162e+003,-1.342900e+000
3.179126e+003,-2.385542e+000
3.180090e+003,-2.878722e+000
3.181055e+003,-2.290361e+000
3.182019e+003,-9.748062e-001
3.182983e+003,2.735763e-001
3.183947e+003,1.040306e+000
3.184912e+003,2.291153e-001
3.185876e+003,-1.313249e+000
3.186840e+003,-1.990305e+000
3.187804e+003,-1.961235e+000
3.188769e+003,-6.737503e-001
3.189733e+003,1.371689e-001
3.190697e+003,-7.738342e-001
3.191661e+003,-1.210017e+000
3.192625e+003,-2.615418e-001
3.193590e+003,4.383697e-002
3.194554e+003,-1.292696e+000
3.195518e+003,-2.144211e+000
3.196482e+003,-1.425009e+000
3.197447e+003,-2.628632e-001
3.198411e+003,1.437303e+000
3.199375e+003,1.500662e+000
3.200339e+003,2.736465e-001
3.201303e+003,1.691132e-002
3.202268e+003,5.481079e-001
3.203232e+003,1.119864e+000
3.204196e+003,1.342320e+000
3.205160e+003,5.830505e-001
3.206125e+003,-3.365021e-001
3.207089e+003,2.150040e-001
3.208053e+003,1.151012e+000
3.209017e+003,1.787857e-001
3.209982e+003,-7.461823e-001
3.210946e+003,2.887772e-001
3.211910e+003,1.471135e+000
3.212874e+003,2.176770e+000
3.213839e+003,2.777344e+000
3.214803e+003,3.316514e+000
3.215767e+003,2.582144e+000
3.216731e+003,2.972961e-001
3.217696e+003,-1.194319e+000
3.218660e+003,-1.015376e+000
3.219624e+003,-4.260849e-001
3.220588e+003,5.582825e-001
3.221552e+003,1.395882e+000
3.222517e+003,1.996251e+000
3.223481e+003,2.233212e+000
3.224445e+003,1.939064e+000
3.225409e+003,3.892319e-001
3.226374e+003,-1.237610e+000
3.227338e+003,-1.698863e+000
3.228302e+003,-1.223927e+000
3.229266e+003,1.613846e-001
3.230230e+003,1.158873e+000
3.231195e+003,-5.015808e-001
3.232159e+003,-1.551140e+000
3.233123e+003,9.205627e-003
3.234087e+003,1.331444e+000
3.235052e+003,2.004880e+000
3.236016e+003,1.762527e+000
3.236980e+003,8.037842e-001
3.237944e+003,3.354050e-001
3.238909e+003,5.494873e-001
3.239873e+003,3.416611e-001
3.240837e+003,-2.633621e-001
3.241801e+003,-1.486588e-001
3.242766e+003,4.056778e-001
3.243730e+003,3.767090e-002
3.244694e+003,-4.949905e-001
3.245658e+003,2.706482e-001
3.246623e+003,9.088730e-001
3.247587e+003,5.203094e-002
3.248551e+003,-9.326859e-001
3.249515e+003,-1.192830e+000
3.250479e+003,-6.863526e-001
3.251444e+003,8.162323e-001
3.252408e+003,1.529942e+000
3.253372e+003,-7.104339e-002
3.254336e+003,-1.656900e+000
3.255301e+003,-3.192603e+000
3.256265e+003,-2.402019e+000
3.257229e+003,1.202393e-003
3.258193e+003,1.635056e-001
3.259157e+003,-1.406990e+000
3.260122e+003,-1.963777e+000
3.261086e+003,-1.578098e+000
3.262050e+003,-1.053303e+000
3.263014e+003,-6.131881e-001
3.263979e+003,-1.061363e+000
3.264943e+003,-1.501308e+000
3.265907e+003,-2.558594e-001
3.266871e+003,4.653488e-001
3.267836e+003,-1.200778e+000
3.268800e+003,-1.545944e+000
3.269764e+003,4.571625e-001
3.270728e+003,1.496170e+000
3.271693e+003,4.558914e-001
3.272657e+003,-9.808213e-001
3.273621e+003,-2.272604e+000
3.274585e+003,-2.155167e+000
3.275550e+003,-5.556473e-001
3.276514e+003,6.324188e-001
3.277478e+003,1.218909e+000
3.278442e+003,-4.551392e-002
3.279406e+003,-1.669220e+000
3.280371e+003,-1.104686e+000
3.281335e+003,-1.448654e-001
3.282299e+003,-4.650146e-001
3.283263e+003,-9.463501e-001
3.284228e+003,-5.878403e-001
3.285192e+003,2.744873e-001
3.286156e+003,2.224168e+000
3.287120e+003,2.640450e+000
3.288084e+003,4.139862e-002
3.289049e+003,-5.955505e-003
3.290013e+003,2.551442e+000
3.290977e+003,3.283426e+000
3.291941e+003,2.076979e+000
3.292906e+003,8.488251e-001
3.293870e+003,7.141113e-002
3.294834e+003,-1.083435e-001
3.295798e+003,2.111816e-002
3.296763e+003,-4.159103e-001
3.297727e+003,-9.113800e-001
3.298691e+003,-4.459167e-001
3.299655e+003,1.526810e-001
3.300620e+003,2.304245e-001
3.301584e+003,3.093323e-001
3.302548e+003,5.388260e-001
3.303512e+003,3.236145e-001
3.304477e+003,-3.462479e-001
3.305441e+003,5.481507e-001
3.306405e+003,3.756229e+000
3.307369e+003,3.916580e+000
3.308333e+003,6.370850e-001
3.309298e+003,2.034012e-001
3.310262e+003,1.663145e+000
3.311226e+003,2.718013e+000
3.312190e+003,3.083847e+000
3.313155e+003,1.747125e+000
3.314119e+003,9.244812e-001
3.315083e+003,2.502008e+000
3.316047e+003,3.956516e+000
3.317011e+003,3.185916e+000
3.317976e+003,1.851686e+000
3.318940e+003,6.196610e-001
3.319904e+003,6.643631e-001
3.320868e+003,2.616693e+000
3.321833e+003,2.696903e+000
3.322797e+003,1.083690e+000
3.323761e+003,3.435181e-001
3.324725e+003,5.785294e-001
3.325690e+003,1.114159e+000
3.326654e+003,1.797038e+000
3.327618e+003,2.624548e+000
3.328582e+003,3.233861e+000
3.329547e+003,2.795441e+000
3.330511e+003,2.041620e+000
3.331475e+003,1.875479e+000
3.332439e+003,1.503626e+000
3.333404e+003,4.259796e-001
3.334368e+003,-1.747452e-001
3.335332e+003,-4.437714e-002
3.336296e+003,6.904419e-001
3.337260e+003,1.737685e+000
3.338225e+003,2.032243e+000
3.339189e+003,1.343286e+000
3.340153e+003,3.097519e-001
3.341117e+003,-9.317611e-001
3.342082e+003,-1.836610e+000
3.343046e+003,-2.182951e+000
3.344010e+003,-6.077148e-001
3.344974e+003,2.450775e-001
3.345938e+003,-2.170841e+000
3.346903e+003,-4.051336e+000
3.347867e+003,-3.602875e+000
3.348831e+003,-1.988770e+000
3.349795e+003,1.915024e-001
3.350760e+003,8.018478e-001
3.351724e+003,-1.713342e+000
3.352688e+003,-2.752036e+000
3.353652e+003,-2.427139e+000
3.354617e+003,-1.829933e+000
3.355581e+003,-1.061285e+000
3.356545e+003,5.253571e-001
3.357509e+003,1.384808e+000
3.358474e+003,-6.725250e-001
3.359438e+003,-3.117580e+000
3.360402e+003,-3.645475e+000
3.361366e+003,-2.761653e+000
3.362331e+003,1.345978e-001
3.363295e+003,1.447061e+000
3.364259e+003,-1.251022e+000
3.365223e+003,-2.049887e+000
3.366188e+003,-7.341309e-001
3.367152e+003,3.027115e-001
3.368116e+003,6.213058e-001
3.369080e+003,-1.570587e-001
3.370044e+003,-1.262854e+000
3.371009e+003,-8.046417e-001
3.371973e+003,1.791214e-001
3.372937e+003,-4.197388e-001
3.373901e+003,-1.498451e+000
3.374865e+003,-1.695055e+000
3.375830e+003,-2.012119e+000
3.376794e+003,-3.121021e+000
3.377758e+003,-3.239295e+000
3.378722e+003,-2.107098e+000
3.379687e+003,-7.956802e-001
3.380651e+003,3.098114e-001
3.381615e+003,1.143964e+000
3.382579e+003,1.537459e+000
3.383544e+003,6.344376e-001
3.384508e+003,-9.973221e-001
3.385472e+003,-1.258931e+000
3.386436e+003,-1.060210e+000
3.387401e+003,-1.688995e+000
3.388365e+003,-2.013499e+000
3.389329e+003,-1.442059e+000
3.390293e+003,-7.669830e-001
3.391258e+003,-3.056641e-001
3.392222e+003,3.570618e-001
3.393186e+003,1.398781e+000
3.394150e+003,1.032893e+000
3.395115e+003,-9.767410e-001
3.396079e+003,-4.604797e-002
3.397043e+003,2.621785e+000
3.398007e+003,3.524794e+000
3.398971e+003,3.402447e+000
3.399936e+003,3.016502e+000
3.400900e+003,2.833496e+000
3.401864e+003,3.109169e+000
3.402828e+003,3.428822e+000
3.403792e+003,3.502480e+000
3.404757e+003,4.246141e+000
3.405721e+003,6.995790e+000
3.406685e+003,7.257339e+000
3.407649e+003,4.932222e+000
3.408614e+003,4.796256e+000
3.409578e+003,6.383543e+000
3.410542e+003,8.446985e+000
3.411506e+003,9.924896e+000
3.412471e+003,9.188519e+000
3.413435e+003,8.573664e+000
3.414399e+003,1.041342e+001
3.415363e+003,1.285636e+001
3.416328e+003,1.455888e+001
3.417292e+003,1.504670e+001
3.418256e+003,1.369172e+001
3.419220e+003,1.290674e+001
3.420185e+003,1.283375e+001
3.421149e+003,1.314638e+001
3.422113e+003,1.354369e+001
3.423077e+003,1.318552e+001
3.424042e+003,1.284071e+001
3.425006e+003,1.413858e+001
3.425970e+003,1.551967e+001
3.426934e+003,1.427826e+001
