7.140112e+001,1.950521e+002
7.236536e+001,1.888593e+002
7.332959e+001,1.923046e+002
7.429382e+001,2.003082e+002
7.525806e+001,2.146231e+002
7.622229e+001,2.200826e+002
7.718652e+001,2.055395e+002
7.815076e+001,1.600781e+002
7.911499e+001,1.285221e+002
8.007922e+001,1.062994e+002
8.104346e+001,9.540788e+001
8.200769e+001,9.860860e+001
8.297192e+001,1.243329e+002
8.393616e+001,1.557652e+002
8.490039e+001,2.006004e+002
8.586462e+001,2.473718e+002
8.682886e+001,2.771438e+002
8.779310e+001,2.506318e+002
8.875733e+001,2.058490e+002
8.972157e+001,1.618322e+002
9.068580e+001,1.261909e+002
9.165003e+001,9.933829e+001
9.261427e+001,8.937508e+001
9.357850e+001,9.082888e+001
9.454273e+001,9.512577e+001
9.550697e+001,9.666399e+001
9.647120e+001,9.520097e+001
9.743543e+001,9.180265e+001
9.839967e+001,8.569871e+001
9.936390e+001,7.825055e+001
1.003281e+002,7.073096e+001
1.012924e+002,6.043823e+001
1.022566e+002,5.441618e+001
1.032208e+002,5.564165e+001
1.041851e+002,6.209924e+001
1.051493e+002,6.908103e+001
1.061135e+002,7.517004e+001
1.070778e+002,7.781786e+001
1.080420e+002,7.385443e+001
1.090062e+002,6.320771e+001
1.099705e+002,4.946714e+001
1.109347e+002,4.033001e+001
1.118989e+002,3.486017e+001
1.128632e+002,3.462862e+001
1.138274e+002,4.088372e+001
1.147916e+002,5.514194e+001
1.157559e+002,6.265840e+001
1.167201e+002,6.145275e+001
1.176843e+002,5.735012e+001
1.186486e+002,5.754871e+001
1.196128e+002,6.628225e+001
1.205770e+002,7.380640e+001
1.215413e+002,8.293056e+001
1.225055e+002,9.057858e+001
1.234697e+002,9.042924e+001
1.244340e+002,6.690684e+001
1.253982e+002,4.308976e+001
1.263624e+002,2.298634e+001
1.273267e+002,9.392761e+000
1.282909e+002,4.834631e+000
1.292551e+002,2.690923e+001
1.302194e+002,5.681273e+001
1.311836e+002,7.760219e+001
1.321478e+002,7.857506e+001
1.331121e+002,5.953129e+001
1.340763e+002,4.238871e+001
1.350405e+002,2.555514e+001
1.360048e+002,1.390508e+001
1.369690e+002,1.363197e+001
1.379332e+002,3.627251e+001
1.388975e+002,5.215998e+001
1.398617e+002,6.061552e+001
1.408259e+002,6.289178e+001
1.417902e+002,6.085338e+001
1.427544e+002,5.080981e+001
1.437186e+002,4.090102e+001
1.446829e+002,3.247001e+001
1.456471e+002,2.597861e+001
1.466113e+002,2.133557e+001
1.475756e+002,1.683953e+001
1.485398e+002,1.542496e+001
1.495040e+002,2.290903e+001
1.504683e+002,4.021162e+001
1.514325e+002,6.311741e+001
1.523967e+002,6.521321e+001
1.533610e+002,5.146165e+001
1.543252e+002,3.552721e+001
1.552894e+002,2.715297e+001
1.562537e+002,2.941855e+001
1.572179e+002,3.067540e+001
1.581821e+002,2.935259e+001
1.591464e+002,2.824901e+001
1.601106e+002,3.097349e+001
1.610748e+002,4.354174e+001
1.620391e+002,5.038073e+001
1.630033e+002,4.446862e+001
1.639676e+002,3.170543e+001
1.649318e+002,2.139816e+001
1.658960e+002,2.543018e+001
1.668603e+002,3.216127e+001
1.678245e+002,3.325222e+001
1.687887e+002,2.871768e+001
1.697530e+002,2.226091e+001
1.707172e+002,2.511420e+001
1.716814e+002,3.362817e+001
1.726457e+002,3.915937e+001
1.736099e+002,3.838744e+001
1.745741e+002,3.106649e+001
1.755384e+002,2.359130e+001
1.765026e+002,1.390878e+001
1.774668e+002,6.070447e+000
1.784311e+002,2.713696e+000
1.793953e+002,5.424329e+000
1.803595e+002,8.484680e+000
1.813238e+002,1.125525e+001
1.822880e+002,1.340106e+001
1.832522e+002,1.495797e+001
1.842165e+002,1.641493e+001
1.851807e+002,1.588175e+001
1.861449e+002,1.088842e+001
1.871092e+002,3.751941e+000
1.880734e+002,-2.824182e+000
1.890376e+002,-5.356153e+000
1.900019e+002,-3.755701e+000
1.909661e+002,1.463416e+000
1.919303e+002,1.010851e+001
1.928946e+002,2.017730e+001
1.938588e+002,2.479153e+001
1.948230e+002,2.027621e+001
1.957873e+002,1.840769e+001
1.967515e+002,2.182428e+001
1.977157e+002,3.043862e+001
1.986800e+002,3.912445e+001
1.996442e+002,4.641674e+001
2.006084e+002,5.418578e+001
2.015727e+002,6.576851e+001
2.025369e+002,8.190541e+001
2.035011e+002,9.148446e+001
2.044654e+002,8.316685e+001
2.054296e+002,6.856966e+001
2.063938e+002,5.286857e+001
2.073581e+002,3.964539e+001
2.083223e+002,2.986022e+001
2.092865e+002,2.328351e+001
2.102508e+002,2.014790e+001
2.112150e+002,2.343586e+001
2.121792e+002,3.650584e+001
2.131435e+002,6.311107e+001
2.141077e+002,7.828635e+001
2.150719e+002,7.835288e+001
2.160362e+002,7.086212e+001
2.170004e+002,6.695844e+001
2.179646e+002,7.091636e+001
2.189289e+002,7.257351e+001
2.198931e+002,6.645776e+001
2.208573e+002,5.768242e+001
2.218216e+002,5.602620e+001
2.227858e+002,7.409497e+001
2.237500e+002,9.520669e+001
2.247143e+002,1.189217e+002
2.256785e+002,1.407660e+002
2.266427e+002,1.531737e+002
2.276070e+002,1.335901e+002
2.285712e+002,9.794242e+001
2.295354e+002,6.524420e+001
2.304997e+002,4.124563e+001
2.314639e+002,2.534696e+001
2.324281e+002,1.528396e+001
2.333924e+002,1.126764e+001
2.343566e+002,9.699890e+000
2.353208e+002,1.005918e+001
2.362851e+002,1.279708e+001
2.372493e+002,1.441397e+001
2.382135e+002,1.386361e+001
2.391778e+002,1.315204e+001
2.401420e+002,1.373887e+001
2.411062e+002,1.647559e+001
2.420705e+002,1.765933e+001
2.430347e+002,1.423842e+001
2.439989e+002,9.189173e+000
2.449632e+002,4.338538e+000
2.459274e+002,1.007898e+000
2.468916e+002,-4.364746e-001
2.478559e+002,6.437134e-001
2.488201e+002,3.357056e+000
2.497843e+002,5.873743e+000
2.507486e+002,6.018005e+000
2.517128e+002,2.998267e+000
2.526770e+002,3.027954e+000
2.536413e+002,7.628784e+000
2.546055e+002,1.377443e+001
2.555697e+002,1.656539e+001
2.565340e+002,1.182063e+001
2.574982e+002,9.499329e+000
2.584625e+002,1.267399e+001
2.594267e+002,1.850603e+001
2.603909e+002,2.187203e+001
2.613552e+002,1.735019e+001
2.623194e+002,1.203279e+001
2.632836e+002,8.805469e+000
2.642479e+002,7.669226e+000
2.652121e+002,7.678064e+000
2.661763e+002,7.867785e+000
2.671406e+002,8.060217e+000
2.681048e+002,7.667139e+000
2.690690e+002,6.659400e+000
2.700333e+002,5.567126e+000
2.709975e+002,6.870923e+000
2.719617e+002,1.206056e+001
2.729260e+002,1.486342e+001
2.738902e+002,1.238811e+001
2.748544e+002,4.735339e+000
2.758187e+002,9.218750e-002
2.767829e+002,1.258276e+000
2.777471e+002,2.718005e+000
2.787114e+002,2.771484e+000
2.796756e+002,1.218030e+000
2.806398e+002,3.035645e-001
2.816041e+002,2.020813e+000
2.825683e+002,4.451587e+000
2.835325e+002,6.913721e+000
2.844968e+002,8.997363e+000
2.854610e+002,1.058285e+001
2.864252e+002,1.129114e+001
2.873895e+002,1.137826e+001
2.883537e+002,1.124153e+001
2.893179e+002,1.117371e+001
2.902822e+002,1.128014e+001
2.912464e+002,8.989477e+000
2.922106e+002,3.243249e+000
2.931749e+002,-2.461157e+000
2.941391e+002,-5.828516e+000
2.951033e+002,-6.221179e+000
2.960676e+002,-6.391187e+000
2.970318e+002,-6.854492e+000
2.979960e+002,-6.921191e+000
2.989603e+002,-6.280725e+000
2.999245e+002,-4.937696e+000
3.008887e+002,-2.328296e+000
3.018530e+002,2.837854e+000
3.028172e+002,8.673816e+000
3.037814e+002,1.349814e+001
3.047457e+002,1.590648e+001
3.057099e+002,1.617284e+001
3.066741e+002,1.591342e+001
3.076384e+002,1.507603e+001
3.086026e+002,1.333436e+001
3.095668e+002,1.025029e+001
3.105311e+002,5.099634e+000
3.114953e+002,1.939502e+000
3.124595e+002,1.357861e+000
3.134238e+002,1.983801e+000
3.143880e+002,2.256226e+000
3.153522e+002,1.773596e+000
3.163165e+002,1.343079e+000
3.172807e+002,7.151245e-001
3.182449e+002,5.515015e-001
3.192092e+002,1.632593e+000
3.201734e+002,4.801843e+000
3.211376e+002,8.559863e+000
3.221019e+002,1.216178e+001
3.230661e+002,1.540515e+001
3.240303e+002,1.810256e+001
3.249946e+002,2.005535e+001
3.259588e+002,2.087147e+001
3.269230e+002,2.016222e+001
3.278873e+002,1.785980e+001
3.288515e+002,1.496644e+001
3.298157e+002,1.328685e+001
3.307800e+002,1.419453e+001
3.317442e+002,1.430751e+001
3.327084e+002,1.181611e+001
3.336727e+002,8.803162e+000
3.346369e+002,9.262939e+000
3.356011e+002,1.831617e+001
3.365654e+002,2.499072e+001
3.375296e+002,2.536117e+001
3.384938e+002,2.204426e+001
3.394581e+002,1.940044e+001
3.404223e+002,2.181418e+001
3.413865e+002,2.525201e+001
3.423508e+002,2.555181e+001
3.433150e+002,2.344781e+001
3.442792e+002,2.089915e+001
3.452435e+002,2.085665e+001
3.462077e+002,2.369236e+001
3.471719e+002,2.705647e+001
3.481362e+002,3.013018e+001
3.491004e+002,3.468566e+001
3.500646e+002,4.463430e+001
3.510289e+002,5.886366e+001
3.519931e+002,8.280943e+001
3.529573e+002,1.174997e+002
3.539216e+002,1.613619e+002
3.548858e+002,2.149594e+002
3.558500e+002,3.038262e+002
3.568143e+002,3.648848e+002
3.577785e+002,3.722994e+002
3.587427e+002,3.384291e+002
3.597070e+002,2.844061e+002
3.606712e+002,2.228902e+002
3.616354e+002,1.633990e+002
3.625997e+002,1.156207e+002
3.635639e+002,8.019485e+001
3.645281e+002,5.648164e+001
3.654924e+002,4.341784e+001
3.664566e+002,4.467097e+001
3.674208e+002,4.334710e+001
3.683851e+002,3.840111e+001
3.693493e+002,3.113495e+001
3.703135e+002,2.428612e+001
3.712778e+002,1.698727e+001
3.722420e+002,1.208082e+001
3.732062e+002,9.933850e+000
3.741705e+002,1.009121e+001
3.751347e+002,1.220592e+001
3.760989e+002,1.791714e+001
3.770632e+002,2.285740e+001
3.780274e+002,2.458555e+001
3.789916e+002,2.387766e+001
3.799559e+002,2.212097e+001
3.809201e+002,2.078108e+001
3.818844e+002,1.961151e+001
3.828486e+002,1.746392e+001
3.838128e+002,1.449904e+001
3.847771e+002,1.190610e+001
3.857413e+002,1.149537e+001
3.867055e+002,1.464717e+001
3.876698e+002,1.658119e+001
3.886340e+002,1.473218e+001
3.895982e+002,1.269767e+001
3.905625e+002,1.633191e+001
3.915267e+002,3.244966e+001
3.924909e+002,4.253484e+001
3.934552e+002,4.140127e+001
3.944194e+002,3.448447e+001
3.953836e+002,2.712455e+001
3.963479e+002,2.173315e+001
3.973121e+002,1.877789e+001
3.982763e+002,1.926130e+001
3.992406e+002,2.143561e+001
4.002048e+002,2.268248e+001
4.011690e+002,2.041431e+001
4.021333e+002,1.537379e+001
4.030975e+002,1.366775e+001
4.040617e+002,1.524675e+001
4.050260e+002,1.804038e+001
4.059902e+002,1.984327e+001
4.069544e+002,1.964767e+001
4.079187e+002,2.147548e+001
4.088829e+002,2.771637e+001
4.098471e+002,3.361227e+001
4.108114e+002,3.479911e+001
4.117756e+002,2.891207e+001
4.127398e+002,2.473332e+001
4.137041e+002,2.668469e+001
4.146683e+002,3.063402e+001
4.156325e+002,3.411092e+001
4.165968e+002,3.576945e+001
4.175610e+002,3.585057e+001
4.185252e+002,3.418871e+001
4.194895e+002,3.174644e+001
4.204537e+002,2.936567e+001
4.214179e+002,2.762411e+001
4.223822e+002,2.665425e+001
4.233464e+002,2.948247e+001
4.243106e+002,3.716778e+001
4.252749e+002,4.303278e+001
4.262391e+002,4.179800e+001
4.272033e+002,3.228751e+001
4.281676e+002,3.035144e+001
4.291318e+002,4.213134e+001
4.300960e+002,5.564328e+001
4.310603e+002,6.596626e+001
4.320245e+002,7.279093e+001
4.329887e+002,8.177615e+001
4.339530e+002,9.437611e+001
4.349172e+002,1.137102e+002
4.358814e+002,1.458008e+002
4.368457e+002,1.894230e+002
4.378099e+002,2.380635e+002
4.387741e+002,2.849837e+002
4.397384e+002,3.246502e+002
4.407026e+002,3.369876e+002
4.416668e+002,3.158156e+002
4.426311e+002,2.695569e+002
4.435953e+002,2.261366e+002
4.445595e+002,1.834118e+002
4.455238e+002,1.475178e+002
4.464880e+002,1.197838e+002
4.474522e+002,9.898183e+001
4.484165e+002,8.310642e+001
4.493807e+002,7.457259e+001
4.503449e+002,6.816838e+001
4.513092e+002,6.250761e+001
4.522734e+002,5.755273e+001
4.532376e+002,5.385632e+001
4.542019e+002,5.262504e+001
4.551661e+002,5.142086e+001
4.561303e+002,4.652425e+001
4.570946e+002,3.913893e+001
4.580588e+002,3.174600e+001
4.590230e+002,2.704358e+001
4.599873e+002,2.537567e+001
4.609515e+002,2.395853e+001
4.619157e+002,2.242743e+001
4.628800e+002,2.151887e+001
4.638442e+002,2.209609e+001
4.648084e+002,2.483363e+001
4.657727e+002,2.705311e+001
4.667369e+002,2.860111e+001
4.677011e+002,2.990471e+001
4.686654e+002,3.137552e+001
4.696296e+002,3.313527e+001
4.705938e+002,3.405089e+001
4.715581e+002,3.301066e+001
4.725223e+002,3.102273e+001
4.734865e+002,2.842778e+001
4.744508e+002,2.553041e+001
4.754150e+002,2.263506e+001
4.763792e+002,2.036027e+001
4.773435e+002,1.864340e+001
4.783077e+002,1.772518e+001
4.792719e+002,1.779430e+001
4.802362e+002,1.867848e+001
4.812004e+002,1.930499e+001
4.821646e+002,2.079358e+001
4.831289e+002,2.041215e+001
4.840931e+002,1.562335e+001
4.850573e+002,8.558441e+000
4.860216e+002,5.183167e+000
4.869858e+002,1.118791e+001
4.879500e+002,1.672312e+001
4.889143e+002,1.888834e+001
4.898785e+002,1.838275e+001
4.908427e+002,1.653612e+001
4.918070e+002,1.406016e+001
4.927712e+002,1.140981e+001
4.937354e+002,9.014679e+000
4.946997e+002,7.067596e+000
4.956639e+002,6.089264e+000
4.966281e+002,6.643225e+000
4.975924e+002,8.924536e+000
4.985566e+002,1.001096e+001
4.995208e+002,9.168506e+000
5.004851e+002,8.466846e+000
5.014493e+002,9.864636e+000
5.024135e+002,1.419597e+001
5.033778e+002,1.659134e+001
5.043420e+002,1.487249e+001
5.053063e+002,1.318667e+001
5.062705e+002,1.414078e+001
5.072347e+002,1.786840e+001
5.081990e+002,2.063575e+001
5.091632e+002,1.683362e+001
5.101274e+002,1.176014e+001
5.110917e+002,8.438952e+000
5.120559e+002,7.534173e+000
5.130201e+002,8.034277e+000
5.139844e+002,8.068555e+000
5.149486e+002,7.617157e+000
5.159128e+002,7.291913e+000
5.168771e+002,7.252673e+000
5.178413e+002,7.325012e+000
5.188055e+002,7.066864e+000
5.197698e+002,5.989795e+000
5.207340e+002,5.326856e+000
5.216982e+002,5.793091e+000
5.226625e+002,6.299963e+000
5.236267e+002,5.271521e+000
5.245909e+002,1.386182e+000
5.255552e+002,-1.483331e+000
5.265194e+002,-8.730713e-001
5.274836e+002,1.106616e+000
5.284479e+002,2.860712e+000
5.294121e+002,3.481805e+000
5.303763e+002,3.248401e+000
5.313406e+002,1.894000e+000
5.323048e+002,8.756103e-002
5.332690e+002,-4.328674e-001
5.342333e+002,1.257611e+000
5.351975e+002,4.787585e+000
5.361617e+002,7.075653e+000
5.371260e+002,7.315595e+000
5.380902e+002,7.707520e+000
5.390544e+002,8.992243e+000
5.400187e+002,1.067230e+001
5.409829e+002,1.119167e+001
5.419471e+002,9.270093e+000
5.429114e+002,7.400409e+000
5.438756e+002,6.281030e+000
5.448398e+002,5.610309e+000
5.458041e+002,4.842731e+000
5.467683e+002,3.563922e+000
5.477325e+002,2.182263e+000
5.486968e+002,1.205151e+000
5.496610e+002,5.410522e-001
5.506252e+002,5.944214e-002
5.515895e+002,-3.465210e-001
5.525537e+002,-6.875550e-001
5.535179e+002,-1.171887e+000
5.544822e+002,-2.067841e+000
5.554464e+002,-2.349408e+000
5.564106e+002,-1.038025e+000
5.573749e+002,1.853925e+000
5.583391e+002,3.426727e+000
5.593033e+002,2.487616e+000
5.602676e+002,1.180060e+000
5.612318e+002,-6.073608e-001
5.621960e+002,-2.386633e+000
5.631603e+002,-2.971478e+000
5.641245e+002,-3.373840e-001
5.650887e+002,2.463489e+000
5.660530e+002,2.410089e+000
5.670172e+002,3.727051e-001
5.679814e+002,-1.465521e+000
5.689457e+002,-7.244141e-001
5.699099e+002,2.398914e+000
5.708741e+002,4.354730e+000
5.718384e+002,5.295697e+000
5.728026e+002,5.278729e+000
5.737668e+002,3.867560e+000
5.747311e+002,4.456238e-001
5.756953e+002,-1.313306e+000
5.766595e+002,-2.170044e-001
5.776238e+002,1.040259e+000
5.785880e+002,1.527167e+000
5.795522e+002,1.176654e+000
5.805165e+002,5.303894e-001
5.814807e+002,-3.211243e-001
5.824449e+002,-1.088171e+000
5.834092e+002,-1.741711e+000
5.843734e+002,-2.222711e+000
5.853376e+002,-2.387103e+000
5.863019e+002,-1.981885e+000
5.872661e+002,-1.169952e+000
5.882303e+002,-8.755981e-001
5.891946e+002,-1.091321e+000
5.901588e+002,-1.544061e+000
5.911230e+002,-2.002771e+000
5.920873e+002,-2.536823e+000
5.930515e+002,-2.862469e+000
5.940157e+002,-2.909503e+000
5.949800e+002,-2.849139e+000
5.959442e+002,-2.881702e+000
5.969084e+002,-2.999872e+000
5.978727e+002,-2.741956e+000
5.988369e+002,-9.199402e-001
5.998011e+002,5.976745e-001
6.007654e+002,7.164490e-001
6.017296e+002,-2.929993e-001
6.026938e+002,-1.420612e+000
6.036581e+002,-1.579486e+000
6.046223e+002,-9.497315e-001
6.055865e+002,-4.439087e-002
6.065508e+002,1.091583e+000
6.075150e+002,1.754553e+000
6.084792e+002,1.066003e+000
6.094435e+002,-1.473828e+000
6.104077e+002,-2.634680e+000
6.113719e+002,-1.951575e+000
6.123362e+002,-9.488342e-001
6.133004e+002,-2.809204e-001
6.142646e+002,1.172485e-002
6.152289e+002,9.616089e-002
6.161931e+002,-9.310303e-002
6.171573e+002,-4.190613e-001
6.181216e+002,-9.698486e-001
6.190858e+002,-1.559473e+000
6.200500e+002,-1.805951e+000
6.210143e+002,-1.236768e+000
6.219785e+002,-3.749817e-001
6.229427e+002,-4.103821e-001
6.239070e+002,-1.164356e+000
6.248712e+002,-1.806329e+000
6.258354e+002,-1.497186e+000
6.267997e+002,-7.171631e-002
6.277639e+002,1.443958e+000
6.287281e+002,3.620709e+000
6.296924e+002,5.061694e+000
6.306566e+002,4.744391e+000
6.316208e+002,2.853668e+000
6.325851e+002,1.473474e+000
6.335493e+002,1.547241e+000
6.345135e+002,2.101404e+000
6.354778e+002,3.172241e+000
6.364420e+002,4.451166e+000
6.374063e+002,5.609949e+000
6.383705e+002,6.556323e+000
6.393347e+002,6.795728e+000
6.402990e+002,5.217981e+000
6.412632e+002,2.599225e+000
6.422274e+002,8.522339e-001
6.431917e+002,1.440741e+000
6.441559e+002,4.187775e+000
6.451201e+002,4.940521e+000
6.460844e+002,2.705951e+000
6.470486e+002,8.141419e-001
6.480128e+002,7.017395e-001
6.489771e+002,1.860596e+000
6.499413e+002,2.015778e+000
6.509055e+002,-5.476868e-001
6.518698e+002,-2.468005e+000
6.528340e+002,-2.641113e+000
6.537982e+002,-1.752356e+000
6.547625e+002,-6.781738e-001
6.557267e+002,9.723511e-002
6.566909e+002,6.737854e-001
6.576552e+002,1.288641e+000
6.586194e+002,1.815033e+000
6.595836e+002,1.983844e+000
6.605479e+002,1.704327e+000
6.615121e+002,1.213788e+000
6.624763e+002,1.396399e+000
6.634406e+002,2.643231e+000
6.644048e+002,3.496845e+000
6.653690e+002,3.590375e+000
6.663333e+002,3.113190e+000
6.672975e+002,2.458746e+000
6.682617e+002,1.605749e+000
6.692260e+002,9.478089e-001
6.701902e+002,3.571228e-001
6.711544e+002,7.979126e-002
6.721187e+002,5.103638e-001
6.730829e+002,1.694269e+000
6.740471e+002,2.810138e+000
6.750114e+002,2.387769e+000
6.759756e+002,1.496204e+000
6.769398e+002,1.189569e+000
6.779041e+002,1.680493e+000
6.788683e+002,2.618909e+000
6.798325e+002,3.396362e+000
6.807968e+002,4.022461e+000
6.817610e+002,4.265479e+000
6.827252e+002,3.894342e+000
6.836895e+002,3.359686e+000
6.846537e+002,3.097058e+000
6.856179e+002,3.180566e+000
6.865822e+002,2.959937e+000
6.875464e+002,2.216290e+000
6.885106e+002,1.261169e+000
6.894749e+002,-1.814209e-001
6.904391e+002,-1.787427e+000
6.914034e+002,-2.716504e+000
6.923676e+002,-2.047058e+000
6.933318e+002,-2.931885e-001
6.942961e+002,2.267529e+000
6.952603e+002,5.165222e+000
6.962245e+002,6.951861e+000
6.971888e+002,6.232916e+000
6.981530e+002,2.918158e+000
6.991172e+002,1.225476e+000
7.000815e+002,1.413324e+000
7.010457e+002,2.077209e+000
7.020099e+002,3.156696e+000
7.029742e+002,4.495532e+000
7.039384e+002,5.136054e+000
7.049026e+002,3.971790e+000
7.058669e+002,3.237622e+000
7.068311e+002,4.071112e+000
7.077953e+002,5.416870e+000
7.087596e+002,5.820258e+000
7.097238e+002,4.484064e+000
7.106880e+002,2.796448e+000
7.116523e+002,3.080426e+000
7.126165e+002,4.340302e+000
7.135807e+002,5.345398e+000
7.145450e+002,5.641742e+000
7.155092e+002,5.450793e+000
7.164734e+002,5.300018e+000
7.174377e+002,5.194745e+000
7.184019e+002,5.114172e+000
7.193661e+002,5.286523e+000
7.203304e+002,5.259992e+000
7.212946e+002,4.403729e+000
7.222589e+002,2.436182e+000
7.232231e+002,9.636596e-001
7.241873e+002,7.523071e-001
7.251516e+002,8.881531e-001
7.261158e+002,8.510925e-001
7.270800e+002,6.075012e-001
7.280443e+002,5.096496e-001
7.290085e+002,9.759461e-001
7.299727e+002,1.905750e+000
7.309370e+002,3.169891e+000
7.319012e+002,4.651324e+000
7.328654e+002,5.737219e+000
7.338297e+002,5.861359e+000
7.347939e+002,4.986786e+000
7.357581e+002,3.662884e+000
7.367224e+002,9.236878e-001
7.376866e+002,-1.002228e+000
7.386508e+002,-1.204114e+000
7.396151e+002,-1.498779e-001
7.405793e+002,9.493225e-001
7.415435e+002,2.131879e+000
7.425078e+002,2.709479e+000
7.434720e+002,1.917248e+000
7.444362e+002,6.530640e-001
7.454005e+002,-2.981811e-001
7.463647e+002,-5.226685e-001
7.473289e+002,2.512817e-002
7.482932e+002,2.416815e+000
7.492574e+002,5.648230e+000
7.502216e+002,6.667413e+000
7.511859e+002,4.585626e+000
7.521501e+002,1.038019e+000
7.531143e+002,-9.594544e-001
7.540786e+002,-5.473388e-001
7.550428e+002,-3.996460e-001
7.560070e+002,-9.164551e-001
7.569713e+002,-1.285516e+000
7.579355e+002,-7.109436e-001
7.588997e+002,7.115601e-001
7.598640e+002,1.444263e+000
7.608282e+002,-6.846924e-001
7.617924e+002,-2.295697e+000
7.627567e+002,-1.149408e+000
7.637209e+002,1.854517e+000
7.646851e+002,4.605731e+000
7.656494e+002,5.357715e+000
7.666136e+002,5.083081e+000
7.675778e+002,8.662158e+000
7.685421e+002,1.547538e+001
7.695063e+002,2.034354e+001
7.704705e+002,2.076412e+001
7.714348e+002,1.756952e+001
7.723990e+002,1.397095e+001
7.733632e+002,8.986499e+000
7.743275e+002,5.149017e+000
7.752917e+002,2.903424e+000
7.762559e+002,1.635791e+000
7.772202e+002,8.957580e-001
7.781844e+002,5.562012e-001
7.791486e+002,5.230103e-001
7.801129e+002,1.322455e+000
7.810771e+002,1.988721e+000
7.820413e+002,1.605951e+000
7.830056e+002,3.297912e-001
7.839698e+002,-9.555969e-001
7.849340e+002,-1.234387e+000
7.858983e+002,-5.547302e-001
7.868625e+002,-5.982910e-001
7.878267e+002,-1.786279e+000
7.887910e+002,-2.315723e+000
7.897552e+002,-4.905701e-001
7.907194e+002,3.261255e+000
7.916837e+002,5.236389e+000
7.926479e+002,3.377795e+000
7.936121e+002,1.844232e+000
7.945764e+002,1.753540e+000
7.955406e+002,2.198468e+000
7.965048e+002,2.041486e+000
7.974691e+002,8.698425e-001
7.984333e+002,-3.466675e-001
7.993975e+002,-3.370239e-001
8.003618e+002,2.720398e-001
8.013260e+002,9.812256e-001
8.022902e+002,1.671216e+000
8.032545e+002,2.439838e+000
8.042187e+002,3.462085e+000
8.051829e+002,4.836841e+000
8.061472e+002,6.025824e+000
8.071114e+002,7.113910e+000
8.080756e+002,7.901959e+000
8.090399e+002,8.101563e+000
8.100041e+002,7.854846e+000
8.109683e+002,8.032819e+000
8.119326e+002,9.346375e+000
8.128968e+002,1.042767e+001
8.138610e+002,1.051410e+001
8.148253e+002,1.020513e+001
8.157895e+002,1.016509e+001
8.167537e+002,1.074286e+001
8.177180e+002,1.187187e+001
8.186822e+002,1.391998e+001
8.196464e+002,1.640985e+001
8.206107e+002,1.802798e+001
8.215749e+002,1.837842e+001
8.225391e+002,1.838486e+001
8.235034e+002,1.971502e+001
8.244676e+002,2.337252e+001
8.254318e+002,2.500920e+001
8.263961e+002,2.420825e+001
8.273603e+002,2.270585e+001
8.283245e+002,2.084453e+001
8.292888e+002,1.883549e+001
8.302530e+002,1.724321e+001
8.312172e+002,1.646608e+001
8.321815e+002,1.599868e+001
8.331457e+002,1.578396e+001
8.341099e+002,1.556353e+001
8.350742e+002,1.477160e+001
8.360384e+002,1.321890e+001
8.370026e+002,1.156239e+001
8.379669e+002,1.152460e+001
8.389311e+002,1.317228e+001
8.398953e+002,1.405344e+001
8.408596e+002,1.418530e+001
8.418238e+002,1.315264e+001
8.427880e+002,9.722699e+000
8.437523e+002,2.916467e+000
8.447165e+002,-1.093433e+000
8.456807e+002,6.539062e-001
8.466450e+002,2.786102e+000
8.476092e+002,3.547339e+000
8.485734e+002,3.188446e+000
8.495377e+002,2.778339e+000
8.505019e+002,2.966400e+000
8.514661e+002,3.294672e+000
8.524304e+002,2.979431e+000
8.533946e+002,2.399414e+000
8.543588e+002,2.167279e+000
8.553231e+002,2.509271e+000
8.562873e+002,3.197107e+000
8.572515e+002,3.748743e+000
8.582158e+002,4.259295e+000
8.591800e+002,4.144855e+000
8.601442e+002,2.359314e+000
8.611085e+002,9.452209e-001
8.620727e+002,1.878174e+000
8.630369e+002,4.951001e+000
8.640012e+002,6.819342e+000
8.649654e+002,5.432977e+000
8.659296e+002,3.567456e+000
8.668939e+002,1.872980e+000
8.678581e+002,7.085144e-001
8.688223e+002,6.602112e-001
8.697866e+002,1.936407e+000
8.707508e+002,3.647729e+000
8.717150e+002,3.796704e+000
8.726793e+002,2.713245e+000
8.736435e+002,1.941089e+000
8.746077e+002,1.737659e+000
8.755720e+002,1.886768e+000
8.765362e+002,2.333813e+000
8.775004e+002,3.415820e+000
8.784647e+002,3.268976e+000
8.794289e+002,2.448608e-001
8.803931e+002,-2.092938e+000
8.813574e+002,-2.049206e+000
8.823216e+002,-6.051270e-001
8.832858e+002,1.028564e-001
8.842501e+002,-1.005298e+000
8.852143e+002,-2.420825e+000
8.861785e+002,-2.548309e+000
8.871428e+002,-2.161548e+000
8.881070e+002,-2.168896e+000
8.890712e+002,-2.787927e+000
8.900355e+002,-3.553851e+000
8.909997e+002,-3.712872e+000
8.919639e+002,-3.147846e+000
8.929282e+002,-2.570483e+000
8.938924e+002,-2.003680e+000
8.948566e+002,-1.407568e+000
8.958209e+002,-4.729492e-001
8.967851e+002,5.824280e-001
8.977493e+002,7.378906e-001
8.987136e+002,-7.802002e-001
8.996778e+002,-2.426300e+000
9.006420e+002,-3.701599e+000
9.016063e+002,-4.709357e+000
9.025705e+002,-5.642847e+000
9.035347e+002,-6.483331e+000
9.044990e+002,-6.855188e+000
9.054632e+002,-6.073511e+000
9.064274e+002,-4.608783e+000
9.073917e+002,-4.274475e+000
9.083559e+002,-5.101080e+000
9.093201e+002,-6.161255e+000
9.102844e+002,-6.909228e+000
9.112486e+002,-7.332434e+000
9.122128e+002,-7.064545e+000
9.131771e+002,-5.703803e+000
9.141413e+002,-4.058038e+000
9.151055e+002,-1.184149e+000
9.160698e+002,1.328333e+000
9.170340e+002,1.497400e+000
9.179982e+002,-1.031763e+000
9.189625e+002,-3.740405e+000
9.199267e+002,-4.640723e+000
9.208909e+002,-4.525317e+000
9.218552e+002,-3.531415e+000
9.228194e+002,-2.155115e+000
9.237836e+002,-1.774762e+000
9.247479e+002,-3.507849e+000
9.257121e+002,-6.729718e+000
9.266763e+002,-7.671759e+000
9.276406e+002,-5.050745e+000
9.286048e+002,-3.002856e+000
9.295690e+002,-1.918500e+000
9.305333e+002,-1.555347e+000
9.314975e+002,-1.867426e+000
9.324617e+002,-2.944110e+000
9.334260e+002,-3.744745e+000
9.343902e+002,-3.549396e+000
9.353545e+002,-3.208832e+000
9.363187e+002,-2.884192e+000
9.372830e+002,-2.729443e+000
9.382472e+002,-3.048450e+000
9.392114e+002,-3.986420e+000
9.401757e+002,-5.002435e+000
9.411399e+002,-4.724335e+000
9.421041e+002,-3.383661e+000
9.430684e+002,-2.135101e+000
9.440326e+002,-1.116150e+000
9.449968e+002,-4.913391e-001
9.459611e+002,-6.305603e-001
9.469253e+002,-1.701892e+000
9.478895e+002,-1.978113e+000
9.488538e+002,-2.662537e-001
9.498180e+002,9.590332e-001
9.507822e+002,7.924865e-001
9.517465e+002,-2.432678e-001
9.527107e+002,-1.563641e+000
9.536749e+002,-2.946228e+000
9.546392e+002,-3.649982e+000
9.556034e+002,-2.016449e+000
9.565676e+002,4.919739e-001
9.575319e+002,2.185535e+000
9.584961e+002,2.867267e+000
9.594603e+002,2.929394e+000
9.604246e+002,2.689831e+000
9.613888e+002,2.113568e+000
9.623530e+002,1.941296e+000
9.633173e+002,2.077734e+000
9.642815e+002,2.712213e+000
9.652457e+002,3.709625e+000
9.662100e+002,5.420026e+000
9.671742e+002,8.272467e+000
9.681384e+002,1.233711e+001
9.691027e+002,1.699791e+001
9.700669e+002,1.654828e+001
9.710311e+002,2.149574e+001
9.719954e+002,4.406023e+001
9.729596e+002,7.791632e+001
9.739238e+002,1.103082e+002
9.748881e+002,1.321629e+002
9.758523e+002,1.414729e+002
9.768165e+002,1.284910e+002
9.777808e+002,8.729115e+001
9.787450e+002,5.547861e+001
9.797092e+002,3.973973e+001
9.806735e+002,3.223294e+001
9.816377e+002,2.653834e+001
9.826019e+002,2.269448e+001
9.835662e+002,1.982861e+001
9.845304e+002,1.830828e+001
9.854946e+002,1.722122e+001
9.864589e+002,1.603161e+001
9.874231e+002,1.520281e+001
9.883873e+002,1.539914e+001
9.893516e+002,1.677099e+001
9.903158e+002,1.871338e+001
9.912800e+002,2.057800e+001
9.922443e+002,2.244433e+001
9.932085e+002,2.396474e+001
9.941727e+002,2.501249e+001
9.951370e+002,2.722157e+001
9.961012e+002,3.099597e+001
9.970654e+002,3.650849e+001
9.980297e+002,4.508087e+001
9.989939e+002,4.425605e+001
9.999581e+002,7.055070e+001
1.000922e+003,1.329671e+002
1.001887e+003,2.164960e+002
1.002851e+003,3.395097e+002
1.003815e+003,4.813681e+002
1.004779e+003,5.627189e+002
1.005744e+003,5.145627e+002
1.006708e+003,3.979574e+002
1.007672e+003,2.975396e+002
1.008636e+003,2.130718e+002
1.009600e+003,1.493270e+002
1.010565e+003,1.086981e+002
1.011529e+003,8.483677e+001
1.012493e+003,6.617223e+001
1.013457e+003,5.365748e+001
1.014422e+003,4.455773e+001
1.015386e+003,3.987507e+001
1.016350e+003,3.645374e+001
1.017314e+003,3.357618e+001
1.018279e+003,3.086128e+001
1.019243e+003,2.763270e+001
1.020207e+003,2.345890e+001
1.021171e+003,1.991903e+001
1.022135e+003,1.900988e+001
1.023100e+003,1.897616e+001
1.024064e+003,1.824597e+001
1.025028e+003,1.676359e+001
1.025992e+003,1.545766e+001
1.026957e+003,1.519658e+001
1.027921e+003,1.585522e+001
1.028885e+003,1.633655e+001
1.029849e+003,1.669175e+001
1.030814e+003,1.675445e+001
1.031778e+003,1.613853e+001
1.032742e+003,1.531451e+001
1.033706e+003,1.477915e+001
1.034671e+003,1.462026e+001
1.035635e+003,1.467081e+001
1.036599e+003,1.517983e+001
1.037563e+003,1.546152e+001
1.038527e+003,1.468609e+001
1.039492e+003,1.364519e+001
1.040456e+003,1.360585e+001
1.041420e+003,1.488503e+001
1.042384e+003,1.633444e+001
1.043349e+003,1.615514e+001
1.044313e+003,1.438596e+001
1.045277e+003,1.402097e+001
1.046241e+003,1.552438e+001
1.047206e+003,1.684504e+001
1.048170e+003,1.664849e+001
1.049134e+003,1.565892e+001
1.050098e+003,1.583249e+001
1.051063e+003,1.789388e+001
1.052027e+003,1.944907e+001
1.052991e+003,1.944585e+001
1.053955e+003,1.884701e+001
1.054919e+003,1.794258e+001
1.055884e+003,1.691168e+001
1.056848e+003,1.580211e+001
1.057812e+003,1.468323e+001
1.058776e+003,1.402997e+001
1.059741e+003,1.514474e+001
1.060705e+003,1.762976e+001
1.061669e+003,1.870508e+001
1.062633e+003,1.770201e+001
1.063598e+003,1.606898e+001
1.064562e+003,1.508940e+001
1.065526e+003,1.478428e+001
1.066490e+003,1.458531e+001
1.067454e+003,1.435806e+001
1.068419e+003,1.439160e+001
1.069383e+003,1.457897e+001
1.070347e+003,1.501025e+001
1.071311e+003,1.596510e+001
1.072276e+003,1.734667e+001
1.073240e+003,1.868044e+001
1.074204e+003,1.960950e+001
1.075168e+003,2.025591e+001
1.076133e+003,2.097949e+001
1.077097e+003,2.169719e+001
1.078061e+003,2.191013e+001
1.079025e+003,2.132004e+001
1.079990e+003,2.059929e+001
1.080954e+003,2.092632e+001
1.081918e+003,2.259089e+001
1.082882e+003,2.330789e+001
1.083846e+003,2.158971e+001
1.084811e+003,2.048732e+001
1.085775e+003,2.106847e+001
1.086739e+003,2.226060e+001
1.087703e+003,2.300852e+001
1.088668e+003,2.309458e+001
1.089632e+003,2.298033e+001
1.090596e+003,2.308907e+001
1.091560e+003,2.299364e+001
1.092525e+003,2.142996e+001
1.093489e+003,1.890154e+001
1.094453e+003,1.777174e+001
1.095417e+003,1.931312e+001
1.096381e+003,2.218570e+001
1.097346e+003,2.360324e+001
1.098310e+003,2.299793e+001
1.099274e+003,2.294896e+001
1.100238e+003,2.409270e+001
1.101203e+003,2.508160e+001
1.102167e+003,2.561860e+001
1.103131e+003,2.566317e+001
1.104095e+003,2.497303e+001
1.105060e+003,2.353814e+001
1.106024e+003,2.226053e+001
1.106988e+003,2.199121e+001
1.107952e+003,2.250530e+001
1.108917e+003,2.341556e+001
1.109881e+003,2.458903e+001
1.110845e+003,2.562056e+001
1.111809e+003,2.626455e+001
1.112773e+003,2.662520e+001
1.113738e+003,2.698519e+001
1.114702e+003,2.739610e+001
1.115666e+003,2.794060e+001
1.116630e+003,2.905346e+001
1.117595e+003,2.962477e+001
1.118559e+003,2.892563e+001
1.119523e+003,2.760699e+001
1.120487e+003,2.648409e+001
1.121452e+003,2.582829e+001
1.122416e+003,2.590045e+001
1.123380e+003,2.733463e+001
1.124344e+003,2.919279e+001
1.125308e+003,3.030308e+001
1.126273e+003,3.077758e+001
1.127237e+003,3.100722e+001
1.128201e+003,3.117237e+001
1.129165e+003,3.134604e+001
1.130130e+003,3.180887e+001
1.131094e+003,3.299168e+001
1.132058e+003,3.279345e+001
1.133022e+003,2.979962e+001
1.133987e+003,2.748178e+001
1.134951e+003,2.740408e+001
1.135915e+003,2.856533e+001
1.136879e+003,2.938708e+001
1.137844e+003,2.946987e+001
1.138808e+003,2.974797e+001
1.139772e+003,3.113284e+001
1.140736e+003,3.278418e+001
1.141700e+003,3.377601e+001
1.142665e+003,3.421360e+001
1.143629e+003,3.427341e+001
1.144593e+003,3.402594e+001
1.145557e+003,3.382808e+001
1.146522e+003,3.437879e+001
1.147486e+003,3.586574e+001
1.148450e+003,3.675724e+001
1.149414e+003,3.665910e+001
1.150379e+003,3.677365e+001
1.151343e+003,3.775759e+001
1.152307e+003,3.894520e+001
1.153271e+003,3.934899e+001
1.154235e+003,3.878399e+001
1.155200e+003,3.810938e+001
1.156164e+003,3.797318e+001
1.157128e+003,3.827763e+001
1.158092e+003,3.897550e+001
1.159057e+003,3.982254e+001
1.160021e+003,4.000042e+001
1.160985e+003,3.914923e+001
1.161949e+003,3.830120e+001
1.162914e+003,3.920203e+001
1.163878e+003,4.217220e+001
1.164842e+003,4.426522e+001
1.165806e+003,4.472219e+001
1.166771e+003,4.510679e+001
1.167735e+003,4.582441e+001
1.168699e+003,4.639614e+001
1.169663e+003,4.626080e+001
1.170627e+003,4.548310e+001
1.171592e+003,4.465981e+001
1.172556e+003,4.412325e+001
1.173520e+003,4.387310e+001
1.174484e+003,4.404229e+001
1.175449e+003,4.439260e+001
1.176413e+003,4.422918e+001
1.177377e+003,4.338086e+001
1.178341e+003,4.316459e+001
1.179306e+003,4.535352e+001
1.180270e+003,4.964901e+001
1.181234e+003,5.186116e+001
1.182198e+003,5.025254e+001
1.183162e+003,4.940541e+001
1.184127e+003,5.022260e+001
1.185091e+003,5.134993e+001
1.186055e+003,5.234379e+001
1.187019e+003,5.301281e+001
1.187984e+003,5.296842e+001
1.188948e+003,5.197421e+001
1.189912e+003,5.067079e+001
1.190876e+003,4.974804e+001
1.191841e+003,4.927851e+001
1.192805e+003,4.942334e+001
1.193769e+003,5.020221e+001
1.194733e+003,5.116139e+001
1.195698e+003,5.210125e+001
1.196662e+003,5.291780e+001
1.197626e+003,5.331677e+001
1.198590e+003,5.313331e+001
1.199554e+003,5.305463e+001
1.200519e+003,5.373660e+001
1.201483e+003,5.404152e+001
1.202447e+003,5.292826e+001
1.203411e+003,5.155831e+001
1.204376e+003,5.155207e+001
1.205340e+003,5.304882e+001
1.206304e+003,5.453363e+001
1.207268e+003,5.474384e+001
1.208233e+003,5.425729e+001
1.209197e+003,5.437864e+001
1.210161e+003,5.494004e+001
1.211125e+003,5.529252e+001
1.212089e+003,5.510001e+001
1.213054e+003,5.466109e+001
1.214018e+003,5.409487e+001
1.214982e+003,5.361647e+001
1.215946e+003,5.478889e+001
1.216911e+003,5.917019e+001
1.217875e+003,6.231610e+001
1.218839e+003,6.262385e+001
1.219803e+003,6.160699e+001
1.220768e+003,5.969557e+001
1.221732e+003,5.771180e+001
1.222696e+003,5.704364e+001
1.223660e+003,5.837336e+001
1.224625e+003,6.038157e+001
1.225589e+003,6.054962e+001
1.226553e+003,5.879109e+001
1.227517e+003,5.897396e+001
1.228481e+003,6.199967e+001
1.229446e+003,6.478862e+001
1.230410e+003,6.617381e+001
1.231374e+003,6.635130e+001
1.232338e+003,6.514872e+001
1.233303e+003,6.247623e+001
1.234267e+003,6.117907e+001
1.235231e+003,6.328864e+001
1.236195e+003,6.558704e+001
1.237160e+003,6.632507e+001
1.238124e+003,6.609219e+001
1.239088e+003,6.567007e+001
1.240052e+003,6.527856e+001
1.241016e+003,6.452047e+001
1.241981e+003,6.295084e+001
1.242945e+003,6.105548e+001
1.243909e+003,6.119590e+001
1.244873e+003,6.500536e+001
1.245838e+003,6.698228e+001
1.246802e+003,6.538623e+001
1.247766e+003,6.379380e+001
1.248730e+003,6.448800e+001
1.249695e+003,6.658534e+001
1.250659e+003,6.802938e+001
1.251623e+003,6.832558e+001
1.252587e+003,6.844305e+001
1.253552e+003,6.905177e+001
1.254516e+003,6.967470e+001
1.255480e+003,6.976466e+001
1.256444e+003,6.952970e+001
1.257408e+003,6.952390e+001
1.258373e+003,6.996935e+001
1.259337e+003,7.048605e+001
1.260301e+003,7.043077e+001
1.261265e+003,6.983620e+001
1.262230e+003,7.061314e+001
1.263194e+003,7.484853e+001
1.264158e+003,7.704600e+001
1.265122e+003,7.549271e+001
1.266087e+003,7.325828e+001
1.267051e+003,7.227565e+001
1.268015e+003,7.243376e+001
1.268979e+003,7.284480e+001
1.269943e+003,7.313628e+001
1.270908e+003,7.332018e+001
1.271872e+003,7.318358e+001
1.272836e+003,7.312056e+001
1.273800e+003,7.421223e+001
1.274765e+003,7.636702e+001
1.275729e+003,7.816927e+001
1.276693e+003,7.888271e+001
1.277657e+003,7.905093e+001
1.278622e+003,7.950447e+001
1.279586e+003,8.022292e+001
1.280550e+003,8.059158e+001
1.281514e+003,8.041463e+001
1.282479e+003,8.051726e+001
1.283443e+003,8.167643e+001
1.284407e+003,8.255707e+001
1.285371e+003,8.158022e+001
1.286335e+003,7.933649e+001
1.287300e+003,7.763501e+001
1.288264e+003,7.750809e+001
1.289228e+003,7.854816e+001
1.290192e+003,8.016418e+001
1.291157e+003,8.228642e+001
1.292121e+003,8.365990e+001
1.293085e+003,8.393636e+001
1.294049e+003,8.414751e+001
1.295014e+003,8.495250e+001
1.295978e+003,8.587410e+001
1.296942e+003,8.617240e+001
1.297906e+003,8.594704e+001
1.298870e+003,8.613893e+001
1.299835e+003,8.708495e+001
1.300799e+003,8.793313e+001
1.301763e+003,8.766435e+001
1.302727e+003,8.736482e+001
1.303692e+003,8.866445e+001
1.304656e+003,9.113840e+001
1.305620e+003,9.273784e+001
1.306584e+003,9.223470e+001
1.307549e+003,9.065163e+001
1.308513e+003,9.004073e+001
1.309477e+003,9.054545e+001
1.310441e+003,9.037854e+001
1.311406e+003,8.875116e+001
1.312370e+003,8.778396e+001
1.313334e+003,8.832048e+001
1.314298e+003,8.919298e+001
1.315263e+003,8.945337e+001
1.316227e+003,8.915459e+001
1.317191e+003,8.861454e+001
1.318155e+003,8.787478e+001
1.319120e+003,8.779430e+001
1.320084e+003,8.989437e+001
1.321048e+003,9.296488e+001
1.322012e+003,9.424146e+001
1.322976e+003,9.379348e+001
1.323941e+003,9.333665e+001
1.324905e+003,9.358209e+001
1.325869e+003,9.452572e+001
1.326833e+003,9.653198e+001
1.327798e+003,9.953853e+001
1.328762e+003,1.009294e+002
1.329726e+003,9.935770e+001
1.330690e+003,9.815659e+001
1.331655e+003,9.857245e+001
1.332619e+003,9.935008e+001
1.333583e+003,9.992078e+001
1.334547e+003,1.000919e+002
1.335511e+003,9.948396e+001
1.336476e+003,9.810030e+001
1.337440e+003,9.702838e+001
1.338404e+003,9.777086e+001
1.339368e+003,9.998059e+001
1.340333e+003,1.000824e+002
1.341297e+003,9.669426e+001
1.342261e+003,9.526456e+001
1.343225e+003,9.825960e+001
1.344190e+003,1.014984e+002
1.345154e+003,1.015642e+002
1.346118e+003,9.980890e+001
1.347082e+003,9.992519e+001
1.348047e+003,1.028095e+002
1.349011e+003,1.050828e+002
1.349975e+003,1.041936e+002
1.350939e+003,1.024684e+002
1.351903e+003,1.026744e+002
1.352868e+003,1.039044e+002
1.353832e+003,1.040265e+002
1.354796e+003,1.025584e+002
1.355760e+003,1.013790e+002
1.356725e+003,1.024395e+002
1.357689e+003,1.051576e+002
1.358653e+003,1.069268e+002
1.359617e+003,1.077304e+002
1.360582e+003,1.075818e+002
1.361546e+003,1.044794e+002
1.362510e+003,1.028050e+002
1.363474e+003,1.054376e+002
1.364438e+003,1.094757e+002
1.365403e+003,1.116770e+002
1.366367e+003,1.116676e+002
1.367331e+003,1.109855e+002
1.368295e+003,1.106464e+002
1.369260e+003,1.106336e+002
1.370224e+003,1.110126e+002
1.371188e+003,1.119574e+002
1.372152e+003,1.130958e+002
1.373117e+003,1.145983e+002
1.374081e+003,1.151825e+002
1.375045e+003,1.135051e+002
1.376009e+003,1.114631e+002
1.376974e+003,1.112119e+002
1.377938e+003,1.126819e+002
1.378902e+003,1.149408e+002
1.379866e+003,1.181563e+002
1.380830e+003,1.202990e+002
1.381795e+003,1.190082e+002
1.382759e+003,1.167052e+002
1.383723e+003,1.153798e+002
1.384687e+003,1.150330e+002
1.385652e+003,1.151917e+002
1.386616e+003,1.156426e+002
1.387580e+003,1.161749e+002
1.388544e+003,1.165157e+002
1.389509e+003,1.166136e+002
1.390473e+003,1.165293e+002
1.391437e+003,1.159729e+002
1.392401e+003,1.163151e+002
1.393365e+003,1.181880e+002
1.394330e+003,1.200498e+002
1.395294e+003,1.214823e+002
1.396258e+003,1.222774e+002
1.397222e+003,1.219369e+002
1.398187e+003,1.209701e+002
1.399151e+003,1.213162e+002
1.400115e+003,1.242607e+002
1.401079e+003,1.274198e+002
1.402044e+003,1.259927e+002
1.403008e+003,1.199531e+002
1.403972e+003,1.175065e+002
1.404936e+003,1.202106e+002
1.405901e+003,1.227282e+002
1.406865e+003,1.227688e+002
1.407829e+003,1.222108e+002
1.408793e+003,1.230730e+002
1.409757e+003,1.252169e+002
1.410722e+003,1.276415e+002
1.411686e+003,1.302068e+002
1.412650e+003,1.315006e+002
1.413614e+003,1.296339e+002
1.414579e+003,1.271251e+002
1.415543e+003,1.265634e+002
1.416507e+003,1.276855e+002
1.417471e+003,1.298239e+002
1.418436e+003,1.326741e+002
1.419400e+003,1.350467e+002
1.420364e+003,1.357082e+002
1.421328e+003,1.352023e+002
1.422292e+003,1.355086e+002
1.423257e+003,1.369177e+002
1.424221e+003,1.375334e+002
1.425185e+003,1.355995e+002
1.426149e+003,1.344521e+002
1.427114e+003,1.361266e+002
1.428078e+003,1.386452e+002
1.429042e+003,1.399414e+002
1.430006e+003,1.399659e+002
1.430971e+003,1.397758e+002
1.431935e+003,1.399628e+002
1.432899e+003,1.401802e+002
1.433863e+003,1.399302e+002
1.434828e+003,1.393640e+002
1.435792e+003,1.392462e+002
1.436756e+003,1.392933e+002
1.437720e+003,1.396633e+002
1.438684e+003,1.411607e+002
1.439649e+003,1.424897e+002
1.440613e+003,1.429371e+002
1.441577e+003,1.427269e+002
1.442541e+003,1.416178e+002
1.443506e+003,1.397865e+002
1.444470e+003,1.396096e+002
1.445434e+003,1.430612e+002
1.446398e+003,1.472440e+002
1.447363e+003,1.475910e+002
1.448327e+003,1.454689e+002
1.449291e+003,1.446123e+002
1.450255e+003,1.453569e+002
1.451219e+003,1.461220e+002
1.452184e+003,1.458848e+002
1.453148e+003,1.455153e+002
1.454112e+003,1.464551e+002
1.455076e+003,1.483684e+002
1.456041e+003,1.489929e+002
1.457005e+003,1.475090e+002
1.457969e+003,1.472891e+002
1.458933e+003,1.510671e+002
1.459898e+003,1.551296e+002
1.460862e+003,1.575539e+002
1.461826e+003,1.584368e+002
1.462790e+003,1.575159e+002
1.463755e+003,1.552663e+002
1.464719e+003,1.537891e+002
1.465683e+003,1.546837e+002
1.466647e+003,1.569951e+002
1.467611e+003,1.584480e+002
1.468576e+003,1.588111e+002
1.469540e+003,1.595147e+002
1.470504e+003,1.612430e+002
1.471468e+003,1.624769e+002
1.472433e+003,1.625038e+002
1.473397e+003,1.624537e+002
1.474361e+003,1.631303e+002
1.475325e+003,1.642162e+002
1.476290e+003,1.651175e+002
1.477254e+003,1.655910e+002
1.478218e+003,1.657190e+002
1.479182e+003,1.656229e+002
1.480146e+003,1.654142e+002
1.481111e+003,1.652458e+002
1.482075e+003,1.650882e+002
1.483039e+003,1.642262e+002
1.484003e+003,1.615463e+002
1.484968e+003,1.600193e+002
1.485932e+003,1.613682e+002
1.486896e+003,1.633962e+002
1.487860e+003,1.637106e+002
1.488825e+003,1.631029e+002
1.489789e+003,1.643945e+002
1.490753e+003,1.681983e+002
1.491717e+003,1.713866e+002
1.492682e+003,1.717601e+002
1.493646e+003,1.705196e+002
1.494610e+003,1.690371e+002
1.495574e+003,1.675585e+002
1.496538e+003,1.673161e+002
1.497503e+003,1.687386e+002
1.498467e+003,1.695067e+002
1.499431e+003,1.676028e+002
1.500395e+003,1.649437e+002
1.501360e+003,1.643678e+002
1.502324e+003,1.654865e+002
1.503288e+003,1.657465e+002
1.504252e+003,1.644328e+002
1.505217e+003,1.631391e+002
1.506181e+003,1.626719e+002
1.507145e+003,1.625616e+002
1.508109e+003,1.626747e+002
1.509073e+003,1.627792e+002
1.510038e+003,1.620071e+002
1.511002e+003,1.605446e+002
1.511966e+003,1.606492e+002
1.512930e+003,1.641779e+002
1.513895e+003,1.684367e+002
1.514859e+003,1.679148e+002
1.515823e+003,1.625634e+002
1.516787e+003,1.598243e+002
1.517752e+003,1.609052e+002
1.518716e+003,1.624213e+002
1.519680e+003,1.638125e+002
1.520644e+003,1.648751e+002
1.521609e+003,1.659876e+002
1.522573e+003,1.664238e+002
1.523537e+003,1.650038e+002
1.524501e+003,1.622173e+002
1.525465e+003,1.597313e+002
1.526430e+003,1.584320e+002
1.527394e+003,1.578748e+002
1.528358e+003,1.575688e+002
1.529322e+003,1.575276e+002
1.530287e+003,1.574400e+002
1.531251e+003,1.576167e+002
1.532215e+003,1.573549e+002
1.533179e+003,1.557466e+002
1.534144e+003,1.546883e+002
1.535108e+003,1.550949e+002
1.536072e+003,1.562154e+002
1.537036e+003,1.579126e+002
1.538000e+003,1.595261e+002
1.538965e+003,1.593234e+002
1.539929e+003,1.566788e+002
1.540893e+003,1.538479e+002
1.541857e+003,1.536004e+002
1.542822e+003,1.552136e+002
1.543786e+003,1.549315e+002
1.544750e+003,1.515284e+002
1.545714e+003,1.499701e+002
1.546679e+003,1.511928e+002
1.547643e+003,1.527595e+002
1.548607e+003,1.550348e+002
1.549571e+003,1.565900e+002
1.550536e+003,1.550308e+002
1.551500e+003,1.514702e+002
1.552464e+003,1.496647e+002
1.553428e+003,1.507158e+002
1.554392e+003,1.515049e+002
1.555357e+003,1.493051e+002
1.556321e+003,1.455272e+002
1.557285e+003,1.428798e+002
1.558249e+003,1.415368e+002
1.559214e+003,1.417364e+002
1.560178e+003,1.444517e+002
1.561142e+003,1.460486e+002
1.562106e+003,1.447094e+002
1.563071e+003,1.420840e+002
1.564035e+003,1.389497e+002
1.564999e+003,1.361126e+002
1.565963e+003,1.354375e+002
1.566927e+003,1.370091e+002
1.567892e+003,1.379842e+002
1.568856e+003,1.367640e+002
1.569820e+003,1.351150e+002
1.570784e+003,1.357115e+002
1.571749e+003,1.370405e+002
1.572713e+003,1.349055e+002
1.573677e+003,1.294902e+002
1.574641e+003,1.257162e+002
1.575606e+003,1.252549e+002
1.576570e+003,1.262534e+002
1.577534e+003,1.285905e+002
1.578498e+003,1.309339e+002
1.579463e+003,1.298198e+002
1.580427e+003,1.254669e+002
1.581391e+003,1.232959e+002
1.582355e+003,1.255532e+002
1.583319e+003,1.272345e+002
1.584284e+003,1.242916e+002
1.585248e+003,1.199631e+002
1.586212e+003,1.175192e+002
1.587176e+003,1.166911e+002
1.588141e+003,1.178216e+002
1.589105e+003,1.211498e+002
1.590069e+003,1.232676e+002
1.591033e+003,1.217251e+002
1.591998e+003,1.180290e+002
1.592962e+003,1.136974e+002
1.593926e+003,1.090388e+002
1.594890e+003,1.058014e+002
1.595854e+003,1.042588e+002
1.596819e+003,1.040728e+002
1.597783e+003,1.060014e+002
1.598747e+003,1.076561e+002
1.599711e+003,1.067725e+002
1.600676e+003,1.049246e+002
1.601640e+003,1.041972e+002
1.602604e+003,1.045181e+002
1.603568e+003,1.044726e+002
1.604533e+003,1.034416e+002
1.605497e+003,1.019488e+002
1.606461e+003,1.004809e+002
1.607425e+003,9.902792e+001
1.608390e+003,9.757021e+001
1.609354e+003,9.620282e+001
1.610318e+003,9.479204e+001
1.611282e+003,9.315344e+001
1.612246e+003,9.132753e+001
1.613211e+003,8.939144e+001
1.614175e+003,8.722334e+001
1.615139e+003,8.416609e+001
1.616103e+003,8.122947e+001
1.617068e+003,8.035545e+001
1.618032e+003,8.148744e+001
1.618996e+003,8.228078e+001
1.619960e+003,8.129533e+001
1.620925e+003,7.969291e+001
1.621889e+003,7.951678e+001
1.622853e+003,8.037455e+001
1.623817e+003,7.924669e+001
1.624781e+003,7.569784e+001
1.625746e+003,7.341852e+001
1.626710e+003,7.397899e+001
1.627674e+003,7.427690e+001
1.628638e+003,7.193504e+001
1.629603e+003,6.934029e+001
1.630567e+003,6.889928e+001
1.631531e+003,6.977598e+001
1.632495e+003,6.976958e+001
1.633460e+003,6.849453e+001
1.634424e+003,6.758000e+001
1.635388e+003,6.830763e+001
1.636352e+003,6.948595e+001
1.637317e+003,6.913057e+001
1.638281e+003,6.726428e+001
1.639245e+003,6.400172e+001
1.640209e+003,5.834063e+001
1.641173e+003,5.519568e+001
1.642138e+003,5.759286e+001
1.643102e+003,6.035166e+001
1.644066e+003,6.145235e+001
1.645030e+003,6.118580e+001
1.645995e+003,5.915166e+001
1.646959e+003,5.611296e+001
1.647923e+003,5.374799e+001
1.648887e+003,5.259324e+001
1.649852e+003,5.208839e+001
1.650816e+003,5.191098e+001
1.651780e+003,5.175826e+001
1.652744e+003,5.095860e+001
1.653708e+003,4.952474e+001
1.654673e+003,4.797013e+001
1.655637e+003,4.610772e+001
1.656601e+003,4.490508e+001
1.657565e+003,4.531385e+001
1.658530e+003,4.562287e+001
1.659494e+003,4.487077e+001
1.660458e+003,4.351582e+001
1.661422e+003,4.168896e+001
1.662387e+003,3.975817e+001
1.663351e+003,3.867738e+001
1.664315e+003,3.874432e+001
1.665279e+003,3.891621e+001
1.666244e+003,3.833715e+001
1.667208e+003,3.730319e+001
1.668172e+003,3.637471e+001
1.669136e+003,3.550098e+001
1.670100e+003,3.419692e+001
1.671065e+003,3.213490e+001
1.672029e+003,3.086474e+001
1.672993e+003,3.122646e+001
1.673957e+003,3.218955e+001
1.674922e+003,3.387138e+001
1.675886e+003,3.512033e+001
1.676850e+003,3.425845e+001
1.677814e+003,3.178119e+001
1.678779e+003,2.964520e+001
1.679743e+003,2.846580e+001
1.680707e+003,2.742978e+001
1.681671e+003,2.562785e+001
1.682635e+003,2.385002e+001
1.683600e+003,2.362117e+001
1.684564e+003,2.476891e+001
1.685528e+003,2.632090e+001
1.686492e+003,2.834463e+001
1.687457e+003,2.866909e+001
1.688421e+003,2.570625e+001
1.689385e+003,2.260319e+001
1.690349e+003,2.161741e+001
1.691314e+003,2.202504e+001
1.692278e+003,2.404169e+001
1.693242e+003,2.672898e+001
1.694206e+003,2.656727e+001
1.695171e+003,2.246893e+001
1.696135e+003,1.846438e+001
1.697099e+003,1.694967e+001
1.698063e+003,1.698610e+001
1.699027e+003,1.794474e+001
1.699992e+003,1.940583e+001
1.700956e+003,1.998565e+001
1.701920e+003,1.953167e+001
1.702884e+003,1.863821e+001
1.703849e+003,1.738311e+001
1.704813e+003,1.618925e+001
1.705777e+003,1.545865e+001
1.706741e+003,1.494498e+001
1.707706e+003,1.417645e+001
1.708670e+003,1.329469e+001
1.709634e+003,1.294597e+001
1.710598e+003,1.340959e+001
1.711563e+003,1.307307e+001
1.712527e+003,9.924457e+000
1.713491e+003,7.172204e+000
1.714455e+003,8.231024e+000
1.715419e+003,1.104615e+001
1.716384e+003,1.207639e+001
1.717348e+003,1.129920e+001
1.718312e+003,1.029541e+001
1.719276e+003,9.547040e+000
1.720241e+003,9.471026e+000
1.721205e+003,1.058901e+001
1.722169e+003,1.194711e+001
1.723133e+003,1.197307e+001
1.724098e+003,1.086312e+001
1.725062e+003,9.875280e+000
1.726026e+003,8.914679e+000
1.726990e+003,8.209857e+000
1.727954e+003,7.661316e+000
1.728919e+003,7.556061e+000
1.729883e+003,8.531275e+000
1.730847e+003,9.596460e+000
1.731811e+003,9.755560e+000
1.732776e+003,9.186572e+000
1.733740e+003,8.282886e+000
1.734704e+003,7.285962e+000
1.735668e+003,6.697925e+000
1.736633e+003,6.799939e+000
1.737597e+003,7.274188e+000
1.738561e+003,7.782593e+000
1.739525e+003,8.260345e+000
1.740490e+003,8.228742e+000
1.741454e+003,7.428174e+000
1.742418e+003,6.955139e+000
1.743382e+003,7.340417e+000
1.744346e+003,7.222119e+000
1.745311e+003,6.135230e+000
1.746275e+003,4.773053e+000
1.747239e+003,2.772259e+000
1.748203e+003,1.302975e+000
1.749168e+003,2.380276e+000
1.750132e+003,5.212470e+000
1.751096e+003,7.129682e+000
1.752060e+003,7.085254e+000
1.753025e+003,6.085516e+000
1.753989e+003,5.024094e+000
1.754953e+003,4.084119e+000
1.755917e+003,3.743817e+000
1.756881e+003,4.013617e+000
1.757846e+003,3.810733e+000
1.758810e+003,2.846976e+000
1.759774e+003,2.367911e+000
1.760738e+003,2.946555e+000
1.761703e+003,3.365842e+000
1.762667e+003,3.078964e+000
1.763631e+003,2.592246e+000
1.764595e+003,2.314081e+000
1.765560e+003,2.181976e+000
1.766524e+003,2.038827e+000
1.767488e+003,1.799454e+000
1.768452e+003,1.274783e+000
1.769417e+003,3.358032e-001
1.770381e+003,-3.862488e-001
1.771345e+003,9.344177e-002
1.772309e+003,1.150626e+000
1.773273e+003,9.392731e-001
1.774238e+003,-3.808411e-001
1.775202e+003,-5.249420e-001
1.776166e+003,1.056659e+000
1.777130e+003,2.093076e+000
1.778095e+003,1.569495e+000
1.779059e+003,5.859925e-001
1.780023e+003,-1.833130e-001
1.780987e+003,-6.920716e-001
1.781952e+003,-7.362946e-001
1.782916e+003,-4.833984e-001
1.783880e+003,-7.310608e-001
1.784844e+003,-1.774344e+000
1.785808e+003,-2.248343e+000
1.786773e+003,-1.142658e+000
1.787737e+003,2.223084e-001
1.788701e+003,9.141480e-001
1.789665e+003,1.144894e+000
1.790630e+003,1.102518e+000
1.791594e+003,9.311157e-001
1.792558e+003,1.102182e+000
1.793522e+003,1.642593e+000
1.794487e+003,1.539200e+000
1.795451e+003,1.321014e-001
1.796415e+003,-1.443369e+000
1.797379e+003,-1.710944e+000
1.798344e+003,-8.621033e-001
1.799308e+003,3.398285e-001
1.800272e+003,2.144934e+000
1.801236e+003,3.168259e+000
1.802201e+003,3.480011e+000
1.803165e+003,3.138843e+000
1.804129e+003,1.605255e+000
1.805093e+003,6.972046e-002
1.806057e+003,-1.204157e+000
1.807022e+003,-1.893625e+000
1.807986e+003,-1.211871e+000
1.808950e+003,2.149475e-001
1.809914e+003,9.350494e-001
1.810879e+003,5.239105e-001
1.811843e+003,-5.232605e-001
1.812807e+003,-1.878302e+000
1.813771e+003,-3.026630e+000
1.814736e+003,-3.012555e+000
1.815700e+003,-2.053216e+000
1.816664e+003,-1.398907e+000
1.817628e+003,-1.027872e+000
1.818593e+003,-1.439014e+000
1.819557e+003,-3.229196e+000
1.820521e+003,-4.046222e+000
1.821485e+003,-2.143424e+000
1.822449e+003,-2.290405e-001
1.823414e+003,-9.824188e-001
1.824378e+003,-2.499463e+000
1.825342e+003,-1.991321e+000
1.826306e+003,6.564941e-002
1.827271e+003,1.171619e+000
1.828235e+003,7.057343e-001
1.829199e+003,9.950867e-002
1.830163e+003,4.386627e-001
1.831128e+003,5.059814e-001
1.832092e+003,-1.628769e+000
1.833056e+003,-4.167932e+000
1.834020e+003,-3.751385e+000
1.834984e+003,-1.191656e+000
1.835949e+003,3.298309e-001
1.836913e+003,1.444000e-001
1.837877e+003,-9.609955e-001
1.838841e+003,-2.662277e+000
1.839806e+003,-3.682611e+000
1.840770e+003,-2.366769e+000
1.841734e+003,1.732788e-001
1.842698e+003,4.738007e-001
1.843663e+003,-1.819162e+000
1.844627e+003,-2.756561e+000
1.845591e+003,-1.344910e+000
1.846555e+003,-1.596405e-001
1.847520e+003,1.044846e+000
1.848484e+003,1.520432e+000
1.849448e+003,4.181732e-001
1.850412e+003,-8.839569e-001
1.851376e+003,-1.316885e+000
1.852341e+003,-1.121143e+000
1.853305e+003,-7.637879e-001
1.854269e+003,-4.374695e-001
1.855233e+003,-3.069214e-001
1.856198e+003,-4.084442e-001
1.857162e+003,-3.684723e-001
1.858126e+003,1.647766e-001
1.859090e+003,1.109183e+000
1.860055e+003,2.634479e+000
1.861019e+003,4.423898e+000
1.861983e+003,4.509997e+000
1.862947e+003,2.755588e+000
1.863911e+003,1.475650e+000
1.864876e+003,1.341025e+000
1.865840e+003,1.302243e+000
1.866804e+003,6.480621e-001
1.867768e+003,8.218383e-003
1.868733e+003,1.237885e-001
1.869697e+003,7.773346e-001
1.870661e+003,1.512884e+000
1.871625e+003,2.339334e+000
1.872590e+003,2.631982e+000
1.873554e+003,2.040677e+000
1.874518e+003,1.547885e+000
1.875482e+003,1.569510e+000
1.876447e+003,1.614746e+000
1.877411e+003,1.389655e+000
1.878375e+003,1.051874e+000
1.879339e+003,6.448029e-001
1.880303e+003,2.642303e-001
1.881268e+003,1.793396e-001
1.882232e+003,3.730225e-001
1.883196e+003,5.021942e-001
1.884160e+003,3.856567e-001
1.885125e+003,5.686646e-002
1.886089e+003,-5.373566e-001
1.887053e+003,-1.105518e+000
1.888017e+003,-7.134186e-001
1.888982e+003,6.615814e-001
1.889946e+003,2.290475e+000
1.890910e+003,4.439126e+000
1.891874e+003,5.474267e+000
1.892839e+003,4.735153e+000
1.893803e+003,3.576941e+000
1.894767e+003,2.145331e+000
1.895731e+003,1.155820e+000
1.896695e+003,1.343002e+000
1.897660e+003,2.312479e+000
1.898624e+003,3.900995e+000
1.899588e+003,5.843997e+000
1.900552e+003,6.194504e+000
1.901517e+003,4.009390e+000
1.902481e+003,2.296191e+000
1.903445e+003,2.658728e+000
1.904409e+003,3.434741e+000
1.905374e+003,3.576694e+000
1.906338e+003,3.553387e+000
1.907302e+003,3.919565e+000
1.908266e+003,4.487076e+000
1.909230e+003,4.938788e+000
1.910195e+003,5.133161e+000
1.911159e+003,4.637485e+000
1.912123e+003,3.425998e+000
1.913087e+003,3.088483e+000
1.914052e+003,5.232681e+000
1.915016e+003,7.912396e+000
1.915980e+003,6.761215e+000
1.916944e+003,2.204495e+000
1.917909e+003,1.498566e-001
1.918873e+003,1.127515e+000
1.919837e+003,1.515265e+000
1.920801e+003,6.097687e-001
1.921766e+003,-1.125183e-002
1.922730e+003,1.254639e-001
1.923694e+003,7.185242e-001
1.924658e+003,1.848090e+000
1.925622e+003,3.159024e+000
1.926587e+003,4.404053e+000
1.927551e+003,5.484168e+000
1.928515e+003,6.150989e+000
1.929479e+003,6.422586e+000
1.930444e+003,5.764203e+000
1.931408e+003,2.883261e+000
1.932372e+003,7.339966e-001
1.933336e+003,1.016361e+000
1.934301e+003,2.230582e+000
1.935265e+003,3.764468e+000
1.936229e+003,5.044370e+000
1.937193e+003,5.213946e+000
1.938157e+003,4.498825e+000
1.939122e+003,3.508005e+000
1.940086e+003,2.622082e+000
1.941050e+003,2.544812e+000
1.942014e+003,3.646430e+000
1.942979e+003,4.820901e+000
1.943943e+003,4.671597e+000
1.944907e+003,3.768414e+000
1.945871e+003,3.864511e+000
1.946836e+003,4.897226e+000
1.947800e+003,4.718020e+000
1.948764e+003,3.018991e+000
1.949728e+003,2.329028e+000
1.950693e+003,3.523157e+000
1.951657e+003,4.255176e+000
1.952621e+003,3.148187e+000
1.953585e+003,1.785825e+000
1.954549e+003,1.714740e+000
1.955514e+003,2.358521e+000
1.956478e+003,2.193332e+000
1.957442e+003,1.350855e+000
1.958406e+003,2.226773e+000
1.959371e+003,6.129388e+000
1.960335e+003,8.170425e+000
1.961299e+003,6.114163e+000
1.962263e+003,4.362109e+000
1.963228e+003,4.922754e+000
1.964192e+003,5.714175e+000
1.965156e+003,4.804797e+000
1.966120e+003,3.568188e+000
1.967084e+003,4.208056e+000
1.968049e+003,6.099524e+000
1.969013e+003,7.066485e+000
1.969977e+003,6.635849e+000
1.970941e+003,6.079782e+000
1.971906e+003,6.126419e+000
1.972870e+003,6.464706e+000
1.973834e+003,7.078906e+000
1.974798e+003,7.511075e+000
1.975763e+003,6.463376e+000
1.976727e+003,4.615045e+000
1.977691e+003,4.410419e+000
1.978655e+003,5.661057e+000
1.979620e+003,5.695517e+000
1.980584e+003,4.001318e+000
1.981548e+003,3.206284e+000
1.982512e+003,4.724710e+000
1.983476e+003,6.677365e+000
1.984441e+003,7.168466e+000
1.985405e+003,6.616138e+000
1.986369e+003,5.955838e+000
1.987333e+003,5.226395e+000
1.988298e+003,4.928543e+000
1.989262e+003,5.225995e+000
1.990226e+003,5.308429e+000
1.991190e+003,4.889154e+000
1.992155e+003,4.781912e+000
1.993119e+003,5.459638e+000
1.994083e+003,6.195447e+000
1.995047e+003,6.776660e+000
1.996011e+003,7.045169e+000
1.996976e+003,6.507416e+000
1.997940e+003,5.676736e+000
1.998904e+003,5.937732e+000
1.999868e+003,7.343369e+000
2.000833e+003,7.967502e+000
2.001797e+003,6.814261e+000
2.002761e+003,6.105325e+000
2.003725e+003,7.340268e+000
2.004690e+003,8.558960e+000
2.005654e+003,8.476331e+000
2.006618e+003,7.775824e+000
2.007582e+003,6.949716e+000
2.008547e+003,6.222333e+000
2.009511e+003,5.729392e+000
2.010475e+003,5.557062e+000
2.011439e+003,6.008899e+000
2.012403e+003,7.032950e+000
2.013368e+003,7.672888e+000
2.014332e+003,7.222388e+000
2.015296e+003,6.361804e+000
2.016260e+003,5.869205e+000
2.017225e+003,5.724234e+000
2.018189e+003,5.988785e+000
2.019153e+003,6.522021e+000
2.020117e+003,6.778204e+000
2.021082e+003,6.730719e+000
2.022046e+003,6.634576e+000
2.023010e+003,6.585437e+000
2.023974e+003,6.788760e+000
2.024938e+003,7.345224e+000
2.025903e+003,8.106174e+000
2.026867e+003,9.018277e+000
2.027831e+003,9.655237e+000
2.028795e+003,8.833362e+000
2.029760e+003,6.705939e+000
2.030724e+003,6.895050e+000
2.031688e+003,1.053886e+001
2.032652e+003,1.201522e+001
2.033617e+003,1.006847e+001
2.034581e+003,8.405432e+000
2.035545e+003,7.865170e+000
2.036509e+003,7.990051e+000
2.037474e+003,8.864065e+000
2.038438e+003,9.838552e+000
2.039402e+003,1.056447e+001
2.040366e+003,1.083838e+001
2.041330e+003,9.817996e+000
2.042295e+003,7.592911e+000
2.043259e+003,6.518890e+000
2.044223e+003,7.107971e+000
2.045187e+003,8.163712e+000
2.046152e+003,1.041400e+001
2.047116e+003,1.173331e+001
2.048080e+003,1.090336e+001
2.049044e+003,9.278107e+000
2.050009e+003,7.030591e+000
2.050973e+003,5.231174e+000
2.051937e+003,5.342425e+000
2.052901e+003,6.735413e+000
2.053865e+003,7.881625e+000
2.054830e+003,8.426389e+000
2.055794e+003,8.859350e+000
2.056758e+003,9.433719e+000
2.057722e+003,9.562429e+000
2.058687e+003,8.247046e+000
2.059651e+003,7.005295e+000
2.060615e+003,7.593222e+000
2.061579e+003,8.867108e+000
2.062544e+003,9.554059e+000
2.063508e+003,9.652148e+000
2.064472e+003,9.163617e+000
2.065436e+003,8.263845e+000
2.066401e+003,7.160925e+000
2.067365e+003,6.139117e+000
2.068329e+003,6.431949e+000
2.069293e+003,8.785919e+000
2.070258e+003,1.111393e+001
2.071222e+003,1.078242e+001
2.072186e+003,9.164373e+000
2.073150e+003,9.345889e+000
2.074115e+003,1.082286e+001
2.075079e+003,1.140723e+001
2.076043e+003,1.108690e+001
2.077007e+003,1.055116e+001
2.077971e+003,9.956324e+000
2.078936e+003,9.398825e+000
2.079900e+003,8.891794e+000
2.080864e+003,8.551791e+000
2.081828e+003,8.447149e+000
2.082792e+003,8.788836e+000
2.083757e+003,9.953565e+000
2.084721e+003,1.157283e+001
2.085685e+003,1.238604e+001
2.086649e+003,1.240059e+001
2.087614e+003,1.179974e+001
2.088578e+003,1.027170e+001
2.089542e+003,9.807010e+000
2.090506e+003,1.104618e+001
2.091471e+003,1.172282e+001
2.092435e+003,1.084470e+001
2.093399e+003,9.951426e+000
2.094363e+003,1.023343e+001
2.095328e+003,1.074486e+001
2.096292e+003,1.008305e+001
2.097256e+003,8.670542e+000
2.098220e+003,8.067065e+000
2.099185e+003,8.360120e+000
2.100149e+003,9.107203e+000
2.101113e+003,1.129180e+001
2.102077e+003,1.201905e+001
2.103042e+003,9.743872e+000
2.104006e+003,8.132672e+000
2.104970e+003,8.589704e+000
2.105934e+003,9.221039e+000
2.106898e+003,8.592456e+000
2.107863e+003,7.967160e+000
2.108827e+003,9.195395e+000
2.109791e+003,1.129506e+001
2.110755e+003,1.184388e+001
2.111719e+003,1.077408e+001
2.112684e+003,1.010824e+001
2.113648e+003,1.036529e+001
2.114612e+003,1.047202e+001
2.115576e+003,9.762049e+000
2.116541e+003,9.424115e+000
2.117505e+003,1.059849e+001
2.118469e+003,1.146995e+001
2.119433e+003,1.036299e+001
2.120398e+003,8.865588e+000
2.121362e+003,8.810095e+000
2.122326e+003,9.528836e+000
2.123290e+003,9.253125e+000
2.124255e+003,8.189145e+000
2.125219e+003,8.643723e+000
2.126183e+003,1.142384e+001
2.127147e+003,1.333087e+001
2.128112e+003,1.249149e+001
2.129076e+003,1.112690e+001
2.130040e+003,9.906672e+000
2.131004e+003,9.179438e+000
2.131969e+003,9.459109e+000
2.132933e+003,1.013718e+001
2.133897e+003,1.104372e+001
2.134861e+003,1.161760e+001
2.135825e+003,1.050341e+001
2.136790e+003,8.176447e+000
2.137754e+003,6.878168e+000
2.138718e+003,7.255807e+000
2.139682e+003,7.725308e+000
2.140646e+003,7.361267e+000
2.141611e+003,6.961142e+000
2.142575e+003,7.253516e+000
2.143539e+003,7.678528e+000
2.144503e+003,7.662454e+000
2.145468e+003,7.528030e+000
2.146432e+003,7.942267e+000
2.147396e+003,8.429532e+000
2.148360e+003,7.598117e+000
2.149325e+003,5.924887e+000
2.150289e+003,5.614624e+000
2.151253e+003,7.061868e+000
2.152217e+003,8.259470e+000
2.153182e+003,8.090970e+000
2.154146e+003,7.441577e+000
2.155110e+003,7.063538e+000
2.156074e+003,6.748209e+000
2.157039e+003,5.901993e+000
2.158003e+003,5.089786e+000
2.158967e+003,5.518301e+000
2.159931e+003,6.694760e+000
2.160896e+003,7.427255e+000
2.161860e+003,7.703738e+000
2.162824e+003,8.187078e+000
2.163788e+003,8.933566e+000
2.164752e+003,9.313629e+000
2.165717e+003,9.003507e+000
2.166681e+003,8.107574e+000
2.167645e+003,6.601041e+000
2.168609e+003,5.065070e+000
2.169573e+003,4.292361e+000
2.170538e+003,4.108777e+000
2.171502e+003,4.181119e+000
2.172466e+003,4.496875e+000
2.173430e+003,5.389255e+000
2.174395e+003,6.546088e+000
2.175359e+003,6.713778e+000
2.176323e+003,5.884772e+000
2.177287e+003,5.305804e+000
2.178252e+003,5.437585e+000
2.179216e+003,5.635202e+000
2.180180e+003,5.450470e+000
2.181144e+003,5.212997e+000
2.182109e+003,5.365552e+000
2.183073e+003,5.573038e+000
2.184037e+003,5.068298e+000
2.185001e+003,4.200583e+000
2.185966e+003,4.010425e+000
2.186930e+003,4.287955e+000
2.187894e+003,3.981769e+000
2.188858e+003,3.150235e+000
2.189823e+003,2.835761e+000
2.190787e+003,3.226282e+000
2.191751e+003,3.507602e+000
2.192715e+003,3.290015e+000
2.193679e+003,3.115939e+000
2.194644e+003,3.473337e+000
2.195608e+003,4.133462e+000
2.196572e+003,5.039038e+000
2.197536e+003,5.808103e+000
2.198500e+003,5.178454e+000
2.199465e+003,3.732037e+000
2.200429e+003,3.363959e+000
2.201393e+003,3.832715e+000
2.202357e+003,3.402084e+000
2.203322e+003,1.999704e+000
2.204286e+003,1.254883e+000
2.205250e+003,1.756433e+000
2.206214e+003,2.749347e+000
2.207179e+003,3.722024e+000
2.208143e+003,4.310446e+000
2.209107e+003,3.989966e+000
2.210071e+003,3.209439e+000
2.211036e+003,2.723062e+000
2.212000e+003,2.442264e+000
2.212964e+003,2.121747e+000
2.213928e+003,1.814612e+000
2.214893e+003,1.823471e+000
2.215857e+003,2.101620e+000
2.216821e+003,2.176117e+000
2.217785e+003,2.001663e+000
2.218750e+003,2.166370e+000
2.219714e+003,2.906738e+000
2.220678e+003,3.669754e+000
2.221642e+003,4.036621e+000
2.222606e+003,4.186118e+000
2.223571e+003,4.410470e+000
2.224535e+003,4.458862e+000
2.225499e+003,3.490540e+000
2.226463e+003,2.248190e+000
2.227427e+003,2.547284e+000
2.228392e+003,3.849814e+000
2.229356e+003,4.356610e+000
2.230320e+003,4.138650e+000
2.231284e+003,4.749951e+000
2.232249e+003,6.371741e+000
2.233213e+003,7.392120e+000
2.234177e+003,6.989160e+000
2.235141e+003,5.812097e+000
2.236106e+003,4.092105e+000
2.237070e+003,2.891968e+000
2.238034e+003,3.935965e+000
2.238998e+003,5.855429e+000
2.239963e+003,6.771371e+000
2.240927e+003,7.194541e+000
2.241891e+003,8.536222e+000
2.242855e+003,1.001472e+001
2.243820e+003,9.043631e+000
2.244784e+003,6.323083e+000
2.245748e+003,5.469968e+000
2.246712e+003,7.285880e+000
2.247677e+003,9.189554e+000
2.248641e+003,9.851755e+000
2.249605e+003,1.026024e+001
2.250569e+003,1.131233e+001
2.251533e+003,1.219404e+001
2.252498e+003,1.199324e+001
2.253462e+003,1.138980e+001
2.254426e+003,1.129839e+001
2.255390e+003,1.113396e+001
2.256354e+003,9.600897e+000
2.257319e+003,7.559561e+000
2.258283e+003,6.846387e+000
2.259247e+003,7.360220e+000
2.260211e+003,7.845395e+000
2.261176e+003,7.892346e+000
2.262140e+003,7.308728e+000
2.263104e+003,5.773984e+000
2.264068e+003,4.529825e+000
2.265033e+003,4.127594e+000
2.265997e+003,4.424640e+000
2.266961e+003,6.438937e+000
2.267925e+003,7.860336e+000
2.268890e+003,5.991678e+000
2.269854e+003,3.370126e+000
2.270818e+003,3.231824e+000
2.271782e+003,4.236221e+000
2.272747e+003,3.415466e+000
2.273711e+003,1.125195e+000
2.274675e+003,1.378448e-001
2.275639e+003,1.004028e+000
2.276604e+003,1.361160e+000
2.277568e+003,1.035095e-001
2.278532e+003,-6.178101e-001
2.279496e+003,2.191437e-001
2.280460e+003,9.171540e-001
2.281425e+003,1.162390e+000
2.282389e+003,7.477234e-001
2.283353e+003,-1.412262e+000
2.284317e+003,-3.295447e+000
2.285281e+003,-2.435547e+000
2.286246e+003,-3.465301e-001
2.287210e+003,2.395966e-001
2.288174e+003,-4.890198e-001
2.289138e+003,-8.161346e-001
2.290103e+003,-5.455475e-001
2.291067e+003,-6.676117e-001
2.292031e+003,-1.778958e+000
2.292995e+003,-2.096625e+000
2.293960e+003,-1.201675e+000
2.294924e+003,-1.877258e-001
2.295888e+003,1.109793e+000
2.296852e+003,1.672665e+000
2.297817e+003,5.598724e-001
2.298781e+003,-6.488800e-001
2.299745e+003,-4.044769e-001
2.300709e+003,4.835571e-001
2.301674e+003,6.441803e-001
2.302638e+003,1.352203e-001
2.303602e+003,-7.149536e-001
2.304566e+003,-1.971277e+000
2.305531e+003,-2.974377e+000
2.306495e+003,-3.734726e+000
2.307459e+003,-3.733908e+000
2.308423e+003,-2.825177e+000
2.309387e+003,-2.401999e+000
2.310352e+003,-2.882977e+000
2.311316e+003,-3.122116e+000
2.312280e+003,-2.535764e+000
2.313244e+003,-1.553000e+000
2.314208e+003,-5.188354e-001
2.315173e+003,2.391113e-001
2.316137e+003,3.112763e-001
2.317101e+003,-3.137390e-001
2.318065e+003,-2.264172e+000
2.319030e+003,-4.821979e+000
2.319994e+003,-4.607147e+000
2.320958e+003,-2.418298e+000
2.321922e+003,-1.741794e+000
2.322887e+003,-2.534885e+000
2.323851e+003,-2.801947e+000
2.324815e+003,-2.251324e+000
2.325779e+003,-1.913641e+000
2.326744e+003,-2.165314e+000
2.327708e+003,-2.608032e+000
2.328672e+003,-3.015457e+000
2.329636e+003,-3.020239e+000
2.330601e+003,-1.765774e+000
2.331565e+003,-7.932770e-001
2.332529e+003,-2.608969e+000
2.333493e+003,-4.899753e+000
2.334458e+003,-4.739062e+000
2.335422e+003,-3.458533e+000
2.336386e+003,-2.937250e+000
2.337350e+003,-2.847525e+000
2.338314e+003,-1.832187e+000
2.339279e+003,-4.279999e-001
2.340243e+003,-1.048154e+000
2.341207e+003,-3.771484e+000
2.342171e+003,-4.882525e+000
2.343135e+003,-2.763919e+000
2.344100e+003,-1.172238e+000
2.345064e+003,-1.926324e+000
2.346028e+003,-2.808496e+000
2.346992e+003,-3.313373e+000
2.347957e+003,-3.392651e+000
2.348921e+003,-2.667428e+000
2.349885e+003,-1.915894e+000
2.350849e+003,-2.014032e+000
2.351814e+003,-2.201367e+000
2.352778e+003,-9.160064e-001
2.353742e+003,8.049164e-001
2.354706e+003,3.366394e-002
2.355671e+003,-2.907111e+000
2.356635e+003,-3.798636e+000
2.357599e+003,-1.775797e+000
2.358563e+003,-1.641638e+000
2.359528e+003,-4.414011e+000
2.360492e+003,-5.650641e+000
2.361456e+003,-4.342386e+000
2.362420e+003,-3.640933e+000
2.363385e+003,-4.687637e+000
2.364349e+003,-5.275973e+000
2.365313e+003,-4.127280e+000
2.366277e+003,-2.832965e+000
2.367241e+003,-2.877097e+000
2.368206e+003,-3.579965e+000
2.369170e+003,-3.859604e+000
2.370134e+003,-3.867670e+000
2.371098e+003,-4.085092e+000
2.372063e+003,-4.402331e+000
2.373027e+003,-4.314349e+000
2.373991e+003,-3.867221e+000
2.374955e+003,-3.274161e+000
2.375919e+003,-2.647439e+000
2.376884e+003,-2.207175e+000
2.377848e+003,-1.990070e+000
2.378812e+003,-1.815030e+000
2.379776e+003,-1.655392e+000
2.380741e+003,-1.888690e+000
2.381705e+003,-2.735748e+000
2.382669e+003,-3.535672e+000
2.383633e+003,-4.125757e+000
2.384598e+003,-3.881860e+000
2.385562e+003,-1.038532e+000
2.386526e+003,1.260199e+000
2.387490e+003,-3.842804e-001
2.388455e+003,-2.899585e+000
2.389419e+003,-3.177533e+000
2.390383e+003,-2.483762e+000
2.391347e+003,-2.602664e+000
2.392312e+003,-3.479318e+000
2.393276e+003,-4.839765e+000
2.394240e+003,-6.437112e+000
2.395204e+003,-6.940927e+000
2.396168e+003,-6.084662e+000
2.397133e+003,-4.562372e+000
2.398097e+003,-1.035184e+000
2.399061e+003,3.710113e-001
2.400025e+003,-1.912762e+000
2.400990e+003,-3.355203e+000
2.401954e+003,-2.650601e+000
2.402918e+003,-1.556641e+000
2.403882e+003,-6.767578e-001
2.404846e+003,-4.016052e-001
2.405811e+003,-1.148441e+000
2.406775e+003,-2.271774e+000
2.407739e+003,-2.933856e+000
2.408703e+003,-3.107764e+000
2.409668e+003,-2.409219e+000
2.410632e+003,-1.162137e+000
2.411596e+003,-1.408936e+000
2.412560e+003,-2.714853e+000
2.413525e+003,-3.062436e+000
2.414489e+003,-2.522430e+000
2.415453e+003,-1.668466e+000
2.416417e+003,-9.242462e-001
2.417382e+003,-1.692249e+000
2.418346e+003,-3.960629e+000
2.419310e+003,-5.757150e+000
2.420274e+003,-6.173779e+000
2.421239e+003,-5.456656e+000
2.422203e+003,-3.352112e+000
2.423167e+003,-1.574353e+000
2.424131e+003,-1.487070e+000
2.425095e+003,-1.944782e+000
2.426060e+003,-2.668048e+000
2.427024e+003,-3.102377e+000
2.427988e+003,-2.549936e+000
2.428952e+003,-1.800757e+000
2.429917e+003,-1.666248e+000
2.430881e+003,-1.812967e+000
2.431845e+003,-1.463397e+000
2.432809e+003,-9.565185e-001
2.433773e+003,-1.771771e+000
2.434738e+003,-3.890240e+000
2.435702e+003,-4.611228e+000
2.436666e+003,-3.410321e+000
2.437630e+003,-2.700861e+000
2.438595e+003,-2.617535e+000
2.439559e+003,-2.506717e+000
2.440523e+003,-2.234769e+000
2.441487e+003,-2.183508e+000
2.442452e+003,-2.529794e+000
2.443416e+003,-2.342523e+000
2.444380e+003,-1.134634e+000
2.445344e+003,3.111237e-001
2.446309e+003,1.366486e+000
2.447273e+003,2.060437e+000
2.448237e+003,2.240839e+000
2.449201e+003,2.451770e+000
2.450166e+003,4.619256e+000
2.451130e+003,6.637222e+000
2.452094e+003,4.010458e+000
2.453058e+003,-3.611725e-001
2.454022e+003,-1.974463e+000
2.454987e+003,-1.673212e+000
2.455951e+003,-1.467935e+000
2.456915e+003,-1.566550e+000
2.457879e+003,-1.521378e+000
2.458844e+003,-1.265079e+000
2.459808e+003,-9.851227e-001
2.460772e+003,-7.120422e-001
2.461736e+003,-6.936585e-001
2.462700e+003,-1.905197e+000
2.463665e+003,-1.841083e+000
2.464629e+003,1.551669e+000
2.465593e+003,3.277902e+000
2.466557e+003,1.495703e+000
2.467522e+003,-2.485718e-001
2.468486e+003,-4.718384e-001
2.469450e+003,-4.113098e-001
2.470414e+003,-9.795440e-001
2.471379e+003,-1.435312e+000
2.472343e+003,-9.006897e-001
2.473307e+003,2.803589e-001
2.474271e+003,1.709222e+000
2.475236e+003,2.875745e+000
2.476200e+003,1.475742e+000
2.477164e+003,-1.329971e+000
2.478128e+003,-1.839587e+000
2.479093e+003,-8.343445e-001
2.480057e+003,-7.883881e-001
2.481021e+003,-1.540915e+000
2.481985e+003,-1.673981e+000
2.482949e+003,-1.155298e+000
2.483914e+003,-9.584839e-001
2.484878e+003,-1.345593e+000
2.485842e+003,-2.002206e+000
2.486806e+003,-2.991409e+000
2.487771e+003,-3.191806e+000
2.488735e+003,-1.726840e+000
2.489699e+003,-1.656433e-001
2.490663e+003,1.777466e+000
2.491627e+003,2.658359e+000
2.492592e+003,1.529788e+000
2.493556e+003,-7.998963e-002
2.494520e+003,-2.008734e+000
2.495484e+003,-2.990826e+000
2.496449e+003,-1.617755e+000
2.497413e+003,2.299255e-001
2.498377e+003,-2.847137e-001
2.499341e+003,-1.961899e+000
2.500306e+003,-1.459546e+000
2.501270e+003,5.911743e-001
2.502234e+003,1.048785e+000
2.503198e+003,4.688995e-001
2.504163e+003,9.101654e-001
2.505127e+003,2.054211e+000
2.506091e+003,2.850693e+000
2.507055e+003,3.054532e+000
2.508020e+003,2.093948e+000
2.508984e+003,4.632416e-001
2.509948e+003,3.015533e-001
2.510912e+003,2.081061e+000
2.511876e+003,3.442856e+000
2.512841e+003,3.456085e+000
2.513805e+003,3.211441e+000
2.514769e+003,2.757068e+000
2.515733e+003,2.550793e+000
2.516698e+003,3.017108e+000
2.517662e+003,3.238495e+000
2.518626e+003,2.850415e+000
2.519590e+003,2.440103e+000
2.520554e+003,2.189304e+000
2.521519e+003,2.281622e+000
2.522483e+003,3.008783e+000
2.523447e+003,3.619208e+000
2.524411e+003,2.987021e+000
2.525376e+003,1.682388e+000
2.526340e+003,7.418823e-001
2.527304e+003,3.849884e-001
2.528268e+003,2.115512e+000
2.529233e+003,4.697003e+000
2.530197e+003,4.635117e+000
2.531161e+003,3.161029e+000
2.532125e+003,3.458487e+000
2.533090e+003,5.124625e+000
2.534054e+003,6.332431e+000
2.535018e+003,6.792554e+000
2.535982e+003,6.967035e+000
2.536947e+003,6.963244e+000
2.537911e+003,6.621979e+000
2.538875e+003,5.555914e+000
2.539839e+003,5.182645e+000
2.540803e+003,5.989356e+000
2.541768e+003,7.041757e+000
2.542732e+003,8.618207e+000
2.543696e+003,9.410273e+000
2.544660e+003,8.863785e+000
2.545625e+003,8.688937e+000
2.546589e+003,9.750753e+000
2.547553e+003,1.057781e+001
2.548517e+003,9.992914e+000
2.549482e+003,9.186182e+000
2.550446e+003,9.603314e+000
2.551410e+003,1.048846e+001
2.552374e+003,1.056274e+001
2.553339e+003,1.041618e+001
2.554303e+003,1.127346e+001
2.555267e+003,1.215313e+001
2.556231e+003,1.159220e+001
2.557196e+003,1.037599e+001
2.558160e+003,9.463989e+000
2.559124e+003,8.856201e+000
2.560088e+003,8.539770e+000
2.561052e+003,8.333478e+000
2.562017e+003,7.420728e+000
2.562981e+003,5.811591e+000
2.563945e+003,5.314462e+000
2.564909e+003,6.129544e+000
2.565874e+003,7.096438e+000
2.566838e+003,8.408587e+000
2.567802e+003,8.114636e+000
2.568766e+003,6.063943e+000
2.569730e+003,5.353241e+000
2.570695e+003,6.457034e+000
2.571659e+003,7.263312e+000
2.572623e+003,7.052011e+000
2.573587e+003,6.740588e+000
2.574552e+003,6.814545e+000
2.575516e+003,6.510343e+000
2.576480e+003,5.146924e+000
2.577444e+003,3.847879e+000
2.578409e+003,3.532184e+000
2.579373e+003,3.099057e+000
2.580337e+003,1.575137e+000
2.581301e+003,3.751678e-001
2.582266e+003,2.593536e-001
2.583230e+003,9.060181e-001
2.584194e+003,2.538553e+000
2.585158e+003,3.923343e+000
2.586123e+003,3.694391e+000
2.587087e+003,2.915982e+000
2.588051e+003,3.469467e+000
2.589015e+003,4.656772e+000
2.589979e+003,4.075482e+000
2.590944e+003,2.316180e+000
2.591908e+003,1.827344e+000
2.592872e+003,2.059814e+000
2.593836e+003,1.382397e+000
2.594801e+003,4.271576e-001
2.595765e+003,1.112109e+000
2.596729e+003,2.737482e+000
2.597693e+003,3.224371e+000
2.598657e+003,2.502899e+000
2.599622e+003,1.714267e+000
2.600586e+003,1.088699e+000
2.601550e+003,6.248139e-001
2.602514e+003,3.420715e-001
2.603479e+003,1.376923e-001
2.604443e+003,-1.047638e-001
2.605407e+003,1.893189e-001
2.606371e+003,1.330994e+000
2.607336e+003,1.369251e+000
2.608300e+003,-1.578430e-001
2.609264e+003,-9.706299e-001
2.610228e+003,-2.867584e-001
2.611193e+003,3.847046e-001
2.612157e+003,1.772491e-001
2.613121e+003,-4.108459e-001
2.614085e+003,-1.157245e+000
2.615050e+003,-1.497220e+000
2.616014e+003,-7.036011e-001
2.616978e+003,2.754059e-001
2.617942e+003,1.002179e+000
2.618906e+003,1.568024e+000
2.619871e+003,2.567996e+000
2.620835e+003,2.748795e+000
2.621799e+003,3.232208e-001
2.622763e+003,-2.112387e+000
2.623728e+003,-2.164658e+000
2.624692e+003,-6.379791e-001
2.625656e+003,1.469186e+000
2.626620e+003,3.374341e+000
2.627584e+003,2.541061e+000
2.628549e+003,2.294006e-002
2.629513e+003,-6.767670e-001
2.630477e+003,-2.549347e-001
2.631441e+003,-2.229279e-001
2.632406e+003,-3.167297e-001
2.633370e+003,4.419342e-001
2.634334e+003,1.542221e+000
2.635298e+003,1.653332e+000
2.636263e+003,9.640137e-001
2.637227e+003,6.154114e-001
2.638191e+003,7.678863e-001
2.639155e+003,1.130814e+000
2.640120e+003,1.809238e+000
2.641084e+003,1.843149e+000
2.642048e+003,9.449432e-001
2.643012e+003,1.221631e+000
2.643977e+003,2.834039e+000
2.644941e+003,2.669281e+000
2.645905e+003,4.795868e-001
2.646869e+003,-1.415051e+000
2.647833e+003,-2.265872e+000
2.648798e+003,-2.044467e+000
2.649762e+003,-8.647156e-001
2.650726e+003,2.189392e-001
2.651690e+003,7.678650e-001
2.652655e+003,5.075439e-001
2.653619e+003,-2.079623e+000
2.654583e+003,-3.181558e+000
2.655547e+003,-2.621704e-001
2.656511e+003,2.018967e+000
2.657476e+003,2.495023e+000
2.658440e+003,1.901666e+000
2.659404e+003,3.315002e-001
2.660368e+003,-1.191980e+000
2.661333e+003,-2.007514e+000
2.662297e+003,-1.925189e+000
2.663261e+003,-6.712952e-001
2.664225e+003,5.976807e-001
2.665190e+003,2.708099e-001
2.666154e+003,-6.260803e-001
2.667118e+003,-1.364636e+000
2.668082e+003,-1.509735e+000
2.669047e+003,-1.069397e-001
2.670011e+003,1.394516e+000
2.670975e+003,1.542609e+000
2.671939e+003,1.192590e+000
2.672904e+003,1.331122e+000
2.673868e+003,1.773453e+000
2.674832e+003,2.327649e+000
2.675796e+003,2.744116e+000
2.676760e+003,2.372235e+000
2.677725e+003,1.323969e+000
2.678689e+003,-2.538361e-001
2.679653e+003,-1.902853e+000
2.680617e+003,-2.203693e+000
2.681582e+003,-1.635828e+000
2.682546e+003,-9.505768e-001
2.683510e+003,-3.715180e-001
2.684474e+003,-1.742737e-001
2.685438e+003,-2.861176e-001
2.686403e+003,-4.917725e-001
2.687367e+003,-7.142151e-001
2.688331e+003,-7.485169e-001
2.689295e+003,-5.611480e-001
2.690260e+003,2.739716e-001
2.691224e+003,1.952835e+000
2.692188e+003,2.243515e+000
2.693152e+003,1.149811e+000
2.694117e+003,9.002686e-004
2.695081e+003,-8.638336e-001
2.696045e+003,-4.562775e-001
2.697009e+003,8.870056e-001
2.697974e+003,9.245087e-001
2.698938e+003,-5.617462e-001
2.699902e+003,-9.199280e-001
2.700866e+003,8.046753e-001
2.701831e+003,2.123374e+000
2.702795e+003,2.521561e+000
2.703759e+003,1.940622e+000
2.704723e+003,-5.597229e-001
2.705688e+003,-8.838135e-001
2.706652e+003,1.963098e+000
2.707616e+003,3.075031e+000
2.708580e+003,1.275742e+000
2.709544e+003,-6.096436e-001
2.710509e+003,-1.384415e+000
2.711473e+003,-1.591269e+000
2.712437e+003,-1.551938e+000
2.713401e+003,-8.697632e-001
2.714365e+003,1.244119e+000
2.715330e+003,2.698401e+000
2.716294e+003,1.744946e+000
2.717258e+003,9.484711e-001
2.718222e+003,2.095633e+000
2.719187e+003,1.949991e+000
2.720151e+003,-1.484921e+000
2.721115e+003,-3.116168e+000
2.722079e+003,-1.484650e-001
2.723044e+003,2.440140e+000
2.724008e+003,8.889801e-001
2.724972e+003,-1.096661e+000
2.725936e+003,3.929199e-001
2.726901e+003,2.757980e+000
2.727865e+003,3.692511e+000
2.728829e+003,3.469522e+000
2.729793e+003,1.107468e+000
2.730758e+003,-8.194397e-001
2.731722e+003,2.949005e-001
2.732686e+003,1.435989e+000
2.733650e+003,-5.740662e-002
2.734615e+003,-1.386881e+000
2.735579e+003,-3.383484e-002
2.736543e+003,2.148502e+000
2.737507e+003,2.746649e+000
2.738471e+003,2.222897e+000
2.739436e+003,9.404358e-001
2.740400e+003,-3.729767e-001
2.741364e+003,-3.084869e-001
2.742328e+003,2.819549e-001
2.743292e+003,4.433716e-001
2.744257e+003,5.276001e-001
2.745221e+003,1.105911e+000
2.746185e+003,1.748160e+000
2.747149e+003,1.620831e+000
2.748114e+003,1.481256e+000
2.749078e+003,2.634073e+000
2.750042e+003,4.356439e+000
2.751006e+003,4.661966e+000
2.751971e+003,3.902057e+000
2.752935e+003,3.271255e+000
2.753899e+003,2.573905e+000
2.754863e+003,8.561157e-001
2.755828e+003,-7.460938e-001
2.756792e+003,-1.103821e-002
2.757756e+003,1.788181e+000
2.758720e+003,2.616315e+000
2.759685e+003,2.663126e+000
2.760649e+003,2.974326e+000
2.761613e+003,3.285880e+000
2.762577e+003,2.440549e+000
2.763542e+003,6.948700e-001
2.764506e+003,5.278808e-001
2.765470e+003,1.437332e+000
2.766434e+003,1.879669e-001
2.767398e+003,-2.005866e+000
2.768363e+003,-1.408844e+000
2.769327e+003,6.587219e-001
2.770291e+003,8.840882e-001
2.771255e+003,-2.468872e-001
2.772219e+003,-6.903504e-001
2.773184e+003,-3.468536e-001
2.774148e+003,-5.235596e-002
2.775112e+003,1.573090e-001
2.776076e+003,3.569702e-001
2.777041e+003,5.575043e-001
2.778005e+003,8.117584e-001
2.778969e+003,1.069400e+000
2.779933e+003,1.118820e+000
2.780898e+003,9.018799e-001
2.781862e+003,9.352722e-002
2.782826e+003,-9.870361e-001
2.783790e+003,-1.637540e+000
2.784755e+003,-1.673114e+000
2.785719e+003,-7.840973e-001
2.786683e+003,1.051300e+000
2.787647e+003,2.030539e+000
2.788612e+003,2.140460e+000
2.789576e+003,6.250488e-001
2.790540e+003,-2.348779e+000
2.791504e+003,-1.732883e+000
2.792469e+003,1.718719e+000
2.793433e+003,3.048123e+000
2.794397e+003,2.166702e+000
2.795361e+003,1.129037e+000
2.796325e+003,5.397308e-001
2.797290e+003,7.362976e-001
2.798254e+003,1.708105e+000
2.799218e+003,1.915207e+000
2.800182e+003,9.425476e-001
2.801146e+003,1.281860e+000
2.802111e+003,3.170474e+000
2.803075e+003,4.326093e+000
2.804039e+003,4.603928e+000
2.805003e+003,4.210971e+000
2.805968e+003,3.257010e+000
2.806932e+003,2.040491e+000
2.807896e+003,8.505920e-001
2.808860e+003,-9.950256e-002
2.809825e+003,-6.994659e-001
2.810789e+003,-3.210754e-001
2.811753e+003,1.458655e+000
2.812717e+003,1.720688e+000
2.813682e+003,-1.711792e-001
2.814646e+003,-4.456482e-002
2.815610e+003,2.110834e+000
2.816574e+003,2.975995e+000
2.817539e+003,2.367471e+000
2.818503e+003,1.120889e+000
2.819467e+003,-2.243286e-001
2.820431e+003,-6.440155e-001
2.821396e+003,3.059387e-002
2.822360e+003,1.208359e+000
2.823324e+003,2.825668e+000
2.824288e+003,3.630805e+000
2.825252e+003,3.523209e+000
2.826217e+003,2.438495e+000
2.827181e+003,3.320984e-001
2.828145e+003,6.500519e-001
2.829109e+003,3.136548e+000
2.830073e+003,4.924741e+000
2.831038e+003,5.490479e+000
2.832002e+003,5.004068e+000
2.832966e+003,3.782684e+000
2.833930e+003,2.549252e+000
2.834895e+003,1.476007e+000
2.835859e+003,1.471603e+000
2.836823e+003,2.911435e+000
2.837787e+003,3.676404e+000
2.838752e+003,3.783566e+000
2.839716e+003,2.690579e+000
2.840680e+003,7.394959e-001
2.841644e+003,4.810547e-001
2.842609e+003,1.643866e+000
2.843573e+003,2.043506e+000
2.844537e+003,1.493890e+000
2.845501e+003,1.118533e+000
2.846466e+003,1.117798e+000
2.847430e+003,1.057864e+000
2.848394e+003,9.218292e-001
2.849358e+003,4.500977e-001
2.850323e+003,-3.851441e-001
2.851287e+003,-4.805786e-001
2.852251e+003,4.344787e-002
2.853215e+003,5.025329e-002
2.854179e+003,-1.928711e-001
2.855144e+003,1.070544e+000
2.856108e+003,3.128085e+000
2.857072e+003,2.718002e+000
2.858036e+003,-1.406341e-001
2.859000e+003,-1.259491e+000
2.859965e+003,-3.672943e-001
2.860929e+003,1.502991e-001
2.861893e+003,2.355438e-001
2.862857e+003,1.252472e+000
2.863822e+003,2.864957e+000
2.864786e+003,2.824921e+000
2.865750e+003,1.708014e+000
2.866714e+003,1.763736e+000
2.867679e+003,2.533365e+000
2.868643e+003,2.006921e+000
2.869607e+003,3.465393e-001
2.870571e+003,-8.851044e-001
2.871536e+003,-1.479794e+000
2.872500e+003,3.794312e-001
2.873464e+003,4.446793e+000
2.874428e+003,5.377502e+000
2.875393e+003,3.856079e+000
2.876357e+003,1.152298e+000
2.877321e+003,-1.345364e+000
2.878285e+003,-4.540100e-001
2.879250e+003,2.125937e+000
2.880214e+003,2.728360e+000
2.881178e+003,1.538739e+000
2.882142e+003,2.572510e-001
2.883106e+003,-9.169830e-001
2.884071e+003,-1.437912e+000
2.885035e+003,-1.315042e+000
2.885999e+003,-2.646912e-001
2.886963e+003,1.154529e+000
2.887927e+003,1.795871e+000
2.888892e+003,1.767691e+000
2.889856e+003,6.102295e-001
2.890820e+003,-5.028442e-001
2.891784e+003,4.949219e-001
2.892749e+003,2.499326e+000
2.893713e+003,3.810846e+000
2.894677e+003,4.219470e+000
2.895641e+003,3.023556e+000
2.896606e+003,8.560211e-001
2.897570e+003,-9.566345e-001
2.898534e+003,-2.023538e+000
2.899498e+003,-1.048627e+000
2.900463e+003,3.109070e-001
2.901427e+003,-1.590332e-001
2.902391e+003,-9.193848e-001
2.903355e+003,-1.090607e-001
2.904320e+003,1.210202e+000
2.905284e+003,2.096310e+000
2.906248e+003,2.185864e+000
2.907212e+003,7.775055e-001
2.908177e+003,-1.002331e+000
2.909141e+003,-1.419519e+000
2.910105e+003,-1.123383e+000
2.911069e+003,-4.505768e-001
2.912033e+003,1.523193e-001
2.912998e+003,5.050476e-001
2.913962e+003,4.413086e-001
2.914926e+003,-4.417206e-001
2.915890e+003,-7.988769e-001
2.916854e+003,4.194519e-001
2.917819e+003,1.964069e+000
2.918783e+003,2.632446e+000
2.919747e+003,2.681049e+000
2.920711e+003,1.896661e+000
2.921676e+003,1.363196e+000
2.922640e+003,2.325134e+000
2.923604e+003,2.810632e+000
2.924568e+003,1.763220e+000
2.925533e+003,8.328217e-001
2.926497e+003,5.353760e-001
2.927461e+003,7.991944e-002
2.928425e+003,-5.703155e-001
2.929390e+003,3.677673e-001
2.930354e+003,3.659982e+000
2.931318e+003,5.943244e+000
2.932282e+003,4.712039e+000
2.933247e+003,2.914218e+000
2.934211e+003,2.273819e+000
2.935175e+003,1.898407e+000
2.936139e+003,1.101340e+000
2.937104e+003,6.182098e-001
2.938068e+003,6.719391e-001
2.939032e+003,6.019409e-001
2.939996e+003,2.304138e-001
2.940960e+003,1.334198e-001
2.941925e+003,5.049469e-001
2.942889e+003,3.275848e-001
2.943853e+003,-1.252106e+000
2.944817e+003,-1.303754e+000
2.945781e+003,7.061859e-001
2.946746e+003,1.327444e+000
2.947710e+003,4.962586e-001
2.948674e+003,6.807587e-001
2.949638e+003,1.763602e+000
2.950603e+003,1.539520e+000
2.951567e+003,1.614838e-001
2.952531e+003,-1.920197e-001
2.953495e+003,8.009338e-001
2.954460e+003,1.871744e+000
2.955424e+003,2.967883e+000
2.956388e+003,3.411328e+000
2.957352e+003,3.178149e+000
2.958317e+003,1.898941e+000
2.959281e+003,9.023742e-002
2.960245e+003,-9.777557e-001
2.961209e+003,-1.406281e+000
2.962174e+003,-1.883905e+000
2.963138e+003,-2.046603e+000
2.964102e+003,-4.409576e-001
2.965066e+003,1.781451e+000
2.966031e+003,1.904993e+000
2.966995e+003,7.341369e-001
2.967959e+003,9.808838e-001
2.968923e+003,1.756500e+000
2.969887e+003,1.042349e+000
2.970852e+003,-9.316711e-002
2.971816e+003,-6.230072e-001
2.972780e+003,-4.983063e-001
2.973744e+003,6.290771e-001
2.974708e+003,1.843533e+000
2.975673e+003,2.419544e+000
2.976637e+003,2.673669e+000
2.977601e+003,2.976901e+000
2.978565e+003,3.090137e+000
2.979530e+003,2.798645e+000
2.980494e+003,2.089005e+000
2.981458e+003,5.859650e-001
2.982422e+003,-8.023437e-001
2.983387e+003,-2.107211e+000
2.984351e+003,-1.959851e+000
2.985315e+003,4.885468e-001
2.986279e+003,1.405814e+000
2.987244e+003,-1.054510e+000
2.988208e+003,-2.692581e+000
2.989172e+003,-7.828094e-001
2.990136e+003,8.563812e-001
2.991101e+003,-5.401611e-001
2.992065e+003,-1.279153e+000
2.993029e+003,-1.538940e-001
2.993993e+003,1.141602e-001
2.994958e+003,-8.544525e-001
2.995922e+003,-7.634338e-001
2.996886e+003,5.370483e-001
2.997850e+003,6.547241e-001
2.998814e+003,-7.341766e-001
2.999779e+003,-1.758771e+000
3.000743e+003,-1.896137e+000
3.001707e+003,-1.383514e+000
3.002671e+003,-2.353821e-002
3.003635e+003,-4.723755e-001
3.004600e+003,-2.511157e+000
3.005564e+003,-1.471268e+000
3.006528e+003,1.312277e+000
3.007492e+003,4.318054e-001
3.008457e+003,-2.406479e+000
3.009421e+003,-2.152557e+000
3.010385e+003,3.493896e-001
3.011349e+003,1.544876e+000
3.012314e+003,1.555310e+000
3.013278e+003,7.267853e-001
3.014242e+003,-4.981751e-001
3.015206e+003,-5.541412e-001
3.016171e+003,-5.796814e-002
3.017135e+003,-1.484497e-001
3.018099e+003,-1.561920e-001
3.019063e+003,1.117532e+000
3.020028e+003,2.305984e+000
3.020992e+003,2.325623e+000
3.021956e+003,1.597189e+000
3.022920e+003,3.621155e-001
3.023885e+003,-4.158539e-001
3.024849e+003,6.864990e-001
3.025813e+003,1.421262e+000
3.026777e+003,-1.483511e+000
3.027741e+003,-3.720727e+000
3.028706e+003,-2.651025e+000
3.029670e+003,-1.150818e+000
3.030634e+003,2.919586e-001
3.031598e+003,1.044687e+000
3.032563e+003,9.057312e-001
3.033527e+003,6.590607e-001
3.034491e+003,6.353943e-001
3.035455e+003,1.067291e-001
3.036420e+003,-1.475601e+000
3.037384e+003,-1.844543e+000
3.038348e+003,1.726501e-001
3.039312e+003,5.904602e-001
3.040277e+003,-6.323334e-001
3.041241e+003,-9.970215e-001
3.042205e+003,-5.080383e-001
3.043169e+003,-4.137421e-001
3.044134e+003,-5.689057e-001
3.045098e+003,3.289490e-001
3.046062e+003,1.936920e+000
3.047026e+003,2.188223e+000
3.047990e+003,1.313681e+000
3.048955e+003,5.273072e-001
3.049919e+003,-3.035461e-001
3.050883e+003,-2.204095e+000
3.051847e+003,-4.131171e+000
3.052812e+003,-4.414871e+000
3.053776e+003,-3.517371e+000
3.054740e+003,-1.190762e+000
3.055704e+003,7.387390e-001
3.056668e+003,6.342376e-001
3.057633e+003,-1.493500e-001
3.058597e+003,-1.824890e-001
3.059561e+003,9.011841e-002
3.060525e+003,2.648010e-001
3.061490e+003,1.950195e-001
3.062454e+003,-3.476959e-001
3.063418e+003,-9.633819e-001
3.064382e+003,-1.755804e+000
3.065347e+003,-1.814896e+000
3.066311e+003,-8.428284e-001
3.067275e+003,-6.370178e-001
3.068239e+003,-1.767487e+000
3.069204e+003,-2.958850e+000
3.070168e+003,-3.680286e+000
3.071132e+003,-3.499103e+000
3.072096e+003,-1.692978e+000
3.073061e+003,-6.285766e-001
3.074025e+003,-3.705292e-001
3.074989e+003,1.219666e-001
3.075953e+003,7.468231e-001
3.076917e+003,8.798126e-001
3.077882e+003,5.041260e-001
3.078846e+003,-4.277008e-001
3.079810e+003,-1.481436e+000
3.080774e+003,-1.547842e+000
3.081739e+003,-8.814972e-001
3.082703e+003,-7.338257e-002
3.083667e+003,5.193024e-001
3.084631e+003,-5.949677e-001
3.085595e+003,-2.351358e+000
3.086560e+003,-3.522546e+000
3.087524e+003,-3.814435e+000
3.088488e+003,-2.039792e+000
3.089452e+003,-6.812897e-001
3.090417e+003,-1.427997e+000
3.091381e+003,-2.743143e+000
3.092345e+003,-3.468838e+000
3.093309e+003,-3.510110e+000
3.094274e+003,-2.632855e+000
3.095238e+003,-1.596805e+000
3.096202e+003,-4.994629e-001
3.097166e+003,8.465576e-003
3.098131e+003,-2.433014e-001
3.099095e+003,-8.926880e-001
3.100059e+003,-1.801804e+000
3.101023e+003,-1.440506e+000
3.101988e+003,1.168793e-001
3.102952e+003,4.853943e-001
3.103916e+003,-8.424377e-001
3.104880e+003,-1.858343e+000
3.105844e+003,-2.266635e+000
3.106809e+003,-1.239996e+000
3.107773e+003,9.324524e-001
3.108737e+003,2.310150e-001
3.109701e+003,-1.906570e+000
3.110666e+003,-1.529361e+000
3.111630e+003,-8.328857e-002
3.112594e+003,-3.086243e-001
3.113558e+003,-1.435205e+000
3.114522e+003,-2.333362e+000
3.115487e+003,-2.645688e+000
3.116451e+003,-1.654129e+000
3.117415e+003,-5.120636e-001
3.118379e+003,-1.090671e+000
3.119344e+003,-1.988907e+000
3.120308e+003,-2.316989e+000
3.121272e+003,-2.442566e+000
3.122236e+003,-2.624274e+000
3.123201e+003,-1.985681e+000
3.124165e+003,-2.970062e-001
3.125129e+003,6.048492e-001
3.126093e+003,8.499146e-003
3.127058e+003,-9.508209e-001
3.128022e+003,-1.855515e+000
3.128986e+003,-2.429083e+000
3.129950e+003,-2.844412e+000
3.130915e+003,-1.673352e+000
3.131879e+003,8.042145e-001
3.132843e+003,1.356955e+000
3.133807e+003,3.976593e-001
3.134771e+003,-5.161988e-001
3.135736e+003,-1.096481e+000
3.136700e+003,-1.153503e+000
3.137664e+003,-9.470917e-001
3.138628e+003,-9.435150e-001
3.139593e+003,-1.172684e+000
3.140557e+003,-2.010126e+000
3.141521e+003,-2.714285e+000
3.142485e+003,-1.683063e+000
3.143449e+003,-5.967346e-001
3.144414e+003,-6.850311e-001
3.145378e+003,-1.455276e+000
3.146342e+003,-2.915204e+000
3.147306e+003,-3.410941e+000
3.148271e+003,-2.226968e+000
3.149235e+003,-1.020187e+000
3.150199e+003,-7.247772e-001
3.151163e+003,-4.215515e-001
3.152128e+003,9.488800e-001
3.153092e+003,2.477875e-001
3.154056e+003,-3.006629e+000
3.155020e+003,-3.015933e+000
3.155985e+003,-4.276794e-001
3.156949e+003,-2.406586e-001
3.157913e+003,-1.908319e+000
3.158877e+003,-2.349319e+000
3.159842e+003,-1.594626e+000
3.160806e+003,-1.095920e+000
3.161770e+003,-7.983948e-001
3.162734e+003,-4.598511e-001
3.163698e+003,-2.045624e-001
3.164663e+003,-4.989227e-001
3.165627e+003,-8.329620e-001
3.166591e+003,-7.241729e-001
3.167555e+003,-2.443359e-001
3.168520e+003,8.584625e-001
3.169484e+003,8.993103e-001
3.170448e+003,-9.022705e-001
3.171412e+003,-1.881781e+000
3.172376e+003,-4.846558e-001
3.173341e+003,7.128601e-001
3.174305e+003,4.303680e-001
3.175269e+003,-4.792663e-001
3.176233e+003,-2.082355e+000
3.177198e+003,-3.024661e+000
3.178162e+003,-3.269031e+000
3.179126e+003,-2.841339e+000
3.180090e+003,-2.089530e+000
3.181055e+003,-1.835962e+000
3.182019e+003,-2.054874e+000
3.182983e+003,-2.577316e+000
3.183947e+003,-2.770099e+000
3.184912e+003,-7.589051e-001
3.185876e+003,1.780173e+000
3.186840e+003,4.243744e-001
3.187804e+003,-1.718210e+000
3.188769e+003,-1.129745e+000
3.189733e+003,-2.559082e-001
3.190697e+003,-3.196655e-001
3.191661e+003,-1.314499e+000
3.192625e+003,-3.214658e+000
3.193590e+003,-4.229150e+000
3.194554e+003,-3.480286e+000
3.195518e+003,-2.898736e+000
3.196482e+003,-3.690466e+000
3.197447e+003,-3.210886e+000
3.198411e+003,-9.553711e-001
3.199375e+003,-1.160919e-001
3.200339e+003,-4.791901e-001
3.201303e+003,-1.797180e-001
3.202268e+003,6.167267e-001
3.203232e+003,1.077295e+000
3.204196e+003,1.202826e+000
3.205160e+003,1.319681e+000
3.206125e+003,1.276218e+000
3.207089e+003,7.160614e-001
3.208053e+003,2.479553e-002
3.209017e+003,-1.349976e-001
3.209982e+003,-1.171417e-001
3.210946e+003,-3.984589e-001
3.211910e+003,-1.310638e-001
3.212874e+003,1.190228e+000
3.213839e+003,1.860260e+000
3.214803e+003,1.312445e+000
3.215767e+003,-1.929352e-001
3.216731e+003,-2.343909e+000
3.217696e+003,-3.494171e+000
3.218660e+003,-2.994890e+000
3.219624e+003,-1.669055e+000
3.220588e+003,4.967102e-001
3.221552e+003,8.957764e-001
3.222517e+003,7.161255e-002
3.223481e+003,-4.814575e-001
3.224445e+003,-8.370178e-001
3.225409e+003,-1.575864e+000
3.226374e+003,-1.941083e+000
3.227338e+003,-1.021549e+000
3.228302e+003,3.565552e-001
3.229266e+003,1.249851e+000
3.230230e+003,1.792984e+000
3.231195e+003,2.246024e+000
3.232159e+003,2.263687e+000
3.233123e+003,1.409412e+000
3.234087e+003,4.615906e-001
3.235052e+003,-4.755463e-001
3.236016e+003,8.268128e-002
3.236980e+003,1.969604e+000
3.237944e+003,2.641351e+000
3.238909e+003,1.675729e+000
3.239873e+003,1.049689e+000
3.240837e+003,8.696747e-001
3.241801e+003,5.165771e-001
3.242766e+003,-5.205078e-002
3.243730e+003,-1.415477e+000
3.244694e+003,-2.743962e+000
3.245658e+003,-2.906361e+000
3.246623e+003,-2.296559e+000
3.247587e+003,-1.002148e+000
3.248551e+003,-3.709106e-001
3.249515e+003,-1.304460e+000
3.250479e+003,-1.281117e+000
3.251444e+003,1.846417e+000
3.252408e+003,4.307089e+000
3.253372e+003,3.474771e+000
3.254336e+003,2.823108e+000
3.255301e+003,2.564764e+000
3.256265e+003,2.546744e+000
3.257229e+003,2.740683e+000
3.258193e+003,3.441550e+000
3.259157e+003,4.099387e+000
3.260122e+003,2.721387e+000
3.261086e+003,7.308151e-001
3.262050e+003,1.541744e+000
3.263014e+003,3.618304e+000
3.263979e+003,3.415378e+000
3.264943e+003,2.504144e+000
3.265907e+003,2.850256e+000
3.266871e+003,3.127701e+000
3.267836e+003,2.253215e+000
3.268800e+003,2.291757e+000
3.269764e+003,3.821512e+000
3.270728e+003,4.308264e+000
3.271693e+003,2.957364e+000
3.272657e+003,1.408287e+000
3.273621e+003,1.946152e-001
3.274585e+003,8.336975e-001
3.275550e+003,3.444432e+000
3.276514e+003,4.018637e+000
3.277478e+003,3.258044e+000
3.278442e+003,3.004074e+000
3.279406e+003,2.918794e+000
3.280371e+003,2.030653e+000
3.281335e+003,1.320164e+000
3.282299e+003,1.682993e+000
3.283263e+003,2.460724e+000
3.284228e+003,3.054188e+000
3.285192e+003,3.680695e+000
3.286156e+003,4.656995e+000
3.287120e+003,5.418180e+000
3.288084e+003,5.627472e+000
3.289049e+003,6.738693e+000
3.290013e+003,8.609164e+000
3.290977e+003,8.410742e+000
3.291941e+003,6.544714e+000
3.292906e+003,5.655057e+000
3.293870e+003,5.759315e+000
3.294834e+003,5.224061e+000
3.295798e+003,4.550056e+000
3.296763e+003,5.385460e+000
3.297727e+003,6.562265e+000
3.298691e+003,5.973704e+000
3.299655e+003,5.124166e+000
3.300620e+003,4.966980e+000
3.301584e+003,5.137152e+000
3.302548e+003,5.544126e+000
3.303512e+003,6.106959e+000
3.304477e+003,6.789717e+000
3.305441e+003,7.647873e+000
3.306405e+003,8.683722e+000
3.307369e+003,8.127957e+000
3.308333e+003,5.823053e+000
3.309298e+003,6.650230e+000
3.310262e+003,9.258535e+000
3.311226e+003,9.570447e+000
3.312190e+003,8.775473e+000
3.313155e+003,8.785608e+000
3.314119e+003,8.722644e+000
3.315083e+003,7.675172e+000
3.316047e+003,7.244243e+000
3.317011e+003,8.837474e+000
3.317976e+003,1.021249e+001
3.318940e+003,9.338272e+000
3.319904e+003,8.767270e+000
3.320868e+003,9.150253e+000
3.321833e+003,8.268001e+000
3.322797e+003,6.547711e+000
3.323761e+003,8.134073e+000
3.324725e+003,1.158512e+001
3.325690e+003,1.163739e+001
3.326654e+003,9.502009e+000
3.327618e+003,9.059137e+000
3.328582e+003,9.513527e+000
3.329547e+003,9.413564e+000
3.330511e+003,9.284941e+000
3.331475e+003,1.012638e+001
3.332439e+003,1.032442e+001
3.333404e+003,8.750857e+000
3.334368e+003,8.666826e+000
3.335332e+003,1.056499e+001
3.336296e+003,1.113265e+001
3.337260e+003,9.814291e+000
3.338225e+003,9.409140e+000
3.339189e+003,1.037025e+001
3.340153e+003,1.028025e+001
3.341117e+003,9.439987e+000
3.342082e+003,9.454143e+000
3.343046e+003,9.903702e+000
3.344010e+003,1.030823e+001
3.344974e+003,1.064243e+001
3.345938e+003,1.084346e+001
3.346903e+003,1.113551e+001
3.347867e+003,1.161896e+001
3.348831e+003,1.257915e+001
3.349795e+003,1.420394e+001
3.350760e+003,1.436501e+001
3.351724e+003,1.138353e+001
3.352688e+003,1.079291e+001
3.353652e+003,1.232121e+001
3.354617e+003,1.331829e+001
3.355581e+003,1.365816e+001
3.356545e+003,1.287901e+001
3.357509e+003,1.224290e+001
3.358474e+003,1.368630e+001
3.359438e+003,1.467877e+001
3.360402e+003,1.266614e+001
3.361366e+003,1.086421e+001
3.362331e+003,1.298515e+001
3.363295e+003,1.446956e+001
3.364259e+003,1.323854e+001
3.365223e+003,1.239588e+001
3.366188e+003,1.218386e+001
3.367152e+003,1.247917e+001
3.368116e+003,1.299802e+001
3.369080e+003,1.319785e+001
3.370044e+003,1.291951e+001
3.371009e+003,1.194794e+001
3.371973e+003,1.127835e+001
3.372937e+003,1.322425e+001
3.373901e+003,1.570792e+001
3.374865e+003,1.651362e+001
3.375830e+003,1.630379e+001
3.376794e+003,1.492799e+001
3.377758e+003,1.475994e+001
3.378722e+003,1.606189e+001
3.379687e+003,1.622734e+001
3.380651e+003,1.508291e+001
3.381615e+003,1.558520e+001
3.382579e+003,1.770354e+001
3.383544e+003,1.831708e+001
3.384508e+003,1.780592e+001
3.385472e+003,1.723609e+001
3.386436e+003,1.675878e+001
3.387401e+003,1.639608e+001
3.388365e+003,1.646755e+001
3.389329e+003,1.716887e+001
3.390293e+003,1.773738e+001
3.391258e+003,1.788936e+001
3.392222e+003,1.802984e+001
3.393186e+003,1.834312e+001
3.394150e+003,1.935652e+001
3.395115e+003,2.111034e+001
3.396079e+003,2.128641e+001
3.397043e+003,2.046693e+001
3.398007e+003,2.015344e+001
3.398971e+003,2.046422e+001
3.399936e+003,2.200010e+001
3.400900e+003,2.319604e+001
3.401864e+003,2.311268e+001
3.402828e+003,2.250329e+001
3.403792e+003,2.187591e+001
3.404757e+003,2.153172e+001
3.405721e+003,2.178074e+001
3.406685e+003,2.171749e+001
3.407649e+003,2.130919e+001
3.408614e+003,2.216980e+001
3.409578e+003,2.368758e+001
3.410542e+003,2.399963e+001
3.411506e+003,2.369611e+001
3.412471e+003,2.382576e+001
3.413435e+003,2.439576e+001
3.414399e+003,2.547730e+001
3.415363e+003,2.624915e+001
3.416328e+003,2.559544e+001
3.417292e+003,2.514559e+001
3.418256e+003,2.536304e+001
3.419220e+003,2.626950e+001
3.420185e+003,2.775377e+001
3.421149e+003,2.950532e+001
3.422113e+003,3.062307e+001
3.423077e+003,2.763169e+001
3.424042e+003,2.403612e+001
3.425006e+003,2.657627e+001
3.425970e+003,3.080558e+001
3.426934e+003,2.944306e+001
