7.140112e+001,1.035447e+002
7.236536e+001,1.003766e+002
7.332959e+001,1.011809e+002
7.429382e+001,1.049708e+002
7.525806e+001,1.126926e+002
7.622229e+001,1.155545e+002
7.718652e+001,1.068845e+002
7.815076e+001,7.984963e+001
7.911499e+001,6.294454e+001
8.007922e+001,5.442730e+001
8.104346e+001,5.334890e+001
8.200769e+001,5.984328e+001
8.297192e+001,7.979348e+001
8.393616e+001,9.928557e+001
8.490039e+001,1.194402e+002
8.586462e+001,1.364977e+002
8.682886e+001,1.446001e+002
8.779310e+001,1.282953e+002
8.875733e+001,1.045367e+002
8.972157e+001,8.184691e+001
9.068580e+001,6.364944e+001
9.165003e+001,5.010859e+001
9.261427e+001,4.493674e+001
9.357850e+001,4.545592e+001
9.454273e+001,4.808284e+001
9.550697e+001,5.065652e+001
9.647120e+001,5.386129e+001
9.743543e+001,5.449995e+001
9.839967e+001,5.274390e+001
9.936390e+001,4.889010e+001
1.003281e+002,4.287439e+001
1.012924e+002,3.058154e+001
1.022566e+002,2.171921e+001
1.032208e+002,1.836377e+001
1.041851e+002,1.957716e+001
1.051493e+002,2.279089e+001
1.061135e+002,2.903597e+001
1.070778e+002,3.410938e+001
1.080420e+002,3.563472e+001
1.090062e+002,3.312844e+001
1.099705e+002,2.817756e+001
1.109347e+002,2.364128e+001
1.118989e+002,1.978998e+001
1.128632e+002,1.802262e+001
1.138274e+002,1.939227e+001
1.147916e+002,2.460026e+001
1.157559e+002,2.779291e+001
1.167201e+002,2.902748e+001
1.176843e+002,2.903563e+001
1.186486e+002,2.845560e+001
1.196128e+002,2.525194e+001
1.205770e+002,2.454392e+001
1.215413e+002,2.979498e+001
1.225055e+002,3.781802e+001
1.234697e+002,4.172428e+001
1.244340e+002,3.178884e+001
1.253982e+002,2.045190e+001
1.263624e+002,9.457850e+000
1.273267e+002,4.343750e-001
1.282909e+002,-4.575317e+000
1.292551e+002,3.708850e+000
1.302194e+002,1.659658e+001
1.311836e+002,2.693289e+001
1.321478e+002,3.009740e+001
1.331121e+002,2.580356e+001
1.340763e+002,2.013143e+001
1.350405e+002,1.272756e+001
1.360048e+002,6.191431e+000
1.369690e+002,3.333569e+000
1.379332e+002,6.778442e+000
1.388975e+002,1.057947e+001
1.398617e+002,1.599565e+001
1.408259e+002,2.125316e+001
1.417902e+002,2.355953e+001
1.427544e+002,1.958158e+001
1.437186e+002,1.457980e+001
1.446829e+002,8.858496e+000
1.456471e+002,3.136011e+000
1.466113e+002,-1.521130e+000
1.475756e+002,-4.102429e+000
1.485398e+002,-4.363660e+000
1.495040e+002,-5.296631e-002
1.504683e+002,9.036682e+000
1.514325e+002,2.096033e+001
1.523967e+002,2.374656e+001
1.533610e+002,1.954351e+001
1.543252e+002,1.375200e+001
1.552894e+002,1.020439e+001
1.562537e+002,9.980200e+000
1.572179e+002,8.698792e+000
1.581821e+002,4.246192e+000
1.591464e+002,2.031860e-001
1.601106e+002,9.657837e-001
1.610748e+002,1.297638e+001
1.620391e+002,2.010283e+001
1.630033e+002,1.613237e+001
1.639676e+002,5.886572e+000
1.649318e+002,-3.036389e+000
1.658960e+002,-1.914392e+000
1.668603e+002,1.746338e+000
1.678245e+002,3.279443e+000
1.687887e+002,2.254285e+000
1.697530e+002,-1.106689e-001
1.707172e+002,-8.885376e-001
1.716814e+002,-5.137573e-001
1.726457e+002,4.719116e-001
1.736099e+002,1.999121e+000
1.745741e+002,4.137280e+000
1.755384e+002,4.028430e+000
1.765026e+002,6.552734e-002
1.774668e+002,-3.663953e+000
1.784311e+002,-4.558814e+000
1.793953e+002,-1.026575e+000
1.803595e+002,5.582031e-001
1.813238e+002,-1.994190e+000
1.822880e+002,-5.726160e+000
1.832522e+002,-8.093847e+000
1.842165e+002,-6.804040e+000
1.851807e+002,-5.862109e+000
1.861449e+002,-9.422839e+000
1.871092e+002,-1.499926e+001
1.880734e+002,-1.921548e+001
1.890376e+002,-1.698949e+001
1.900019e+002,-1.038671e+001
1.909661e+002,-5.916455e+000
1.919303e+002,-4.012781e+000
1.928946e+002,-3.883081e+000
1.938588e+002,-3.094263e+000
1.948230e+002,-1.557056e+000
1.957873e+002,4.723633e-001
1.967515e+002,2.691125e+000
1.977157e+002,5.200586e+000
1.986800e+002,9.616943e+000
1.996442e+002,1.545505e+001
2.006084e+002,2.328414e+001
2.015727e+002,3.639850e+001
2.025369e+002,5.548445e+001
2.035011e+002,6.883348e+001
2.044654e+002,6.607538e+001
2.054296e+002,5.673959e+001
2.063938e+002,4.424302e+001
2.073581e+002,3.105485e+001
2.083223e+002,1.973779e+001
2.092865e+002,1.528711e+001
2.102508e+002,1.630460e+001
2.112150e+002,2.234248e+001
2.121792e+002,3.315850e+001
2.131435e+002,5.085500e+001
2.141077e+002,5.919847e+001
2.150719e+002,5.446676e+001
2.160362e+002,4.391488e+001
2.170004e+002,3.820501e+001
2.179646e+002,4.087914e+001
2.189289e+002,4.445789e+001
2.198931e+002,4.745463e+001
2.208573e+002,5.072449e+001
2.218216e+002,5.633390e+001
2.227858e+002,6.948254e+001
2.237500e+002,8.123403e+001
2.247143e+002,9.008293e+001
2.256785e+002,9.466626e+001
2.266427e+002,9.325996e+001
2.276070e+002,7.733700e+001
2.285712e+002,5.473076e+001
2.295354e+002,3.539380e+001
2.304997e+002,2.228942e+001
2.314639e+002,1.471450e+001
2.324281e+002,8.618139e+000
2.333924e+002,3.987988e+000
2.343566e+002,3.683472e-001
2.353208e+002,-2.140149e+000
2.362851e+002,-3.334924e+000
2.372493e+002,-4.752283e+000
2.382135e+002,-6.937048e+000
2.391778e+002,-8.982946e+000
2.401420e+002,-1.051086e+001
2.411062e+002,-1.139937e+001
2.420705e+002,-1.164470e+001
2.430347e+002,-1.089133e+001
2.439989e+002,-9.952845e+000
2.449632e+002,-9.427002e+000
2.459274e+002,-9.762622e+000
2.468916e+002,-1.061412e+001
2.478559e+002,-1.097131e+001
2.488201e+002,-1.110873e+001
2.497843e+002,-1.173960e+001
2.507486e+002,-1.372989e+001
2.517128e+002,-1.754383e+001
2.526770e+002,-1.935367e+001
2.536413e+002,-1.915331e+001
2.546055e+002,-1.739030e+001
2.555697e+002,-1.459801e+001
2.565340e+002,-9.136792e+000
2.574982e+002,-4.893652e+000
2.584625e+002,-1.892895e+000
2.594267e+002,-1.028564e-001
2.603909e+002,4.560059e-001
2.613552e+002,-1.370447e+000
2.623194e+002,-3.591125e+000
2.632836e+002,-5.366345e+000
2.642479e+002,-6.673279e+000
2.652121e+002,-7.771936e+000
2.661763e+002,-9.087830e+000
2.671406e+002,-1.038849e+001
2.681048e+002,-1.139746e+001
2.690690e+002,-1.205001e+001
2.700333e+002,-1.234717e+001
2.709975e+002,-1.217077e+001
2.719617e+002,-1.135868e+001
2.729260e+002,-1.050297e+001
2.738902e+002,-9.425476e+000
2.748544e+002,-8.148242e+000
2.758187e+002,-7.945776e+000
2.767829e+002,-1.008680e+001
2.777471e+002,-1.218080e+001
2.787114e+002,-1.332611e+001
2.796756e+002,-1.336475e+001
2.806398e+002,-1.348425e+001
2.816041e+002,-1.575592e+001
2.825683e+002,-1.770688e+001
2.835325e+002,-1.737415e+001
2.844968e+002,-1.414058e+001
2.854610e+002,-9.899035e+000
2.864252e+002,-9.787390e+000
2.873895e+002,-1.190479e+001
2.883537e+002,-1.347830e+001
2.893179e+002,-1.272417e+001
2.902822e+002,-9.407129e+000
2.912464e+002,-8.025928e+000
2.922106e+002,-8.439392e+000
2.931749e+002,-9.998999e+000
2.941391e+002,-1.291973e+001
2.951033e+002,-1.842919e+001
2.960676e+002,-2.132950e+001
2.970318e+002,-2.030214e+001
2.979960e+002,-1.783205e+001
2.989603e+002,-1.553928e+001
2.999245e+002,-1.419907e+001
3.008887e+002,-1.287172e+001
3.018530e+002,-1.031833e+001
3.028172e+002,-7.610913e+000
3.037814e+002,-5.965759e+000
3.047457e+002,-6.455908e+000
3.057099e+002,-8.107923e+000
3.066741e+002,-7.228869e+000
3.076384e+002,-4.530798e+000
3.086026e+002,-2.674561e+000
3.095668e+002,-4.759997e+000
3.105311e+002,-1.285710e+001
3.114953e+002,-1.717249e+001
3.124595e+002,-1.601345e+001
3.134238e+002,-1.269395e+001
3.143880e+002,-1.109318e+001
3.153522e+002,-1.267769e+001
3.163165e+002,-1.395937e+001
3.172807e+002,-1.449448e+001
3.182449e+002,-1.423739e+001
3.192092e+002,-1.308323e+001
3.201734e+002,-1.061371e+001
3.211376e+002,-8.071002e+000
3.221019e+002,-6.390686e+000
3.230661e+002,-5.280383e+000
3.240303e+002,-4.170618e+000
3.249946e+002,-2.274988e+000
3.259588e+002,-1.322998e-001
3.269230e+002,-1.820679e-001
3.278873e+002,-2.523413e+000
3.288515e+002,-5.665601e+000
3.298157e+002,-6.968298e+000
3.307800e+002,-4.962024e+000
3.317442e+002,-3.031287e+000
3.327084e+002,-1.622119e+000
3.336727e+002,-3.069580e-001
3.346369e+002,1.921960e+000
3.356011e+002,7.320129e+000
3.365654e+002,1.060215e+001
3.375296e+002,9.355078e+000
3.384938e+002,5.562573e+000
3.394581e+002,2.198755e+000
3.404223e+002,1.563611e+000
3.413865e+002,2.854126e+000
3.423508e+002,5.131262e+000
3.433150e+002,8.366419e+000
3.442792e+002,1.268380e+001
3.452435e+002,1.843332e+001
3.462077e+002,2.567499e+001
3.471719e+002,3.216376e+001
3.481362e+002,3.705101e+001
3.491004e+002,4.215576e+001
3.500646e+002,5.155692e+001
3.510289e+002,6.486192e+001
3.519931e+002,8.520493e+001
3.529573e+002,1.139067e+002
3.539216e+002,1.491698e+002
3.548858e+002,1.898600e+002
3.558500e+002,2.506951e+002
3.568143e+002,2.941608e+002
3.577785e+002,3.071508e+002
3.587427e+002,2.947034e+002
3.597070e+002,2.654382e+002
3.606712e+002,2.210571e+002
3.616354e+002,1.721020e+002
3.625997e+002,1.309050e+002
3.635639e+002,9.842824e+001
3.645281e+002,7.419028e+001
3.654924e+002,5.720398e+001
3.664566e+002,4.970082e+001
3.674208e+002,4.229249e+001
3.683851e+002,3.460543e+001
3.693493e+002,2.707744e+001
3.703135e+002,2.072881e+001
3.712778e+002,1.626235e+001
3.722420e+002,1.266511e+001
3.732062e+002,9.674609e+000
3.741705e+002,7.473218e+000
3.751347e+002,6.550696e+000
3.760989e+002,8.211963e+000
3.770632e+002,9.672119e+000
3.780274e+002,9.134521e+000
3.789916e+002,7.270434e+000
3.799559e+002,5.262048e+000
3.809201e+002,4.447156e+000
3.818844e+002,4.543799e+000
3.828486e+002,4.293078e+000
3.838128e+002,3.724219e+000
3.847771e+002,3.134033e+000
3.857413e+002,2.970947e+000
3.867055e+002,3.546179e+000
3.876698e+002,3.829150e+000
3.886340e+002,2.566186e+000
3.895982e+002,1.430432e+000
3.905625e+002,3.071387e+000
3.915267e+002,1.027656e+001
3.924909e+002,1.579228e+001
3.934552e+002,1.876376e+001
3.944194e+002,1.954591e+001
3.953836e+002,1.797482e+001
3.963479e+002,1.282510e+001
3.973121e+002,8.226624e+000
3.982763e+002,8.519092e+000
3.992406e+002,1.156088e+001
4.002048e+002,1.443125e+001
4.011690e+002,1.430481e+001
4.021333e+002,1.158439e+001
4.030975e+002,1.035453e+001
4.040617e+002,1.058887e+001
4.050260e+002,1.165735e+001
4.059902e+002,1.285548e+001
4.069544e+002,1.378540e+001
4.079187e+002,1.621251e+001
4.088829e+002,1.997373e+001
4.098471e+002,2.481524e+001
4.108114e+002,3.072326e+001
4.117756e+002,3.790678e+001
4.127398e+002,4.548746e+001
4.137041e+002,5.497432e+001
4.146683e+002,6.354498e+001
4.156325e+002,6.921886e+001
4.165968e+002,7.093208e+001
4.175610e+002,6.912919e+001
4.185252e+002,6.302898e+001
4.194895e+002,5.506557e+001
4.204537e+002,4.809827e+001
4.214179e+002,4.394469e+001
4.223822e+002,4.249123e+001
4.233464e+002,4.171423e+001
4.243106e+002,4.115742e+001
4.252749e+002,4.143359e+001
4.262391e+002,4.243008e+001
4.272033e+002,4.404836e+001
4.281676e+002,4.886265e+001
4.291318e+002,5.781313e+001
4.300960e+002,6.884865e+001
4.310603e+002,8.030346e+001
4.320245e+002,9.227808e+001
4.329887e+002,1.081994e+002
4.339530e+002,1.350752e+002
4.349172e+002,1.645268e+002
4.358814e+002,1.959264e+002
4.368457e+002,2.269036e+002
4.378099e+002,2.533535e+002
4.387741e+002,2.663245e+002
4.397384e+002,2.670085e+002
4.407026e+002,2.576656e+002
4.416668e+002,2.377273e+002
4.426311e+002,2.106333e+002
4.435953e+002,1.879541e+002
4.445595e+002,1.728235e+002
4.455238e+002,1.587928e+002
4.464880e+002,1.445154e+002
4.474522e+002,1.312746e+002
4.484165e+002,1.225201e+002
4.493807e+002,1.240070e+002
4.503449e+002,1.239452e+002
4.513092e+002,1.188126e+002
4.522734e+002,1.098031e+002
4.532376e+002,9.855891e+001
4.542019e+002,8.545934e+001
4.551661e+002,7.296654e+001
4.561303e+002,6.419987e+001
4.570946e+002,5.834591e+001
4.580588e+002,5.342945e+001
4.590230e+002,4.723171e+001
4.599873e+002,3.975055e+001
4.609515e+002,3.563740e+001
4.619157e+002,3.519363e+001
4.628800e+002,3.644088e+001
4.638442e+002,3.774103e+001
4.648084e+002,3.901941e+001
4.657727e+002,4.063027e+001
4.667369e+002,4.259029e+001
4.677011e+002,4.495547e+001
4.686654e+002,4.819456e+001
4.696296e+002,5.248680e+001
4.705938e+002,5.564860e+001
4.715581e+002,5.583025e+001
4.725223e+002,5.444811e+001
4.734865e+002,5.221060e+001
4.744508e+002,4.948485e+001
4.754150e+002,4.620664e+001
4.763792e+002,4.147145e+001
4.773435e+002,3.589587e+001
4.783077e+002,3.137640e+001
4.792719e+002,2.864393e+001
4.802362e+002,2.739202e+001
4.812004e+002,2.579630e+001
4.821646e+002,2.376772e+001
4.831289e+002,2.131998e+001
4.840931e+002,1.746240e+001
4.850573e+002,1.303021e+001
4.860216e+002,1.041923e+001
4.869858e+002,1.244541e+001
4.879500e+002,1.423558e+001
4.889143e+002,1.405186e+001
4.898785e+002,1.255591e+001
4.908427e+002,1.092416e+001
4.918070e+002,1.003512e+001
4.927712e+002,9.616504e+000
4.937354e+002,9.058783e+000
4.946997e+002,8.493774e+000
4.956639e+002,8.235181e+000
4.966281e+002,8.608935e+000
4.975924e+002,9.695544e+000
4.985566e+002,1.045212e+001
4.995208e+002,1.035824e+001
5.004851e+002,1.067288e+001
5.014493e+002,1.228450e+001
5.024135e+002,1.532524e+001
5.033778e+002,1.927828e+001
5.043420e+002,2.543651e+001
5.053063e+002,3.131666e+001
5.062705e+002,3.639079e+001
5.072347e+002,4.021695e+001
5.081990e+002,4.134830e+001
5.091632e+002,3.574311e+001
5.101274e+002,2.833114e+001
5.110917e+002,2.129487e+001
5.120559e+002,1.549997e+001
5.130201e+002,1.106489e+001
5.139844e+002,8.492859e+000
5.149486e+002,7.611615e+000
5.159128e+002,6.415845e+000
5.168771e+002,4.764612e+000
5.178413e+002,2.643756e+000
5.188055e+002,-1.023621e-001
5.197698e+002,-4.889819e+000
5.207340e+002,-8.009674e+000
5.216982e+002,-8.333631e+000
5.226625e+002,-7.633624e+000
5.236267e+002,-8.052411e+000
5.245909e+002,-1.079881e+001
5.255552e+002,-1.294136e+001
5.265194e+002,-1.282554e+001
5.274836e+002,-1.166778e+001
5.284479e+002,-1.015030e+001
5.294121e+002,-8.707868e+000
5.303763e+002,-7.774707e+000
5.313406e+002,-9.319860e+000
5.323048e+002,-1.220100e+001
5.332690e+002,-1.402279e+001
5.342333e+002,-1.356155e+001
5.351975e+002,-1.118394e+001
5.361617e+002,-9.965693e+000
5.371260e+002,-1.071189e+001
5.380902e+002,-1.125643e+001
5.390544e+002,-1.142734e+001
5.400187e+002,-1.122684e+001
5.409829e+002,-1.045906e+001
5.419471e+002,-7.793134e+000
5.429114e+002,-6.093646e+000
5.438756e+002,-6.538629e+000
5.448398e+002,-8.363403e+000
5.458041e+002,-1.059359e+001
5.467683e+002,-1.284453e+001
5.477325e+002,-1.418811e+001
5.486968e+002,-1.297615e+001
5.496610e+002,-1.027357e+001
5.506252e+002,-8.144177e+000
5.515895e+002,-8.292926e+000
5.525537e+002,-1.068759e+001
5.535179e+002,-1.206678e+001
5.544822e+002,-1.235527e+001
5.554464e+002,-1.228163e+001
5.564106e+002,-1.224275e+001
5.573749e+002,-1.228071e+001
5.583391e+002,-1.203453e+001
5.593033e+002,-1.071996e+001
5.602676e+002,-9.794171e+000
5.612318e+002,-9.799353e+000
5.621960e+002,-1.058046e+001
5.631603e+002,-1.156515e+001
5.641245e+002,-1.255091e+001
5.650887e+002,-1.328050e+001
5.660530e+002,-1.352543e+001
5.670172e+002,-1.339204e+001
5.679814e+002,-1.311740e+001
5.689457e+002,-1.295865e+001
5.699099e+002,-1.290960e+001
5.708741e+002,-1.258113e+001
5.718384e+002,-1.183025e+001
5.728026e+002,-1.129731e+001
5.737668e+002,-1.165960e+001
5.747311e+002,-1.320695e+001
5.756953e+002,-1.433277e+001
5.766595e+002,-1.534415e+001
5.776238e+002,-1.568611e+001
5.785880e+002,-1.459619e+001
5.795522e+002,-1.232580e+001
5.805165e+002,-1.059521e+001
5.814807e+002,-1.086396e+001
5.824449e+002,-1.179611e+001
5.834092e+002,-1.311401e+001
5.843734e+002,-1.454161e+001
5.853376e+002,-1.570431e+001
5.863019e+002,-1.611697e+001
5.872661e+002,-1.585480e+001
5.882303e+002,-1.573851e+001
5.891946e+002,-1.576351e+001
5.901588e+002,-1.574901e+001
5.911230e+002,-1.546047e+001
5.920873e+002,-1.471971e+001
5.930515e+002,-1.453822e+001
5.940157e+002,-1.527603e+001
5.949800e+002,-1.596916e+001
5.959442e+002,-1.613043e+001
5.969084e+002,-1.574385e+001
5.978727e+002,-1.527328e+001
5.988369e+002,-1.508564e+001
5.998011e+002,-1.473710e+001
6.007654e+002,-1.369014e+001
6.017296e+002,-1.225557e+001
6.026938e+002,-1.137082e+001
6.036581e+002,-1.237501e+001
6.046223e+002,-1.436730e+001
6.055865e+002,-1.424133e+001
6.065508e+002,-1.213306e+001
6.075150e+002,-1.009402e+001
6.084792e+002,-1.049048e+001
6.094435e+002,-1.418974e+001
6.104077e+002,-1.571348e+001
6.113719e+002,-1.394940e+001
6.123362e+002,-1.199291e+001
6.133004e+002,-1.171216e+001
6.142646e+002,-1.313156e+001
6.152289e+002,-1.373367e+001
6.161931e+002,-1.130746e+001
6.171573e+002,-8.920868e+000
6.181216e+002,-7.542853e+000
6.190858e+002,-7.110840e+000
6.200500e+002,-7.185736e+000
6.210143e+002,-7.684918e+000
6.219785e+002,-8.001074e+000
6.229427e+002,-6.813525e+000
6.239070e+002,-4.420563e+000
6.248712e+002,-2.008368e+000
6.258354e+002,-7.049195e-001
6.267997e+002,-5.687561e-001
6.277639e+002,-1.086060e-001
6.287281e+002,7.867432e-001
6.296924e+002,1.546118e+000
6.306566e+002,1.808521e+000
6.316208e+002,1.631067e+000
6.325851e+002,1.664587e+000
6.335493e+002,2.636310e+000
6.345135e+002,3.461548e+000
6.354778e+002,3.712207e+000
6.364420e+002,3.523358e+000
6.374063e+002,3.321405e+000
6.383705e+002,3.550848e+000
6.393347e+002,3.601672e+000
6.402990e+002,2.164038e+000
6.412632e+002,-1.061951e-001
6.422274e+002,-1.561798e+000
6.431917e+002,-9.376892e-001
6.441559e+002,1.589044e+000
6.451201e+002,1.886298e+000
6.460844e+002,-1.240442e+000
6.470486e+002,-3.845233e+000
6.480128e+002,-4.171002e+000
6.489771e+002,-2.861981e+000
6.499413e+002,-2.767450e+000
6.509055e+002,-5.727808e+000
6.518698e+002,-8.288770e+000
6.528340e+002,-9.687830e+000
6.537982e+002,-1.010333e+001
6.547625e+002,-9.597577e+000
6.557267e+002,-8.048254e+000
6.566909e+002,-6.638068e+000
6.576552e+002,-7.659332e+000
6.586194e+002,-9.825317e+000
6.595836e+002,-1.122253e+001
6.605479e+002,-1.087991e+001
6.615121e+002,-9.115137e+000
6.624763e+002,-7.338037e+000
6.634406e+002,-5.379889e+000
6.644048e+002,-3.892273e+000
6.653690e+002,-2.886255e+000
6.663333e+002,-2.546710e+000
6.672975e+002,-3.323968e+000
6.682617e+002,-6.016925e+000
6.692260e+002,-7.943213e+000
6.701902e+002,-8.418347e+000
6.711544e+002,-8.112262e+000
6.721187e+002,-7.333032e+000
6.730829e+002,-6.284350e+000
6.740471e+002,-5.463556e+000
6.750114e+002,-5.917432e+000
6.759756e+002,-6.738233e+000
6.769398e+002,-7.114587e+000
6.779041e+002,-6.843774e+000
6.788683e+002,-6.001386e+000
6.798325e+002,-4.667621e+000
6.807968e+002,-2.514502e+000
6.817610e+002,-1.397894e+000
6.827252e+002,-1.858392e+000
6.836895e+002,-2.833765e+000
6.846537e+002,-3.467395e+000
6.856179e+002,-3.733386e+000
6.865822e+002,-3.920361e+000
6.875464e+002,-4.055341e+000
6.885106e+002,-4.148322e+000
6.894749e+002,-4.199713e+000
6.904391e+002,-4.201032e+000
6.914034e+002,-4.231458e+000
6.923676e+002,-4.712128e+000
6.933318e+002,-4.657562e+000
6.942961e+002,-2.132404e+000
6.952603e+002,2.097424e+000
6.962245e+002,5.475366e+000
6.971888e+002,5.598670e+000
6.981530e+002,2.356513e+000
6.991172e+002,9.188477e-001
7.000815e+002,1.658307e+000
7.010457e+002,2.790228e+000
7.020099e+002,3.855603e+000
7.029742e+002,4.912463e+000
7.039384e+002,6.122107e+000
7.049026e+002,8.107061e+000
7.058669e+002,9.239080e+000
7.068311e+002,8.316504e+000
7.077953e+002,6.627533e+000
7.087596e+002,5.774231e+000
7.097238e+002,6.648834e+000
7.106880e+002,8.398687e+000
7.116523e+002,9.879016e+000
7.126165e+002,1.106418e+001
7.135807e+002,1.214485e+001
7.145450e+002,1.318599e+001
7.155092e+002,1.374806e+001
7.164734e+002,1.251935e+001
7.174377e+002,7.898120e+000
7.184019e+002,4.951587e+000
7.193661e+002,4.555115e+000
7.203304e+002,5.135175e+000
7.212946e+002,5.132043e+000
7.222589e+002,4.366418e+000
7.232231e+002,3.519739e+000
7.241873e+002,2.725653e+000
7.251516e+002,1.983582e+000
7.261158e+002,1.145978e+000
7.270800e+002,2.682251e-001
7.280443e+002,-3.692322e-001
7.290085e+002,-3.146606e-001
7.299727e+002,1.284241e-001
7.309370e+002,2.044617e-001
7.319012e+002,-3.764648e-002
7.328654e+002,-2.220215e-001
7.338297e+002,5.044556e-002
7.347939e+002,8.367187e-001
7.357581e+002,3.772400e-001
7.367224e+002,-3.007623e+000
7.376866e+002,-5.319550e+000
7.386508e+002,-5.015961e+000
7.396151e+002,-2.849109e+000
7.405793e+002,-8.622620e-001
7.415435e+002,5.555542e-001
7.425078e+002,1.503790e+000
7.434720e+002,1.986530e+000
7.444362e+002,2.060602e+000
7.454005e+002,1.521472e+000
7.463647e+002,3.748474e-001
7.473289e+002,-6.622192e-001
7.482932e+002,3.634399e-001
7.492574e+002,2.620490e+000
7.502216e+002,3.857489e+000
7.511859e+002,3.466705e+000
7.521501e+002,2.224194e+000
7.531143e+002,1.625897e+000
7.540786e+002,2.274542e+000
7.550428e+002,2.232434e+000
7.560070e+002,3.843933e-001
7.569713e+002,-9.879578e-001
7.579355e+002,-7.542725e-002
7.588997e+002,3.013885e+000
7.598640e+002,5.679248e+000
7.608282e+002,6.352655e+000
7.617924e+002,6.372724e+000
7.627567e+002,5.916174e+000
7.637209e+002,5.405505e+000
7.646851e+002,5.463092e+000
7.656494e+002,6.599133e+000
7.666136e+002,8.542310e+000
7.675778e+002,1.061607e+001
7.685421e+002,1.281220e+001
7.695063e+002,1.396272e+001
7.704705e+002,1.330984e+001
7.714348e+002,1.128366e+001
7.723990e+002,9.584009e+000
7.733632e+002,8.242145e+000
7.743275e+002,7.177881e+000
7.752917e+002,6.088305e+000
7.762559e+002,5.496979e+000
7.772202e+002,6.136151e+000
7.781844e+002,8.179889e+000
7.791486e+002,1.019913e+001
7.801129e+002,1.080292e+001
7.810771e+002,1.091067e+001
7.820413e+002,1.079166e+001
7.830056e+002,1.073480e+001
7.839698e+002,1.132703e+001
7.849340e+002,1.331683e+001
7.858983e+002,1.654976e+001
7.868625e+002,1.767118e+001
7.878267e+002,1.614018e+001
7.887910e+002,1.476266e+001
7.897552e+002,1.535023e+001
7.907194e+002,1.763538e+001
7.916837e+002,1.924134e+001
7.926479e+002,1.952106e+001
7.936121e+002,1.954737e+001
7.945764e+002,1.907946e+001
7.955406e+002,1.866138e+001
7.965048e+002,1.884457e+001
7.974691e+002,1.989147e+001
7.984333e+002,2.172437e+001
7.993975e+002,2.504675e+001
8.003618e+002,2.861277e+001
8.013260e+002,3.081622e+001
8.022902e+002,3.147061e+001
8.032545e+002,3.164219e+001
8.042187e+002,3.294524e+001
8.051829e+002,3.560140e+001
8.061472e+002,3.866688e+001
8.071114e+002,4.280692e+001
8.080756e+002,4.642516e+001
8.090399e+002,4.830365e+001
8.100041e+002,4.879860e+001
8.109683e+002,5.016038e+001
8.119326e+002,5.304246e+001
8.128968e+002,5.689072e+001
8.138610e+002,6.147869e+001
8.148253e+002,6.681424e+001
8.157895e+002,7.317585e+001
8.167537e+002,8.067884e+001
8.177180e+002,8.839550e+001
8.186822e+002,9.451762e+001
8.196464e+002,9.960342e+001
8.206107e+002,1.050860e+002
8.215749e+002,1.113198e+002
8.225391e+002,1.169666e+002
8.235034e+002,1.199582e+002
8.244676e+002,1.199377e+002
8.254318e+002,1.177647e+002
8.263961e+002,1.122684e+002
8.273603e+002,1.069320e+002
8.283245e+002,1.035949e+002
8.292888e+002,1.017542e+002
8.302530e+002,9.929558e+001
8.312172e+002,9.526115e+001
8.321815e+002,9.028566e+001
8.331457e+002,8.426974e+001
8.341099e+002,7.817226e+001
8.350742e+002,7.313847e+001
8.360384e+002,6.972531e+001
8.370026e+002,6.747965e+001
8.379669e+002,6.548251e+001
8.389311e+002,6.371106e+001
8.398953e+002,6.165348e+001
8.408596e+002,5.946962e+001
8.418238e+002,5.671493e+001
8.427880e+002,5.235129e+001
8.437523e+002,4.565584e+001
8.447165e+002,4.125403e+001
8.456807e+002,4.241896e+001
8.466450e+002,4.295253e+001
8.476092e+002,3.963997e+001
8.485734e+002,3.402739e+001
8.495377e+002,2.991384e+001
8.505019e+002,2.975429e+001
8.514661e+002,3.115827e+001
8.524304e+002,3.083335e+001
8.533946e+002,2.966170e+001
8.543588e+002,2.907415e+001
8.553231e+002,2.959050e+001
8.562873e+002,3.050532e+001
8.572515e+002,3.022082e+001
8.582158e+002,2.799219e+001
8.591800e+002,2.689395e+001
8.601442e+002,2.776096e+001
8.611085e+002,2.870864e+001
8.620727e+002,2.847913e+001
8.630369e+002,2.717502e+001
8.640012e+002,2.595100e+001
8.649654e+002,2.489393e+001
8.659296e+002,2.431146e+001
8.668939e+002,2.439105e+001
8.678581e+002,2.498009e+001
8.688223e+002,2.617674e+001
8.697866e+002,2.792461e+001
8.707508e+002,2.943422e+001
8.717150e+002,2.846124e+001
8.726793e+002,2.567692e+001
8.736435e+002,2.460908e+001
8.746077e+002,2.624348e+001
8.755720e+002,2.842039e+001
8.765362e+002,2.802244e+001
8.775004e+002,2.410984e+001
8.784647e+002,2.178206e+001
8.794289e+002,2.212855e+001
8.803931e+002,2.271212e+001
8.813574e+002,2.350556e+001
8.823216e+002,2.383384e+001
8.832858e+002,2.227622e+001
8.842501e+002,1.773580e+001
8.852143e+002,1.316799e+001
8.861785e+002,1.170009e+001
8.871428e+002,1.176743e+001
8.881070e+002,1.190841e+001
8.890712e+002,1.160270e+001
8.900355e+002,1.091653e+001
8.909997e+002,9.931768e+000
8.919639e+002,8.573993e+000
8.929282e+002,7.851807e+000
8.938924e+002,8.191589e+000
8.948566e+002,8.483777e+000
8.958209e+002,8.127985e+000
8.967851e+002,7.266589e+000
8.977493e+002,6.517212e+000
8.987136e+002,6.208930e+000
8.996778e+002,5.523010e+000
9.006420e+002,3.704309e+000
9.016063e+002,1.762817e+000
9.025705e+002,7.666260e-001
9.035347e+002,9.470276e-001
9.044990e+002,1.519873e+000
9.054632e+002,1.438495e+000
9.064274e+002,8.162292e-001
9.073917e+002,6.262024e-001
9.083559e+002,9.533264e-001
9.093201e+002,1.057324e+000
9.102844e+002,2.613098e-001
9.112486e+002,-1.389307e+000
9.122128e+002,-2.827008e+000
9.131771e+002,-4.033752e+000
9.141413e+002,-4.986957e+000
9.151055e+002,-5.308703e+000
9.160698e+002,-5.596161e+000
9.170340e+002,-6.803864e+000
9.179982e+002,-9.078204e+000
9.189625e+002,-1.073814e+001
9.199267e+002,-9.777990e+000
9.208909e+002,-7.930640e+000
9.218552e+002,-6.571082e+000
9.228194e+002,-5.842145e+000
9.237836e+002,-5.816949e+000
9.247479e+002,-6.574744e+000
9.257121e+002,-7.846277e+000
9.266763e+002,-7.973096e+000
9.276406e+002,-5.765796e+000
9.286048e+002,-5.172107e+000
9.295690e+002,-7.887390e+000
9.305333e+002,-1.153484e+001
9.314975e+002,-1.338852e+001
9.324617e+002,-1.310129e+001
9.334260e+002,-1.261657e+001
9.343902e+002,-1.319449e+001
9.353545e+002,-1.330880e+001
9.363187e+002,-1.166949e+001
9.372830e+002,-9.161377e+000
9.382472e+002,-7.428351e+000
9.392114e+002,-7.462934e+000
9.401757e+002,-8.536652e+000
9.411399e+002,-9.260614e+000
9.421041e+002,-9.679895e+000
9.430684e+002,-9.474060e+000
9.440326e+002,-8.374365e+000
9.449968e+002,-7.176202e+000
9.459611e+002,-6.875775e+000
9.469253e+002,-7.548266e+000
9.478895e+002,-8.143292e+000
9.488538e+002,-8.860809e+000
9.498180e+002,-9.253180e+000
9.507822e+002,-8.930939e+000
9.517465e+002,-8.341589e+000
9.527107e+002,-8.250061e+000
9.536749e+002,-8.961634e+000
9.546392e+002,-9.525983e+000
9.556034e+002,-8.567584e+000
9.565676e+002,-6.881330e+000
9.575319e+002,-5.098407e+000
9.584961e+002,-3.387470e+000
9.594603e+002,-2.263562e+000
9.604246e+002,-2.397998e+000
9.613888e+002,-3.832599e+000
9.623530e+002,-4.316064e+000
9.633173e+002,-4.282697e+000
9.642815e+002,-2.749042e+000
9.652457e+002,7.926880e-001
9.662100e+002,5.822980e+000
9.671742e+002,1.152786e+001
9.681384e+002,1.768510e+001
9.691027e+002,2.524114e+001
9.700669e+002,3.501983e+001
9.710311e+002,4.643098e+001
9.719954e+002,6.271135e+001
9.729596e+002,8.025558e+001
9.739238e+002,9.144056e+001
9.748881e+002,9.111659e+001
9.758523e+002,8.165491e+001
9.768165e+002,7.014540e+001
9.777808e+002,5.584542e+001
9.787450e+002,4.385672e+001
9.797092e+002,3.528745e+001
9.806735e+002,2.874288e+001
9.816377e+002,2.278132e+001
9.826019e+002,1.739397e+001
9.835662e+002,1.402832e+001
9.845304e+002,1.507331e+001
9.854946e+002,1.599216e+001
9.864589e+002,1.484988e+001
9.874231e+002,1.289034e+001
9.883873e+002,1.161530e+001
9.893516e+002,1.160001e+001
9.903158e+002,1.244636e+001
9.912800e+002,1.385659e+001
9.922443e+002,1.584151e+001
9.932085e+002,1.752056e+001
9.941727e+002,1.875270e+001
9.951370e+002,2.125669e+001
9.961012e+002,2.588883e+001
9.970654e+002,3.255851e+001
9.980297e+002,4.163348e+001
9.989939e+002,5.144816e+001
9.999581e+002,6.752950e+001
1.000922e+003,8.401192e+001
1.001887e+003,1.115493e+002
1.002851e+003,1.644204e+002
1.003815e+003,2.385238e+002
1.004779e+003,3.146016e+002
1.005744e+003,3.887387e+002
1.006708e+003,4.387508e+002
1.007672e+003,4.290009e+002
1.008636e+003,3.761852e+002
1.009600e+003,3.122502e+002
1.010565e+003,2.504541e+002
1.011529e+003,1.934415e+002
1.012493e+003,1.476044e+002
1.013457e+003,1.152402e+002
1.014422e+003,8.909407e+001
1.015386e+003,6.910559e+001
1.016350e+003,5.355590e+001
1.017314e+003,4.271449e+001
1.018279e+003,3.547370e+001
1.019243e+003,3.036277e+001
1.020207e+003,2.730335e+001
1.021171e+003,2.472766e+001
1.022135e+003,2.132621e+001
1.023100e+003,1.780497e+001
1.024064e+003,1.456994e+001
1.025028e+003,1.172477e+001
1.025992e+003,9.465131e+000
1.026957e+003,7.987775e+000
1.027921e+003,7.215607e+000
1.028885e+003,6.316351e+000
1.029849e+003,5.154407e+000
1.030814e+003,4.180829e+000
1.031778e+003,3.447650e+000
1.032742e+003,2.740716e+000
1.033706e+003,1.824036e+000
1.034671e+003,7.659363e-001
1.035635e+003,1.124756e-001
1.036599e+003,3.978943e-001
1.037563e+003,7.289673e-001
1.038527e+003,6.500732e-001
1.039492e+003,2.749206e-001
1.040456e+003,-3.357788e-001
1.041420e+003,-1.073181e+000
1.042384e+003,-1.665747e+000
1.043349e+003,-1.696338e+000
1.044313e+003,-1.172473e+000
1.045277e+003,-8.168335e-001
1.046241e+003,-7.592651e-001
1.047206e+003,-5.291260e-001
1.048170e+003,5.166016e-001
1.049134e+003,1.828613e+000
1.050098e+003,1.708124e+000
1.051063e+003,-8.356018e-001
1.052027e+003,-1.837445e+000
1.052991e+003,1.922278e+000
1.053955e+003,5.441400e+000
1.054919e+003,5.476654e+000
1.055884e+003,2.990472e+000
1.056848e+003,7.525574e-001
1.057812e+003,4.776062e-001
1.058776e+003,1.294788e+000
1.059741e+003,1.227551e+000
1.060705e+003,3.987122e-001
1.061669e+003,2.959412e-001
1.062633e+003,1.289716e+000
1.063598e+003,2.368463e+000
1.064562e+003,2.574591e+000
1.065526e+003,2.031811e+000
1.066490e+003,1.831482e+000
1.067454e+003,2.369385e+000
1.068419e+003,2.681482e+000
1.069383e+003,2.129266e+000
1.070347e+003,1.493353e+000
1.071311e+003,1.746466e+000
1.072276e+003,2.719983e+000
1.073240e+003,3.083630e+000
1.074204e+003,1.623798e+000
1.075168e+003,-5.380371e-001
1.076133e+003,-5.165222e-001
1.077097e+003,1.067926e+000
1.078061e+003,2.016284e+000
1.079025e+003,1.521179e+000
1.079990e+003,5.576904e-001
1.080954e+003,4.831055e-001
1.081918e+003,1.383679e+000
1.082882e+003,2.616608e+000
1.083846e+003,5.555896e+000
1.084811e+003,7.048248e+000
1.085775e+003,5.046112e+000
1.086739e+003,2.132202e+000
1.087703e+003,1.405206e+000
1.088668e+003,3.348987e+000
1.089632e+003,5.257672e+000
1.090596e+003,4.482568e+000
1.091560e+003,2.540015e+000
1.092525e+003,2.661273e+000
1.093489e+003,4.364057e+000
1.094453e+003,5.903406e+000
1.095417e+003,6.544519e+000
1.096381e+003,6.550891e+000
1.097346e+003,6.331580e+000
1.098310e+003,5.744659e+000
1.099274e+003,5.430346e+000
1.100238e+003,5.685040e+000
1.101203e+003,5.905231e+000
1.102167e+003,6.042243e+000
1.103131e+003,5.928205e+000
1.104095e+003,5.017505e+000
1.105060e+003,3.253174e+000
1.106024e+003,2.141937e+000
1.106988e+003,3.656488e+000
1.107952e+003,6.169379e+000
1.108917e+003,7.052625e+000
1.109881e+003,6.487128e+000
1.110845e+003,5.311981e+000
1.111809e+003,3.851221e+000
1.112773e+003,2.526141e+000
1.113738e+003,2.621283e+000
1.114702e+003,5.204498e+000
1.115666e+003,6.269544e+000
1.116630e+003,4.347351e+000
1.117595e+003,2.855750e+000
1.118559e+003,3.422284e+000
1.119523e+003,4.953760e+000
1.120487e+003,5.558124e+000
1.121452e+003,4.744635e+000
1.122416e+003,4.172815e+000
1.123380e+003,5.692535e+000
1.124344e+003,7.817761e+000
1.125308e+003,8.258801e+000
1.126273e+003,7.480804e+000
1.127237e+003,7.441833e+000
1.128201e+003,9.271832e+000
1.129165e+003,1.194689e+001
1.130130e+003,1.293448e+001
1.131094e+003,1.132260e+001
1.132058e+003,1.065091e+001
1.133022e+003,1.204734e+001
1.133987e+003,1.287198e+001
1.134951e+003,1.189906e+001
1.135915e+003,1.008967e+001
1.136879e+003,8.670611e+000
1.137844e+003,7.978210e+000
1.138808e+003,7.977923e+000
1.139772e+003,8.840039e+000
1.140736e+003,1.009097e+001
1.141700e+003,1.140087e+001
1.142665e+003,1.265462e+001
1.143629e+003,1.338898e+001
1.144593e+003,1.336883e+001
1.145557e+003,1.298660e+001
1.146522e+003,1.291037e+001
1.147486e+003,1.304191e+001
1.148450e+003,1.342805e+001
1.149414e+003,1.424631e+001
1.150379e+003,1.527411e+001
1.151343e+003,1.709468e+001
1.152307e+003,1.876697e+001
1.153271e+003,1.886055e+001
1.154235e+003,1.719090e+001
1.155200e+003,1.530721e+001
1.156164e+003,1.422578e+001
1.157128e+003,1.391241e+001
1.158092e+003,1.404764e+001
1.159057e+003,1.466562e+001
1.160021e+003,1.611785e+001
1.160985e+003,1.854595e+001
1.161949e+003,2.100740e+001
1.162914e+003,2.203030e+001
1.163878e+003,2.147051e+001
1.164842e+003,2.139095e+001
1.165806e+003,2.204487e+001
1.166771e+003,2.279110e+001
1.167735e+003,2.373609e+001
1.168699e+003,2.462413e+001
1.169663e+003,2.498858e+001
1.170627e+003,2.499113e+001
1.171592e+003,2.561617e+001
1.172556e+003,2.767487e+001
1.173520e+003,3.011390e+001
1.174484e+003,3.133655e+001
1.175449e+003,3.172065e+001
1.176413e+003,3.171321e+001
1.177377e+003,3.139581e+001
1.178341e+003,3.144364e+001
1.179306e+003,3.266152e+001
1.180270e+003,3.498595e+001
1.181234e+003,3.721124e+001
1.182198e+003,3.965578e+001
1.183162e+003,4.125023e+001
1.184127e+003,4.208053e+001
1.185091e+003,4.196049e+001
1.186055e+003,3.997115e+001
1.187019e+003,3.716673e+001
1.187984e+003,3.609148e+001
1.188948e+003,3.790759e+001
1.189912e+003,3.989736e+001
1.190876e+003,3.816358e+001
1.191841e+003,3.424609e+001
1.192805e+003,3.189700e+001
1.193769e+003,3.131906e+001
1.194733e+003,3.171893e+001
1.195698e+003,3.296112e+001
1.196662e+003,3.450947e+001
1.197626e+003,3.492086e+001
1.198590e+003,3.387430e+001
1.199554e+003,3.277908e+001
1.200519e+003,3.142832e+001
1.201483e+003,3.065574e+001
1.202447e+003,3.115529e+001
1.203411e+003,3.215427e+001
1.204376e+003,3.268279e+001
1.205340e+003,3.243474e+001
1.206304e+003,3.177230e+001
1.207268e+003,3.111337e+001
1.208233e+003,3.055071e+001
1.209197e+003,2.981483e+001
1.210161e+003,2.888017e+001
1.211125e+003,2.854818e+001
1.212089e+003,2.934075e+001
1.213054e+003,3.008808e+001
1.214018e+003,2.913344e+001
1.214982e+003,2.679426e+001
1.215946e+003,2.630610e+001
1.216911e+003,2.933951e+001
1.217875e+003,3.150849e+001
1.218839e+003,3.082032e+001
1.219803e+003,2.945259e+001
1.220768e+003,2.901404e+001
1.221732e+003,2.947540e+001
1.222696e+003,3.001514e+001
1.223660e+003,3.013833e+001
1.224625e+003,3.009720e+001
1.225589e+003,3.034424e+001
1.226553e+003,3.083464e+001
1.227517e+003,3.121426e+001
1.228481e+003,3.141587e+001
1.229446e+003,3.182912e+001
1.230410e+003,3.287439e+001
1.231374e+003,3.408495e+001
1.232338e+003,3.468708e+001
1.233303e+003,3.465446e+001
1.234267e+003,3.453229e+001
1.235231e+003,3.448496e+001
1.236195e+003,3.430080e+001
1.237160e+003,3.338817e+001
1.238124e+003,3.246217e+001
1.239088e+003,3.279443e+001
1.240052e+003,3.436016e+001
1.241016e+003,3.560809e+001
1.241981e+003,3.500561e+001
1.242945e+003,3.312193e+001
1.243909e+003,3.266036e+001
1.244873e+003,3.456195e+001
1.245838e+003,3.580146e+001
1.246802e+003,3.619688e+001
1.247766e+003,3.607251e+001
1.248730e+003,3.512565e+001
1.249695e+003,3.389672e+001
1.250659e+003,3.374905e+001
1.251623e+003,3.510685e+001
1.252587e+003,3.618757e+001
1.253552e+003,3.531437e+001
1.254516e+003,3.404863e+001
1.255480e+003,3.408025e+001
1.256444e+003,3.496490e+001
1.257408e+003,3.553116e+001
1.258373e+003,3.534209e+001
1.259337e+003,3.503381e+001
1.260301e+003,3.555772e+001
1.261265e+003,3.696475e+001
1.262230e+003,3.779379e+001
1.263194e+003,3.702967e+001
1.264158e+003,3.683586e+001
1.265122e+003,3.826472e+001
1.266087e+003,3.945736e+001
1.267051e+003,3.879011e+001
1.268015e+003,3.696411e+001
1.268979e+003,3.591544e+001
1.269943e+003,3.642093e+001
1.270908e+003,3.725681e+001
1.271872e+003,3.686196e+001
1.272836e+003,3.607652e+001
1.273800e+003,3.707996e+001
1.274765e+003,3.974966e+001
1.275729e+003,4.217492e+001
1.276693e+003,4.358849e+001
1.277657e+003,4.409410e+001
1.278622e+003,4.347179e+001
1.279586e+003,4.157558e+001
1.280550e+003,4.062508e+001
1.281514e+003,4.176576e+001
1.282479e+003,4.265509e+001
1.283443e+003,4.209156e+001
1.284407e+003,4.150127e+001
1.285371e+003,4.234591e+001
1.286335e+003,4.404684e+001
1.287300e+003,4.464097e+001
1.288264e+003,4.323165e+001
1.289228e+003,4.172984e+001
1.290192e+003,4.329334e+001
1.291157e+003,4.771915e+001
1.292121e+003,5.007008e+001
1.293085e+003,4.980666e+001
1.294049e+003,4.910677e+001
1.295014e+003,4.833328e+001
1.295978e+003,4.794451e+001
1.296942e+003,4.893261e+001
1.297906e+003,5.108618e+001
1.298870e+003,5.196342e+001
1.299835e+003,5.009352e+001
1.300799e+003,4.825101e+001
1.301763e+003,4.834053e+001
1.302727e+003,4.919334e+001
1.303692e+003,4.977924e+001
1.304656e+003,5.029562e+001
1.305620e+003,5.182369e+001
1.306584e+003,5.490429e+001
1.307549e+003,5.826939e+001
1.308513e+003,5.944775e+001
1.309477e+003,5.803634e+001
1.310441e+003,5.707842e+001
1.311406e+003,5.698759e+001
1.312370e+003,5.691249e+001
1.313334e+003,5.709929e+001
1.314298e+003,5.697709e+001
1.315263e+003,5.561332e+001
1.316227e+003,5.350555e+001
1.317191e+003,5.235955e+001
1.318155e+003,5.293024e+001
1.319120e+003,5.401657e+001
1.320084e+003,5.444518e+001
1.321048e+003,5.435835e+001
1.322012e+003,5.398307e+001
1.322976e+003,5.338386e+001
1.323941e+003,5.327880e+001
1.324905e+003,5.414582e+001
1.325869e+003,5.553590e+001
1.326833e+003,5.680203e+001
1.327798e+003,5.791161e+001
1.328762e+003,5.891916e+001
1.329726e+003,5.999797e+001
1.330690e+003,6.051683e+001
1.331655e+003,5.997477e+001
1.332619e+003,5.927262e+001
1.333583e+003,5.887519e+001
1.334547e+003,5.883299e+001
1.335511e+003,5.929860e+001
1.336476e+003,6.019946e+001
1.337440e+003,6.069993e+001
1.338404e+003,5.965875e+001
1.339368e+003,5.746484e+001
1.340333e+003,5.722408e+001
1.341297e+003,5.953619e+001
1.342261e+003,6.158688e+001
1.343225e+003,6.397542e+001
1.344190e+003,6.513390e+001
1.345154e+003,6.307260e+001
1.346118e+003,5.914771e+001
1.347082e+003,5.637515e+001
1.348047e+003,5.536570e+001
1.349011e+003,5.573631e+001
1.349975e+003,5.806620e+001
1.350939e+003,6.084359e+001
1.351903e+003,6.261962e+001
1.352868e+003,6.349023e+001
1.353832e+003,6.337668e+001
1.354796e+003,6.235143e+001
1.355760e+003,6.165823e+001
1.356725e+003,6.263279e+001
1.357689e+003,6.481725e+001
1.358653e+003,6.608900e+001
1.359617e+003,6.617876e+001
1.360582e+003,6.610468e+001
1.361546e+003,6.547301e+001
1.362510e+003,6.520799e+001
1.363474e+003,6.686182e+001
1.364438e+003,6.838458e+001
1.365403e+003,6.631474e+001
1.366367e+003,6.142652e+001
1.367331e+003,5.861720e+001
1.368295e+003,6.111435e+001
1.369260e+003,6.587770e+001
1.370224e+003,6.754718e+001
1.371188e+003,6.626089e+001
1.372152e+003,6.599644e+001
1.373117e+003,6.688113e+001
1.374081e+003,6.782434e+001
1.375045e+003,6.858592e+001
1.376009e+003,6.916854e+001
1.376974e+003,6.973444e+001
1.377938e+003,7.023636e+001
1.378902e+003,6.989162e+001
1.379866e+003,6.794524e+001
1.380830e+003,6.677843e+001
1.381795e+003,6.903709e+001
1.382759e+003,7.213701e+001
1.383723e+003,7.407577e+001
1.384687e+003,7.492400e+001
1.385652e+003,7.510397e+001
1.386616e+003,7.478674e+001
1.387580e+003,7.421434e+001
1.388544e+003,7.350050e+001
1.389509e+003,7.271720e+001
1.390473e+003,7.327385e+001
1.391437e+003,7.693910e+001
1.392401e+003,7.821765e+001
1.393365e+003,7.433707e+001
1.394330e+003,7.085674e+001
1.395294e+003,7.000578e+001
1.396258e+003,7.076428e+001
1.397222e+003,7.210672e+001
1.398187e+003,7.370547e+001
1.399151e+003,7.558207e+001
1.400115e+003,7.767347e+001
1.401079e+003,7.920824e+001
1.402044e+003,7.856410e+001
1.403008e+003,7.574332e+001
1.403972e+003,7.499461e+001
1.404936e+003,7.747556e+001
1.405901e+003,7.929716e+001
1.406865e+003,7.848510e+001
1.407829e+003,7.695570e+001
1.408793e+003,7.686648e+001
1.409757e+003,7.796803e+001
1.410722e+003,7.842883e+001
1.411686e+003,7.746907e+001
1.412650e+003,7.690586e+001
1.413614e+003,7.869775e+001
1.414579e+003,8.108344e+001
1.415543e+003,8.197749e+001
1.416507e+003,8.188847e+001
1.417471e+003,8.226691e+001
1.418436e+003,8.349319e+001
1.419400e+003,8.433598e+001
1.420364e+003,8.317704e+001
1.421328e+003,8.100024e+001
1.422292e+003,8.212808e+001
1.423257e+003,8.790765e+001
1.424221e+003,9.163276e+001
1.425185e+003,9.040254e+001
1.426149e+003,8.913763e+001
1.427114e+003,8.976862e+001
1.428078e+003,9.092038e+001
1.429042e+003,9.095529e+001
1.430006e+003,8.997310e+001
1.430971e+003,8.889613e+001
1.431935e+003,8.831581e+001
1.432899e+003,8.872369e+001
1.433863e+003,9.101631e+001
1.434828e+003,9.500332e+001
1.435792e+003,9.710213e+001
1.436756e+003,9.568823e+001
1.437720e+003,9.522507e+001
1.438684e+003,9.759142e+001
1.439649e+003,9.946700e+001
1.440613e+003,9.783510e+001
1.441577e+003,9.497388e+001
1.442541e+003,9.530150e+001
1.443506e+003,9.902579e+001
1.444470e+003,1.015113e+002
1.445434e+003,9.991707e+001
1.446398e+003,9.713203e+001
1.447363e+003,9.703460e+001
1.448327e+003,9.867970e+001
1.449291e+003,9.996280e+001
1.450255e+003,1.007967e+002
1.451219e+003,1.009124e+002
1.452184e+003,9.981876e+001
1.453148e+003,9.827040e+001
1.454112e+003,9.682905e+001
1.455076e+003,9.567156e+001
1.456041e+003,9.637222e+001
1.457005e+003,9.994369e+001
1.457969e+003,1.026728e+002
1.458933e+003,1.021666e+002
1.459898e+003,1.011364e+002
1.460862e+003,1.007647e+002
1.461826e+003,1.011218e+002
1.462790e+003,1.026122e+002
1.463755e+003,1.050088e+002
1.464719e+003,1.069874e+002
1.465683e+003,1.075712e+002
1.466647e+003,1.073759e+002
1.467611e+003,1.077601e+002
1.468576e+003,1.087812e+002
1.469540e+003,1.095809e+002
1.470504e+003,1.108587e+002
1.471468e+003,1.109308e+002
1.472433e+003,1.079473e+002
1.473397e+003,1.053792e+002
1.474361e+003,1.059476e+002
1.475325e+003,1.081892e+002
1.476290e+003,1.092600e+002
1.477254e+003,1.086458e+002
1.478218e+003,1.086252e+002
1.479182e+003,1.111129e+002
1.480146e+003,1.146318e+002
1.481111e+003,1.156739e+002
1.482075e+003,1.139266e+002
1.483039e+003,1.119477e+002
1.484003e+003,1.089354e+002
1.484968e+003,1.069942e+002
1.485932e+003,1.075053e+002
1.486896e+003,1.086210e+002
1.487860e+003,1.084466e+002
1.488825e+003,1.075238e+002
1.489789e+003,1.077312e+002
1.490753e+003,1.095170e+002
1.491717e+003,1.113598e+002
1.492682e+003,1.123948e+002
1.493646e+003,1.125631e+002
1.494610e+003,1.109595e+002
1.495574e+003,1.083903e+002
1.496538e+003,1.079337e+002
1.497503e+003,1.103026e+002
1.498467e+003,1.120011e+002
1.499431e+003,1.105435e+002
1.500395e+003,1.079413e+002
1.501360e+003,1.066283e+002
1.502324e+003,1.065745e+002
1.503288e+003,1.073615e+002
1.504252e+003,1.089671e+002
1.505217e+003,1.106670e+002
1.506181e+003,1.131965e+002
1.507145e+003,1.143939e+002
1.508109e+003,1.113282e+002
1.509073e+003,1.065388e+002
1.510038e+003,1.037841e+002
1.511002e+003,1.037035e+002
1.511966e+003,1.058179e+002
1.512930e+003,1.103866e+002
1.513895e+003,1.149789e+002
1.514859e+003,1.146962e+002
1.515823e+003,1.095034e+002
1.516787e+003,1.055853e+002
1.517752e+003,1.034163e+002
1.518716e+003,1.020211e+002
1.519680e+003,1.014953e+002
1.520644e+003,1.011090e+002
1.521609e+003,1.003484e+002
1.522573e+003,9.968452e+001
1.523537e+003,9.982214e+001
1.524501e+003,1.008101e+002
1.525465e+003,1.023357e+002
1.526430e+003,1.040760e+002
1.527394e+003,1.053374e+002
1.528358e+003,1.050533e+002
1.529322e+003,1.033583e+002
1.530287e+003,1.024185e+002
1.531251e+003,1.029986e+002
1.532215e+003,1.030259e+002
1.533179e+003,1.022506e+002
1.534144e+003,1.010971e+002
1.535108e+003,9.883907e+001
1.536072e+003,9.689143e+001
1.537036e+003,9.717101e+001
1.538000e+003,9.915443e+001
1.538965e+003,1.009089e+002
1.539929e+003,1.014892e+002
1.540893e+003,1.011410e+002
1.541857e+003,1.001347e+002
1.542822e+003,9.883395e+001
1.543786e+003,9.833088e+001
1.544750e+003,9.874177e+001
1.545714e+003,9.929909e+001
1.546679e+003,1.006677e+002
1.547643e+003,1.011624e+002
1.548607e+003,9.998820e+001
1.549571e+003,9.810430e+001
1.550536e+003,9.552329e+001
1.551500e+003,9.298427e+001
1.552464e+003,9.287444e+001
1.553428e+003,9.574023e+001
1.554392e+003,9.796733e+001
1.555357e+003,9.642846e+001
1.556321e+003,9.280452e+001
1.557285e+003,9.010168e+001
1.558249e+003,8.853857e+001
1.559214e+003,8.938655e+001
1.560178e+003,9.416130e+001
1.561142e+003,9.717078e+001
1.562106e+003,9.527636e+001
1.563071e+003,9.187780e+001
1.564035e+003,8.963258e+001
1.564999e+003,8.849353e+001
1.565963e+003,8.809616e+001
1.566927e+003,8.826774e+001
1.567892e+003,8.823606e+001
1.568856e+003,8.762431e+001
1.569820e+003,8.665141e+001
1.570784e+003,8.519687e+001
1.571749e+003,8.373009e+001
1.572713e+003,8.376965e+001
1.573677e+003,8.530485e+001
1.574641e+003,8.584242e+001
1.575606e+003,8.423579e+001
1.576570e+003,8.191542e+001
1.577534e+003,7.972734e+001
1.578498e+003,7.785258e+001
1.579463e+003,7.660018e+001
1.580427e+003,7.592195e+001
1.581391e+003,7.553082e+001
1.582355e+003,7.541046e+001
1.583319e+003,7.544675e+001
1.584284e+003,7.606900e+001
1.585248e+003,7.644435e+001
1.586212e+003,7.493199e+001
1.587176e+003,7.217787e+001
1.588141e+003,7.044280e+001
1.589105e+003,7.028545e+001
1.590069e+003,7.008302e+001
1.591033e+003,6.885577e+001
1.591998e+003,6.685413e+001
1.592962e+003,6.372837e+001
1.593926e+003,5.999490e+001
1.594890e+003,5.891374e+001
1.595854e+003,6.129876e+001
1.596819e+003,6.355906e+001
1.597783e+003,6.473476e+001
1.598747e+003,6.466321e+001
1.599711e+003,6.233949e+001
1.600676e+003,5.934575e+001
1.601640e+003,5.778315e+001
1.602604e+003,5.755438e+001
1.603568e+003,5.716836e+001
1.604533e+003,5.597167e+001
1.605497e+003,5.479607e+001
1.606461e+003,5.478699e+001
1.607425e+003,5.532667e+001
1.608390e+003,5.429250e+001
1.609354e+003,5.167771e+001
1.610318e+003,5.099623e+001
1.611282e+003,5.382589e+001
1.612246e+003,5.555796e+001
1.613211e+003,5.302180e+001
1.614175e+003,4.965965e+001
1.615139e+003,4.769727e+001
1.616103e+003,4.668771e+001
1.617068e+003,4.561654e+001
1.618032e+003,4.441426e+001
1.618996e+003,4.414672e+001
1.619960e+003,4.560799e+001
1.620925e+003,4.683276e+001
1.621889e+003,4.445469e+001
1.622853e+003,3.931075e+001
1.623817e+003,3.658071e+001
1.624781e+003,3.675486e+001
1.625746e+003,3.676810e+001
1.626710e+003,3.569526e+001
1.627674e+003,3.476147e+001
1.628638e+003,3.460261e+001
1.629603e+003,3.463075e+001
1.630567e+003,3.450049e+001
1.631531e+003,3.423019e+001
1.632495e+003,3.396765e+001
1.633460e+003,3.376385e+001
1.634424e+003,3.340355e+001
1.635388e+003,3.264473e+001
1.636352e+003,3.175822e+001
1.637317e+003,3.148972e+001
1.638281e+003,3.173074e+001
1.639245e+003,3.071520e+001
1.640209e+003,2.785868e+001
1.641173e+003,2.582493e+001
1.642138e+003,2.591027e+001
1.643102e+003,2.615085e+001
1.644066e+003,2.588532e+001
1.645030e+003,2.502056e+001
1.645995e+003,2.273697e+001
1.646959e+003,1.988980e+001
1.647923e+003,1.892441e+001
1.648887e+003,2.043047e+001
1.649852e+003,2.159457e+001
1.650816e+003,1.982049e+001
1.651780e+003,1.683609e+001
1.652744e+003,1.639048e+001
1.653708e+003,1.838687e+001
1.654673e+003,2.038956e+001
1.655637e+003,2.278408e+001
1.656601e+003,2.326196e+001
1.657565e+003,1.974247e+001
1.658530e+003,1.602427e+001
1.659494e+003,1.404644e+001
1.660458e+003,1.304337e+001
1.661422e+003,1.236331e+001
1.662387e+003,1.188093e+001
1.663351e+003,1.158708e+001
1.664315e+003,1.147515e+001
1.665279e+003,1.134669e+001
1.666244e+003,1.098700e+001
1.667208e+003,1.060787e+001
1.668172e+003,1.090261e+001
1.669136e+003,1.172905e+001
1.670100e+003,1.096970e+001
1.671065e+003,7.853143e+000
1.672029e+003,5.838263e+000
1.672993e+003,7.173639e+000
1.673957e+003,8.351141e+000
1.674922e+003,6.078070e+000
1.675886e+003,3.119678e+000
1.676850e+003,2.871741e+000
1.677814e+003,4.807569e+000
1.678779e+003,6.428699e+000
1.679743e+003,6.966321e+000
1.680707e+003,6.661994e+000
1.681671e+003,5.357782e+000
1.682635e+003,3.693170e+000
1.683600e+003,2.969287e+000
1.684564e+003,3.002197e+000
1.685528e+003,2.302331e+000
1.686492e+003,5.458130e-001
1.687457e+003,-9.526672e-001
1.688421e+003,-2.047137e+000
1.689385e+003,-2.083426e+000
1.690349e+003,8.273926e-001
1.691314e+003,4.224725e+000
1.692278e+003,5.156579e+000
1.693242e+003,3.923798e+000
1.694206e+003,2.059265e+000
1.695171e+003,-1.422363e-001
1.696135e+003,-2.058322e+000
1.697099e+003,-3.496527e+000
1.698063e+003,-4.254272e+000
1.699027e+003,-3.645227e+000
1.699992e+003,-2.184396e+000
1.700956e+003,-1.624261e+000
1.701920e+003,-2.133261e+000
1.702884e+003,-2.342059e+000
1.703849e+003,-1.576291e+000
1.704813e+003,-1.273776e+000
1.705777e+003,-2.856250e+000
1.706741e+003,-5.226676e+000
1.707706e+003,-6.748496e+000
1.708670e+003,-7.484820e+000
1.709634e+003,-7.675949e+000
1.710598e+003,-7.341544e+000
1.711563e+003,-6.583392e+000
1.712527e+003,-4.483634e+000
1.713491e+003,-3.042770e+000
1.714455e+003,-4.653512e+000
1.715419e+003,-7.595145e+000
1.716384e+003,-8.863363e+000
1.717348e+003,-8.515060e+000
1.718312e+003,-8.322113e+000
1.719276e+003,-8.844370e+000
1.720241e+003,-9.330152e+000
1.721205e+003,-9.232712e+000
1.722169e+003,-8.825403e+000
1.723133e+003,-8.535214e+000
1.724098e+003,-8.296448e+000
1.725062e+003,-7.777359e+000
1.726026e+003,-6.857776e+000
1.726990e+003,-6.356543e+000
1.727954e+003,-6.691635e+000
1.728919e+003,-7.105344e+000
1.729883e+003,-7.018173e+000
1.730847e+003,-7.035846e+000
1.731811e+003,-7.883307e+000
1.732776e+003,-9.312210e+000
1.733740e+003,-1.078455e+001
1.734704e+003,-1.210178e+001
1.735668e+003,-1.313335e+001
1.736633e+003,-1.380928e+001
1.737597e+003,-1.425767e+001
1.738561e+003,-1.465080e+001
1.739525e+003,-1.486793e+001
1.740490e+003,-1.438683e+001
1.741454e+003,-1.288890e+001
1.742418e+003,-1.197853e+001
1.743382e+003,-1.201188e+001
1.744346e+003,-1.208019e+001
1.745311e+003,-1.201569e+001
1.746275e+003,-1.198438e+001
1.747239e+003,-1.215024e+001
1.748203e+003,-1.232727e+001
1.749168e+003,-1.218072e+001
1.750132e+003,-1.184571e+001
1.751096e+003,-1.180670e+001
1.752060e+003,-1.223961e+001
1.753025e+003,-1.290823e+001
1.753989e+003,-1.360958e+001
1.754953e+003,-1.412621e+001
1.755917e+003,-1.389244e+001
1.756881e+003,-1.289521e+001
1.757846e+003,-1.220190e+001
1.758810e+003,-1.169077e+001
1.759774e+003,-1.174863e+001
1.760738e+003,-1.326020e+001
1.761703e+003,-1.427981e+001
1.762667e+003,-1.331480e+001
1.763631e+003,-1.235171e+001
1.764595e+003,-1.346360e+001
1.765560e+003,-1.549910e+001
1.766524e+003,-1.612083e+001
1.767488e+003,-1.516696e+001
1.768452e+003,-1.442857e+001
1.769417e+003,-1.484543e+001
1.770381e+003,-1.552975e+001
1.771345e+003,-1.544479e+001
1.772309e+003,-1.493724e+001
1.773273e+003,-1.493775e+001
1.774238e+003,-1.540398e+001
1.775202e+003,-1.560467e+001
1.776166e+003,-1.536671e+001
1.777130e+003,-1.534308e+001
1.778095e+003,-1.591690e+001
1.779059e+003,-1.646470e+001
1.780023e+003,-1.655579e+001
1.780987e+003,-1.623770e+001
1.781952e+003,-1.527779e+001
1.782916e+003,-1.396643e+001
1.783880e+003,-1.389746e+001
1.784844e+003,-1.568656e+001
1.785808e+003,-1.669824e+001
1.786773e+003,-1.489154e+001
1.787737e+003,-1.300927e+001
1.788701e+003,-1.339803e+001
1.789665e+003,-1.490374e+001
1.790630e+003,-1.607607e+001
1.791594e+003,-1.671623e+001
1.792558e+003,-1.665676e+001
1.793522e+003,-1.596611e+001
1.794487e+003,-1.562944e+001
1.795451e+003,-1.627309e+001
1.796415e+003,-1.706886e+001
1.797379e+003,-1.690688e+001
1.798344e+003,-1.600942e+001
1.799308e+003,-1.537623e+001
1.800272e+003,-1.512997e+001
1.801236e+003,-1.477920e+001
1.802201e+003,-1.366542e+001
1.803165e+003,-1.335446e+001
1.804129e+003,-1.514340e+001
1.805093e+003,-1.652779e+001
1.806057e+003,-1.541874e+001
1.807022e+003,-1.377948e+001
1.807986e+003,-1.420898e+001
1.808950e+003,-1.602151e+001
1.809914e+003,-1.686343e+001
1.810879e+003,-1.610480e+001
1.811843e+003,-1.482190e+001
1.812807e+003,-1.378235e+001
1.813771e+003,-1.343090e+001
1.814736e+003,-1.484645e+001
1.815700e+003,-1.744488e+001
1.816664e+003,-1.757825e+001
1.817628e+003,-1.488029e+001
1.818593e+003,-1.367950e+001
1.819557e+003,-1.496909e+001
1.820521e+003,-1.614344e+001
1.821485e+003,-1.643133e+001
1.822449e+003,-1.613261e+001
1.823414e+003,-1.510141e+001
1.824378e+003,-1.392966e+001
1.825342e+003,-1.341359e+001
1.826306e+003,-1.340290e+001
1.827271e+003,-1.320848e+001
1.828235e+003,-1.267100e+001
1.829199e+003,-1.212057e+001
1.830163e+003,-1.135176e+001
1.831128e+003,-1.106524e+001
1.832092e+003,-1.247717e+001
1.833056e+003,-1.438855e+001
1.834020e+003,-1.473187e+001
1.834984e+003,-1.386253e+001
1.835949e+003,-1.324894e+001
1.836913e+003,-1.323236e+001
1.837877e+003,-1.381457e+001
1.838841e+003,-1.506321e+001
1.839806e+003,-1.601302e+001
1.840770e+003,-1.551425e+001
1.841734e+003,-1.405073e+001
1.842698e+003,-1.301740e+001
1.843663e+003,-1.240389e+001
1.844627e+003,-1.199402e+001
1.845591e+003,-1.197343e+001
1.846555e+003,-1.190881e+001
1.847520e+003,-1.180571e+001
1.848484e+003,-1.170699e+001
1.849448e+003,-1.124392e+001
1.850412e+003,-1.107256e+001
1.851376e+003,-1.246756e+001
1.852341e+003,-1.420108e+001
1.853305e+003,-1.380425e+001
1.854269e+003,-1.150953e+001
1.855233e+003,-1.011434e+001
1.856198e+003,-1.086273e+001
1.857162e+003,-1.185033e+001
1.858126e+003,-1.113160e+001
1.859090e+003,-9.542200e+000
1.860055e+003,-8.678821e+000
1.861019e+003,-8.539129e+000
1.861983e+003,-9.107511e+000
1.862947e+003,-1.040165e+001
1.863911e+003,-1.107429e+001
1.864876e+003,-1.067947e+001
1.865840e+003,-1.007867e+001
1.866804e+003,-9.696625e+000
1.867768e+003,-9.445386e+000
1.868733e+003,-9.327624e+000
1.869697e+003,-9.251462e+000
1.870661e+003,-8.869580e+000
1.871625e+003,-8.179342e+000
1.872590e+003,-7.518661e+000
1.873554e+003,-6.643738e+000
1.874518e+003,-6.333737e+000
1.875482e+003,-7.183530e+000
1.876447e+003,-8.178866e+000
1.877411e+003,-8.675494e+000
1.878375e+003,-9.000229e+000
1.879339e+003,-9.829483e+000
1.880303e+003,-1.078607e+001
1.881268e+003,-1.087906e+001
1.882232e+003,-1.001641e+001
1.883196e+003,-8.796686e+000
1.884160e+003,-7.602090e+000
1.885125e+003,-7.005295e+000
1.886089e+003,-7.764694e+000
1.887053e+003,-9.295944e+000
1.888017e+003,-9.906812e+000
1.888982e+003,-9.574435e+000
1.889946e+003,-9.256284e+000
1.890910e+003,-9.025946e+000
1.891874e+003,-8.377584e+000
1.892839e+003,-6.995691e+000
1.893803e+003,-5.754617e+000
1.894767e+003,-4.845270e+000
1.895731e+003,-4.415228e+000
1.896695e+003,-4.968265e+000
1.897660e+003,-5.924078e+000
1.898624e+003,-6.328357e+000
1.899588e+003,-6.184799e+000
1.900552e+003,-5.882843e+000
1.901517e+003,-5.441888e+000
1.902481e+003,-5.159116e+000
1.903445e+003,-5.265976e+000
1.904409e+003,-5.369836e+000
1.905374e+003,-5.213089e+000
1.906338e+003,-4.864697e+000
1.907302e+003,-4.172708e+000
1.908266e+003,-3.551056e+000
1.909230e+003,-3.883237e+000
1.910195e+003,-5.114041e+000
1.911159e+003,-6.479660e+000
1.912123e+003,-7.536481e+000
1.913087e+003,-7.914682e+000
1.914052e+003,-7.251334e+000
1.915016e+003,-5.972394e+000
1.915980e+003,-4.749249e+000
1.916944e+003,-3.675372e+000
1.917909e+003,-4.407480e+000
1.918873e+003,-7.460028e+000
1.919837e+003,-9.109243e+000
1.920801e+003,-8.720492e+000
1.921766e+003,-7.640457e+000
1.922730e+003,-5.612326e+000
1.923694e+003,-4.118192e+000
1.924658e+003,-4.976550e+000
1.925622e+003,-6.373755e+000
1.926587e+003,-5.863690e+000
1.927551e+003,-4.005594e+000
1.928515e+003,-2.785348e+000
1.929479e+003,-2.393753e+000
1.930444e+003,-2.878055e+000
1.931408e+003,-5.077612e+000
1.932372e+003,-6.944168e+000
1.933336e+003,-7.425504e+000
1.934301e+003,-7.297681e+000
1.935265e+003,-6.962091e+000
1.936229e+003,-6.566101e+000
1.937193e+003,-6.416803e+000
1.938157e+003,-6.338867e+000
1.939122e+003,-5.601321e+000
1.940086e+003,-4.202384e+000
1.941050e+003,-3.256006e+000
1.942014e+003,-3.428967e+000
1.942979e+003,-4.000320e+000
1.943943e+003,-4.049469e+000
1.944907e+003,-3.831409e+000
1.945871e+003,-4.256412e+000
1.946836e+003,-5.236621e+000
1.947800e+003,-5.184113e+000
1.948764e+003,-3.937866e+000
1.949728e+003,-3.338233e+000
1.950693e+003,-4.021933e+000
1.951657e+003,-4.355008e+000
1.952621e+003,-3.223334e+000
1.953585e+003,-1.989859e+000
1.954549e+003,-1.960135e+000
1.955514e+003,-2.755783e+000
1.956478e+003,-3.842212e+000
1.957442e+003,-5.148752e+000
1.958406e+003,-5.475839e+000
1.959371e+003,-4.498258e+000
1.960335e+003,-3.430719e+000
1.961299e+003,-2.018216e+000
1.962263e+003,-1.088153e+000
1.963228e+003,-1.315567e+000
1.964192e+003,-1.718790e+000
1.965156e+003,-1.469174e+000
1.966120e+003,-1.096747e+000
1.967084e+003,-1.461322e+000
1.968049e+003,-2.263675e+000
1.969013e+003,-2.650342e+000
1.969977e+003,-2.427896e+000
1.970941e+003,-1.821863e+000
1.971906e+003,-8.871979e-001
1.972870e+003,-4.107696e-001
1.973834e+003,-1.487439e+000
1.974798e+003,-3.286841e+000
1.975763e+003,-4.661987e+000
1.976727e+003,-5.547925e+000
1.977691e+003,-5.679685e+000
1.978655e+003,-5.063217e+000
1.979620e+003,-3.444217e+000
1.980584e+003,-8.392364e-001
1.981548e+003,4.738220e-001
1.982512e+003,-8.115967e-001
1.983476e+003,-2.678827e+000
1.984441e+003,-3.051099e+000
1.985405e+003,-2.386850e+000
1.986369e+003,-1.655255e+000
1.987333e+003,-8.505799e-001
1.988298e+003,-1.308087e+000
1.989262e+003,-4.189719e+000
1.990226e+003,-5.013156e+000
1.991190e+003,-1.996478e+000
1.992155e+003,9.909058e-002
1.993119e+003,-6.958221e-001
1.994083e+003,-1.660153e+000
1.995047e+003,-1.375790e+000
1.996011e+003,-6.458527e-001
1.996976e+003,-1.025543e-001
1.997940e+003,2.154388e-001
1.998904e+003,1.233917e-001
1.999868e+003,-3.483276e-001
2.000833e+003,-3.667725e-001
2.001797e+003,4.115357e-001
2.002761e+003,1.238593e+000
2.003725e+003,1.736386e+000
2.004690e+003,2.309976e+000
2.005654e+003,3.562405e+000
2.006618e+003,4.703705e+000
2.007582e+003,4.861606e+000
2.008547e+003,4.343982e+000
2.009511e+003,3.667075e+000
2.010475e+003,2.989923e+000
2.011439e+003,2.282791e+000
2.012403e+003,1.562329e+000
2.013368e+003,1.088882e+000
2.014332e+003,1.080188e+000
2.015296e+003,1.176764e+000
2.016260e+003,6.566986e-001
2.017225e+003,7.096863e-002
2.018189e+003,1.095303e+000
2.019153e+003,3.154889e+000
2.020117e+003,3.884985e+000
2.021082e+003,3.192981e+000
2.022046e+003,2.346811e+000
2.023010e+003,1.702914e+000
2.023974e+003,1.104486e+000
2.024938e+003,4.296204e-001
2.025903e+003,-4.792481e-002
2.026867e+003,2.999878e-003
2.027831e+003,3.208130e-001
2.028795e+003,2.633118e-001
2.029760e+003,-1.051025e-001
2.030724e+003,2.248596e-001
2.031688e+003,1.757608e+000
2.032652e+003,1.817792e+000
2.033617e+003,-5.726379e-001
2.034581e+003,-2.356574e+000
2.035545e+003,-2.752158e+000
2.036509e+003,-2.363907e+000
2.037474e+003,-1.196387e+000
2.038438e+003,1.814667e-001
2.039402e+003,1.320544e+000
2.040366e+003,2.224100e+000
2.041330e+003,2.946304e+000
2.042295e+003,3.498132e+000
2.043259e+003,3.472363e+000
2.044223e+003,2.208987e+000
2.045187e+003,1.954800e+000
2.046152e+003,4.956787e+000
2.047116e+003,6.489069e+000
2.048080e+003,3.034580e+000
2.049044e+003,-6.381317e-001
2.050009e+003,-7.017578e-001
2.050973e+003,6.530426e-001
2.051937e+003,6.554138e-001
2.052901e+003,-3.703064e-001
2.053865e+003,-1.152484e+000
2.054830e+003,-1.323422e+000
2.055794e+003,-5.793060e-001
2.056758e+003,1.346625e+000
2.057722e+003,2.913879e+000
2.058687e+003,2.733643e+000
2.059651e+003,2.024161e+000
2.060615e+003,1.810938e+000
2.061579e+003,1.847504e+000
2.062544e+003,1.968878e+000
2.063508e+003,2.089740e+000
2.064472e+003,2.028586e+000
2.065436e+003,1.758252e+000
2.066401e+003,1.396008e+000
2.067365e+003,9.354035e-001
2.068329e+003,-4.143677e-002
2.069293e+003,-1.758887e+000
2.070258e+003,-3.025427e+000
2.071222e+003,-2.355661e+000
2.072186e+003,-4.392456e-001
2.073150e+003,1.776120e+000
2.074115e+003,3.883603e+000
2.075079e+003,3.577789e+000
2.076043e+003,1.157559e+000
2.077007e+003,-1.531525e-001
2.077971e+003,1.555939e-001
2.078936e+003,1.046564e+000
2.079900e+003,2.147202e+000
2.080864e+003,2.546741e+000
2.081828e+003,1.507309e+000
2.082792e+003,3.088593e-001
2.083757e+003,8.144439e-001
2.084721e+003,2.414688e+000
2.085685e+003,2.955615e+000
2.086649e+003,2.403885e+000
2.087614e+003,2.086652e+000
2.088578e+003,2.023605e+000
2.089542e+003,2.135993e+000
2.090506e+003,2.425830e+000
2.091471e+003,2.703973e+000
2.092435e+003,2.960312e+000
2.093399e+003,3.187881e+000
2.094363e+003,3.447797e+000
2.095328e+003,3.566180e+000
2.096292e+003,3.192621e+000
2.097256e+003,2.490045e+000
2.098220e+003,2.089166e+000
2.099185e+003,2.020135e+000
2.100149e+003,2.457813e+000
2.101113e+003,3.869641e+000
2.102077e+003,4.835217e+000
2.103042e+003,5.702249e+000
2.104006e+003,5.555005e+000
2.104970e+003,2.983521e+000
2.105934e+003,8.033508e-001
2.106898e+003,7.176422e-001
2.107863e+003,1.558688e+000
2.108827e+003,2.528793e+000
2.109791e+003,3.373218e+000
2.110755e+003,3.433069e+000
2.111719e+003,2.729025e+000
2.112684e+003,2.540555e+000
2.113648e+003,3.322684e+000
2.114612e+003,3.918695e+000
2.115576e+003,4.117358e+000
2.116541e+003,3.978036e+000
2.117505e+003,3.059350e+000
2.118469e+003,2.393088e+000
2.119433e+003,2.871399e+000
2.120398e+003,3.726566e+000
2.121362e+003,4.195813e+000
2.122326e+003,4.324249e+000
2.123290e+003,4.290350e+000
2.124255e+003,4.225089e+000
2.125219e+003,4.498837e+000
2.126183e+003,5.246451e+000
2.127147e+003,5.709427e+000
2.128112e+003,5.353189e+000
2.129076e+003,4.990427e+000
2.130040e+003,5.109735e+000
2.131004e+003,5.297675e+000
2.131969e+003,4.979086e+000
2.132933e+003,4.714847e+000
2.133897e+003,5.638043e+000
2.134861e+003,6.964688e+000
2.135825e+003,7.015707e+000
2.136790e+003,5.864166e+000
2.137754e+003,4.709024e+000
2.138718e+003,4.013596e+000
2.139682e+003,3.928897e+000
2.140646e+003,4.721887e+000
2.141611e+003,5.517001e+000
2.142575e+003,5.578916e+000
2.143539e+003,5.239718e+000
2.144503e+003,4.536078e+000
2.145468e+003,3.966354e+000
2.146432e+003,4.092218e+000
2.147396e+003,4.865030e+000
2.148360e+003,6.557425e+000
2.149325e+003,8.623349e+000
2.150289e+003,9.631732e+000
2.151253e+003,9.175262e+000
2.152217e+003,7.688303e+000
2.153182e+003,5.404855e+000
2.154146e+003,3.706924e+000
2.155110e+003,4.101477e+000
2.156074e+003,5.451718e+000
2.157039e+003,6.678699e+000
2.158003e+003,7.524060e+000
2.158967e+003,7.275210e+000
2.159931e+003,6.538217e+000
2.160896e+003,6.608521e+000
2.161860e+003,7.473700e+000
2.162824e+003,8.691943e+000
2.163788e+003,9.942785e+000
2.164752e+003,1.057169e+001
2.165717e+003,1.026146e+001
2.166681e+003,9.256414e+000
2.167645e+003,7.584826e+000
2.168609e+003,6.146219e+000
2.169573e+003,6.403668e+000
2.170538e+003,7.672351e+000
2.171502e+003,8.885373e+000
2.172466e+003,9.848272e+000
2.173430e+003,1.015343e+001
2.174395e+003,9.892981e+000
2.175359e+003,9.380865e+000
2.176323e+003,8.686633e+000
2.177287e+003,7.522449e+000
2.178252e+003,5.928192e+000
2.179216e+003,5.106781e+000
2.180180e+003,5.958264e+000
2.181144e+003,7.356958e+000
2.182109e+003,7.991839e+000
2.183073e+003,8.050196e+000
2.184037e+003,7.820609e+000
2.185001e+003,7.372772e+000
2.185966e+003,6.705179e+000
2.186930e+003,6.075177e+000
2.187894e+003,6.224689e+000
2.188858e+003,7.130692e+000
2.189823e+003,8.315744e+000
2.190787e+003,9.504199e+000
2.191751e+003,1.038202e+001
2.192715e+003,1.081113e+001
2.193679e+003,1.058550e+001
2.194644e+003,9.341791e+000
2.195608e+003,8.065433e+000
2.196572e+003,8.709079e+000
2.197536e+003,1.034502e+001
2.198500e+003,1.060079e+001
2.199465e+003,9.978106e+000
2.200429e+003,9.910480e+000
2.201393e+003,1.038665e+001
2.202357e+003,1.114009e+001
2.203322e+003,1.186076e+001
2.204286e+003,1.112609e+001
2.205250e+003,8.694242e+000
2.206214e+003,7.178680e+000
2.207179e+003,8.364881e+000
2.208143e+003,1.010422e+001
2.209107e+003,9.759155e+000
2.210071e+003,8.530157e+000
2.211036e+003,8.793490e+000
2.212000e+003,9.785700e+000
2.212964e+003,9.365915e+000
2.213928e+003,8.097461e+000
2.214893e+003,7.977631e+000
2.215857e+003,8.987744e+000
2.216821e+003,9.934484e+000
2.217785e+003,1.050351e+001
2.218750e+003,1.104916e+001
2.219714e+003,1.176489e+001
2.220678e+003,1.280203e+001
2.221642e+003,1.437297e+001
2.222606e+003,1.578986e+001
2.223571e+003,1.566112e+001
2.224535e+003,1.516823e+001
2.225499e+003,1.722040e+001
2.226463e+003,2.011193e+001
2.227427e+003,1.934294e+001
2.228392e+003,1.658319e+001
2.229356e+003,1.718245e+001
2.230320e+003,2.091117e+001
2.231284e+003,2.391239e+001
2.232249e+003,2.503166e+001
2.233213e+003,2.548140e+001
2.234177e+003,2.593539e+001
2.235141e+003,2.624023e+001
2.236106e+003,2.604238e+001
2.237070e+003,2.633080e+001
2.238034e+003,2.851536e+001
2.238998e+003,3.165073e+001
2.239963e+003,3.478682e+001
2.240927e+003,3.775828e+001
2.241891e+003,4.040890e+001
2.242855e+003,4.271505e+001
2.243820e+003,4.408281e+001
2.244784e+003,4.510056e+001
2.245748e+003,4.806096e+001
2.246712e+003,5.319917e+001
2.247677e+003,5.749463e+001
2.248641e+003,5.936729e+001
2.249605e+003,6.093491e+001
2.250569e+003,6.432336e+001
2.251533e+003,6.726953e+001
2.252498e+003,6.741248e+001
2.253462e+003,6.629970e+001
2.254426e+003,6.533973e+001
2.255390e+003,6.440196e+001
2.256354e+003,6.348241e+001
2.257319e+003,6.213002e+001
2.258283e+003,5.930857e+001
2.259247e+003,5.543117e+001
2.260211e+003,5.201897e+001
2.261176e+003,4.948084e+001
2.262140e+003,4.729533e+001
2.263104e+003,4.524642e+001
2.264068e+003,4.328138e+001
2.265033e+003,4.185795e+001
2.265997e+003,3.986469e+001
2.266961e+003,3.563677e+001
2.267925e+003,3.168567e+001
2.268890e+003,3.051565e+001
2.269854e+003,3.019376e+001
2.270818e+003,2.870231e+001
2.271782e+003,2.635537e+001
2.272747e+003,2.408512e+001
2.273711e+003,2.185385e+001
2.274675e+003,1.857748e+001
2.275639e+003,1.401357e+001
2.276604e+003,1.168126e+001
2.277568e+003,1.418148e+001
2.278532e+003,1.535118e+001
2.279496e+003,1.209175e+001
2.280460e+003,9.344421e+000
2.281425e+003,9.220251e+000
2.282389e+003,9.703644e+000
2.283353e+003,9.832495e+000
2.284317e+003,9.902557e+000
2.285281e+003,1.050049e+001
2.286246e+003,1.108899e+001
2.287210e+003,1.053057e+001
2.288174e+003,9.026606e+000
2.289138e+003,8.007754e+000
2.290103e+003,7.636081e+000
2.291067e+003,7.125674e+000
2.292031e+003,6.508523e+000
2.292995e+003,5.691510e+000
2.293960e+003,4.259820e+000
2.294924e+003,3.352502e+000
2.295888e+003,3.584848e+000
2.296852e+003,3.729626e+000
2.297817e+003,3.008533e+000
2.298781e+003,2.321091e+000
2.299745e+003,2.522415e+000
2.300709e+003,3.261990e+000
2.301674e+003,4.032202e+000
2.302638e+003,4.662417e+000
2.303602e+003,4.295523e+000
2.304566e+003,2.796414e+000
2.305531e+003,1.980905e+000
2.306495e+003,1.962982e+000
2.307459e+003,2.088699e+000
2.308423e+003,2.277020e+000
2.309387e+003,2.700790e+000
2.310352e+003,3.458169e+000
2.311316e+003,3.574252e+000
2.312280e+003,2.556924e+000
2.313244e+003,1.403210e+000
2.314208e+003,8.897949e-001
2.315173e+003,1.069394e+000
2.316137e+003,2.306302e+000
2.317101e+003,3.646918e+000
2.318065e+003,1.832498e+000
2.319030e+003,-1.961099e+000
2.319994e+003,-2.845981e+000
2.320958e+003,-1.408203e+000
2.321922e+003,4.290466e-002
2.322887e+003,1.123193e+000
2.323851e+003,1.381369e+000
2.324815e+003,9.499695e-001
2.325779e+003,1.029578e+000
2.326744e+003,1.954636e+000
2.327708e+003,2.344870e+000
2.328672e+003,1.287875e+000
2.329636e+003,-6.185303e-002
2.330601e+003,-5.663086e-001
2.331565e+003,-8.706329e-001
2.332529e+003,-1.976709e+000
2.333493e+003,-3.016834e+000
2.334458e+003,-2.504855e+000
2.335422e+003,-1.647141e+000
2.336386e+003,-2.493896e+000
2.337350e+003,-4.044281e+000
2.338314e+003,-3.921622e+000
2.339279e+003,-2.676392e+000
2.340243e+003,-2.950742e+000
2.341207e+003,-5.096933e+000
2.342171e+003,-7.015286e+000
2.343135e+003,-8.241446e+000
2.344100e+003,-8.155447e+000
2.345064e+003,-4.922006e+000
2.346028e+003,-2.812561e+000
2.346992e+003,-4.434747e+000
2.347957e+003,-5.936072e+000
2.348921e+003,-5.053155e+000
2.349885e+003,-3.816519e+000
2.350849e+003,-3.773911e+000
2.351814e+003,-4.257959e+000
2.352778e+003,-4.594339e+000
2.353742e+003,-4.670367e+000
2.354706e+003,-4.018518e+000
2.355671e+003,-2.744751e+000
2.356635e+003,-2.763999e+000
2.357599e+003,-4.685971e+000
2.358563e+003,-5.262259e+000
2.359528e+003,-3.841110e+000
2.360492e+003,-3.341287e+000
2.361456e+003,-4.359277e+000
2.362420e+003,-5.024920e+000
2.363385e+003,-4.691770e+000
2.364349e+003,-4.591174e+000
2.365313e+003,-5.468183e+000
2.366277e+003,-6.066709e+000
2.367241e+003,-5.142014e+000
2.368206e+003,-3.910336e+000
2.369170e+003,-4.410117e+000
2.370134e+003,-5.982788e+000
2.371098e+003,-6.888602e+000
2.372063e+003,-7.144797e+000
2.373027e+003,-6.428290e+000
2.373991e+003,-5.125583e+000
2.374955e+003,-5.059845e+000
2.375919e+003,-5.902066e+000
2.376884e+003,-5.430792e+000
2.377848e+003,-3.685538e+000
2.378812e+003,-2.859164e+000
2.379776e+003,-3.646811e+000
2.380741e+003,-5.163068e+000
2.381705e+003,-6.965177e+000
2.382669e+003,-7.967361e+000
2.383633e+003,-6.875150e+000
2.384598e+003,-5.559418e+000
2.385562e+003,-5.735092e+000
2.386526e+003,-6.076315e+000
2.387490e+003,-5.526627e+000
2.388455e+003,-4.506616e+000
2.389419e+003,-2.564371e+000
2.390383e+003,-1.131564e+000
2.391347e+003,-2.928381e+000
2.392312e+003,-6.354745e+000
2.393276e+003,-7.380816e+000
2.394240e+003,-5.989942e+000
2.395204e+003,-5.387659e+000
2.396168e+003,-6.164322e+000
2.397133e+003,-6.436157e+000
2.398097e+003,-5.971750e+000
2.399061e+003,-5.250033e+000
2.400025e+003,-3.760965e+000
2.400990e+003,-3.248923e+000
2.401954e+003,-4.655334e+000
2.402918e+003,-5.677554e+000
2.403882e+003,-5.088010e+000
2.404846e+003,-4.314755e+000
2.405811e+003,-4.524408e+000
2.406775e+003,-5.070462e+000
2.407739e+003,-5.042779e+000
2.408703e+003,-4.725888e+000
2.409668e+003,-4.921783e+000
2.410632e+003,-5.451880e+000
2.411596e+003,-5.463577e+000
2.412560e+003,-5.025510e+000
2.413525e+003,-4.118521e+000
2.414489e+003,-2.994064e+000
2.415453e+003,-2.765878e+000
2.416417e+003,-3.275415e+000
2.417382e+003,-3.067181e+000
2.418346e+003,-2.022079e+000
2.419310e+003,-1.879456e+000
2.420274e+003,-3.321680e+000
2.421239e+003,-4.405783e+000
2.422203e+003,-3.787460e+000
2.423167e+003,-2.861725e+000
2.424131e+003,-2.744870e+000
2.425095e+003,-2.483606e+000
2.426060e+003,-6.516388e-001
2.427024e+003,6.273926e-001
2.427988e+003,-1.095212e+000
2.428952e+003,-3.356369e+000
2.429917e+003,-3.752148e+000
2.430881e+003,-2.959772e+000
2.431845e+003,-2.152188e+000
2.432809e+003,-1.330682e+000
2.433773e+003,6.323852e-002
2.434738e+003,2.029236e+000
2.435702e+003,2.363864e+000
2.436666e+003,2.256134e-001
2.437630e+003,-3.506256e-001
2.438595e+003,1.093631e+000
2.439559e+003,1.953021e+000
2.440523e+003,1.825403e+000
2.441487e+003,1.965332e+000
2.442452e+003,2.744757e+000
2.443416e+003,3.180551e+000
2.444380e+003,2.778613e+000
2.445344e+003,2.170505e+000
2.446309e+003,1.867725e+000
2.447273e+003,1.889072e+000
2.448237e+003,2.256753e+000
2.449201e+003,2.906296e+000
2.450166e+003,4.048700e+000
2.451130e+003,5.204248e+000
2.452094e+003,5.419248e+000
2.453058e+003,5.180243e+000
2.454022e+003,5.444928e+000
2.454987e+003,5.767404e+000
2.455951e+003,5.006482e+000
2.456915e+003,3.581198e+000
2.457879e+003,2.665329e+000
2.458844e+003,2.518518e+000
2.459808e+003,3.119318e+000
2.460772e+003,4.568366e+000
2.461736e+003,5.689072e+000
2.462700e+003,6.166629e+000
2.463665e+003,6.318454e+000
2.464629e+003,5.765466e+000
2.465593e+003,5.790051e+000
2.466557e+003,7.179883e+000
2.467522e+003,7.875723e+000
2.468486e+003,6.817813e+000
2.469450e+003,5.501782e+000
2.470414e+003,4.939386e+000
2.471379e+003,4.788336e+000
2.472343e+003,4.562781e+000
2.473307e+003,4.752875e+000
2.474271e+003,6.785330e+000
2.475236e+003,9.630145e+000
2.476200e+003,9.396845e+000
2.477164e+003,7.350940e+000
2.478128e+003,7.433798e+000
2.479093e+003,8.913843e+000
2.480057e+003,9.463971e+000
2.481021e+003,9.131045e+000
2.481985e+003,8.764456e+000
2.482949e+003,8.668246e+000
2.483914e+003,9.156942e+000
2.484878e+003,1.016819e+001
2.485842e+003,1.071197e+001
2.486806e+003,1.037599e+001
2.487771e+003,9.936066e+000
2.488735e+003,9.411410e+000
2.489699e+003,9.254242e+000
2.490663e+003,9.541870e+000
2.491627e+003,1.021548e+001
2.492592e+003,1.176024e+001
2.493556e+003,1.303905e+001
2.494520e+003,1.374611e+001
2.495484e+003,1.341177e+001
2.496449e+003,1.106869e+001
2.497413e+003,8.901883e+000
2.498377e+003,1.035987e+001
2.499341e+003,1.365643e+001
2.500306e+003,1.384632e+001
2.501270e+003,1.183835e+001
2.502234e+003,1.196153e+001
2.503198e+003,1.347276e+001
2.504163e+003,1.351829e+001
2.505127e+003,1.257556e+001
2.506091e+003,1.254070e+001
2.507055e+003,1.345878e+001
2.508020e+003,1.482632e+001
2.508984e+003,1.627962e+001
2.509948e+003,1.703400e+001
2.510912e+003,1.689627e+001
2.511876e+003,1.672549e+001
2.512841e+003,1.675177e+001
2.513805e+003,1.720190e+001
2.514769e+003,1.851435e+001
2.515733e+003,1.964582e+001
2.516698e+003,1.985032e+001
2.517662e+003,2.056634e+001
2.518626e+003,2.326534e+001
2.519590e+003,2.474240e+001
2.520554e+003,2.251093e+001
2.521519e+003,2.051885e+001
2.522483e+003,2.230284e+001
2.523447e+003,2.567254e+001
2.524411e+003,2.751407e+001
2.525376e+003,2.852446e+001
2.526340e+003,3.065261e+001
2.527304e+003,3.310512e+001
2.528268e+003,3.266249e+001
2.529233e+003,3.098357e+001
2.530197e+003,3.244450e+001
2.531161e+003,3.578637e+001
2.532125e+003,3.771989e+001
2.533090e+003,3.838309e+001
2.534054e+003,3.932620e+001
2.535018e+003,4.074044e+001
2.535982e+003,4.182386e+001
2.536947e+003,4.242725e+001
2.537911e+003,4.356487e+001
2.538875e+003,4.584677e+001
2.539839e+003,4.751208e+001
2.540803e+003,4.770615e+001
2.541768e+003,4.835182e+001
2.542732e+003,4.982276e+001
2.543696e+003,5.111106e+001
2.544660e+003,5.197792e+001
2.545625e+003,5.303403e+001
2.546589e+003,5.463631e+001
2.547553e+003,5.546017e+001
2.548517e+003,5.436810e+001
2.549482e+003,5.367469e+001
2.550446e+003,5.642798e+001
2.551410e+003,5.988138e+001
2.552374e+003,5.946770e+001
2.553339e+003,5.723891e+001
2.554303e+003,5.584341e+001
2.555267e+003,5.491061e+001
2.556231e+003,5.405095e+001
2.557196e+003,5.318530e+001
2.558160e+003,5.207328e+001
2.559124e+003,5.102889e+001
2.560088e+003,5.139750e+001
2.561052e+003,5.226093e+001
2.562017e+003,4.956891e+001
2.562981e+003,4.334740e+001
2.563945e+003,4.046821e+001
2.564909e+003,4.161437e+001
2.565874e+003,4.244791e+001
2.566838e+003,4.307743e+001
2.567802e+003,4.272060e+001
2.568766e+003,4.132701e+001
2.569730e+003,3.910585e+001
2.570695e+003,3.623857e+001
2.571659e+003,3.419580e+001
2.572623e+003,3.332771e+001
2.573587e+003,3.222768e+001
2.574552e+003,3.024640e+001
2.575516e+003,2.863879e+001
2.576480e+003,2.849805e+001
2.577444e+003,2.814072e+001
2.578409e+003,2.609542e+001
2.579373e+003,2.371915e+001
2.580337e+003,2.119189e+001
2.581301e+003,1.946411e+001
2.582266e+003,1.983292e+001
2.583230e+003,2.033287e+001
2.584194e+003,1.965424e+001
2.585158e+003,1.824587e+001
2.586123e+003,1.620635e+001
2.587087e+003,1.464329e+001
2.588051e+003,1.565113e+001
2.589015e+003,1.803872e+001
2.589979e+003,1.800507e+001
2.590944e+003,1.617338e+001
2.591908e+003,1.485898e+001
2.592872e+003,1.390387e+001
2.593836e+003,1.302113e+001
2.594801e+003,1.215952e+001
2.595765e+003,1.118982e+001
2.596729e+003,1.020983e+001
2.597693e+003,9.472641e+000
2.598657e+003,8.963663e+000
2.599622e+003,8.522455e+000
2.600586e+003,8.102582e+000
2.601550e+003,7.331247e+000
2.602514e+003,5.796869e+000
2.603479e+003,4.992294e+000
2.604443e+003,5.192731e+000
2.605407e+003,5.198157e+000
2.606371e+003,4.803812e+000
2.607336e+003,5.383536e+000
2.608300e+003,7.271637e+000
2.609264e+003,7.622391e+000
2.610228e+003,5.493994e+000
2.611193e+003,3.586908e+000
2.612157e+003,3.474143e+000
2.613121e+003,3.961188e+000
2.614085e+003,4.283502e+000
2.615050e+003,4.115949e+000
2.616014e+003,2.653738e+000
2.616978e+003,1.325247e+000
2.617942e+003,1.151819e+000
2.618906e+003,1.340030e+000
2.619871e+003,1.916183e+000
2.620835e+003,2.004700e+000
2.621799e+003,3.884216e-001
2.622763e+003,-1.170584e+000
2.623728e+003,-1.020892e+000
2.624692e+003,2.015564e-001
2.625656e+003,1.626144e+000
2.626620e+003,2.927719e+000
2.627584e+003,3.066296e+000
2.628549e+003,2.463907e+000
2.629513e+003,2.632654e+000
2.630477e+003,3.116696e+000
2.631441e+003,2.570138e+000
2.632406e+003,1.751193e+000
2.633370e+003,2.682339e+000
2.634334e+003,4.365259e+000
2.635298e+003,4.183011e+000
2.636263e+003,2.565787e+000
2.637227e+003,2.027673e+000
2.638191e+003,2.821057e+000
2.639155e+003,3.166000e+000
2.640120e+003,3.019302e+000
2.641084e+003,2.161627e+000
2.642048e+003,1.917114e-001
2.643012e+003,1.128876e-001
2.643977e+003,2.132510e+000
2.644941e+003,3.080484e+000
2.645905e+003,2.482669e+000
2.646869e+003,9.362030e-001
2.647833e+003,-1.041562e+000
2.648798e+003,-1.778882e+000
2.649762e+003,-7.103668e-001
2.650726e+003,6.252686e-001
2.651690e+003,1.594406e+000
2.652655e+003,1.816217e+000
2.653619e+003,6.523132e-002
2.654583e+003,-7.047058e-001
2.655547e+003,1.480426e+000
2.656511e+003,2.926175e+000
2.657476e+003,2.338312e+000
2.658440e+003,1.742328e+000
2.659404e+003,2.119781e+000
2.660368e+003,1.799384e+000
2.661333e+003,-3.835724e-001
2.662297e+003,-2.332144e+000
2.663261e+003,-1.970490e+000
2.664225e+003,-7.937805e-001
2.665190e+003,-5.075318e-001
2.666154e+003,-7.410706e-001
2.667118e+003,-1.519553e+000
2.668082e+003,-2.032223e+000
2.669047e+003,-1.096228e+000
2.670011e+003,-9.249878e-002
2.670975e+003,-3.349853e-001
2.671939e+003,-1.192993e+000
2.672904e+003,-2.527634e+000
2.673868e+003,-3.097565e+000
2.674832e+003,-6.960754e-001
2.675796e+003,2.870343e+000
2.676760e+003,2.741965e+000
2.677725e+003,-1.416321e-002
2.678689e+003,-1.274051e+000
2.679653e+003,-1.345346e+000
2.680617e+003,-9.239563e-001
2.681582e+003,-2.533783e-001
2.682546e+003,5.334808e-001
2.683510e+003,1.160556e+000
2.684474e+003,1.160864e+000
2.685438e+003,5.735504e-001
2.686403e+003,-5.394012e-001
2.687367e+003,-1.976596e+000
2.688331e+003,-2.864239e+000
2.689295e+003,-3.174637e+000
2.690260e+003,-1.989887e+000
2.691224e+003,1.016342e+000
2.692188e+003,2.519751e+000
2.693152e+003,2.461517e+000
2.694117e+003,1.422479e+000
2.695081e+003,-2.893005e-001
2.696045e+003,-2.091699e+000
2.697009e+003,-3.538815e+000
2.697974e+003,-3.557059e+000
2.698938e+003,-2.103503e+000
2.699902e+003,-5.213989e-001
2.700866e+003,7.744964e-001
2.701831e+003,1.716452e+000
2.702795e+003,2.280426e+000
2.703759e+003,2.431473e+000
2.704723e+003,2.013901e+000
2.705688e+003,1.805133e+000
2.706652e+003,1.958231e+000
2.707616e+003,1.679837e+000
2.708580e+003,7.919952e-001
2.709544e+003,-4.578064e-001
2.710509e+003,-1.866922e+000
2.711473e+003,-2.585123e+000
2.712437e+003,-2.160226e+000
2.713401e+003,-1.389047e+000
2.714365e+003,-6.613281e-001
2.715330e+003,-2.251892e-002
2.716294e+003,9.261902e-001
2.717258e+003,1.128000e+000
2.718222e+003,-5.656311e-001
2.719187e+003,-1.918817e+000
2.720151e+003,-2.410959e+000
2.721115e+003,-1.859723e+000
2.722079e+003,3.594971e-003
2.723044e+003,1.243466e+000
2.724008e+003,3.873901e-001
2.724972e+003,-9.644501e-001
2.725936e+003,-1.277054e+000
2.726901e+003,-8.686920e-001
2.727865e+003,7.211822e-001
2.728829e+003,1.809213e+000
2.729793e+003,4.443695e-001
2.730758e+003,-1.215598e+000
2.731722e+003,-1.859167e+000
2.732686e+003,-2.001053e+000
2.733650e+003,-2.019403e+000
2.734615e+003,-1.716254e+000
2.735579e+003,-7.299408e-001
2.736543e+003,-9.757080e-002
2.737507e+003,-1.323605e+000
2.738471e+003,-3.287872e+000
2.739436e+003,-4.116357e+000
2.740400e+003,-4.033051e+000
2.741364e+003,-2.854633e+000
2.742328e+003,-1.551895e+000
2.743292e+003,-1.500006e+000
2.744257e+003,-1.713858e+000
2.745221e+003,-7.985809e-001
2.746185e+003,2.710907e-001
2.747149e+003,-9.536133e-002
2.748114e+003,-8.668548e-001
2.749078e+003,-4.009613e-001
2.750042e+003,6.724365e-001
2.751006e+003,6.257049e-001
2.751971e+003,-2.115723e-001
2.752935e+003,-8.047516e-001
2.753899e+003,-1.197421e+000
2.754863e+003,-1.488547e+000
2.755828e+003,-1.597571e+000
2.756792e+003,-1.286313e+000
2.757756e+003,-8.008453e-001
2.758720e+003,-3.728821e-001
2.759685e+003,-1.589172e-001
2.760649e+003,-3.607269e-001
2.761613e+003,-9.991333e-001
2.762577e+003,-2.482181e+000
2.763542e+003,-4.439715e+000
2.764506e+003,-3.184546e+000
2.765470e+003,2.794403e-001
2.766434e+003,2.041992e-001
2.767398e+003,-2.088409e+000
2.768363e+003,-3.170490e+000
2.769327e+003,-3.169308e+000
2.770291e+003,-2.763416e+000
2.771255e+003,-2.358322e+000
2.772219e+003,-2.853320e+000
2.773184e+003,-3.921310e+000
2.774148e+003,-3.371710e+000
2.775112e+003,-1.392020e+000
2.776076e+003,-1.295279e+000
2.777041e+003,-3.106418e+000
2.778005e+003,-4.672623e+000
2.778969e+003,-5.702737e+000
2.779933e+003,-3.957120e+000
2.780898e+003,-6.691834e-001
2.781862e+003,2.673309e-001
2.782826e+003,-8.624085e-001
2.783790e+003,-2.156564e+000
2.784755e+003,-2.949912e+000
2.785719e+003,-2.117538e+000
2.786683e+003,4.383362e-001
2.787647e+003,1.148352e+000
2.788612e+003,-2.534699e-001
2.789576e+003,-1.793655e+000
2.790540e+003,-3.377133e+000
2.791504e+003,-1.807074e+000
2.792469e+003,1.934830e+000
2.793433e+003,2.176263e+000
2.794397e+003,-5.840667e-001
2.795361e+003,-2.152414e+000
2.796325e+003,-2.059760e+000
2.797290e+003,-2.284836e+000
2.798254e+003,-3.157040e+000
2.799218e+003,-3.410825e+000
2.800182e+003,-2.890546e+000
2.801146e+003,-2.291959e+000
2.802111e+003,-1.625784e+000
2.803075e+003,-3.046570e-002
2.804039e+003,2.263977e+000
2.805003e+003,3.086060e+000
2.805968e+003,2.402066e+000
2.806932e+003,1.247711e+000
2.807896e+003,1.179962e-001
2.808860e+003,-4.809998e-001
2.809825e+003,-5.569397e-001
2.810789e+003,-1.094409e+000
2.811753e+003,-2.535178e+000
2.812717e+003,-2.432819e+000
2.813682e+003,-1.624695e-001
2.814646e+003,1.052612e-001
2.815610e+003,-1.604761e+000
2.816574e+003,-1.681165e+000
2.817539e+003,-2.461060e-001
2.818503e+003,-1.243408e-001
2.819467e+003,-1.403980e+000
2.820431e+003,-2.250443e+000
2.821396e+003,-2.221106e+000
2.822360e+003,-1.834772e+000
2.823324e+003,-1.176483e+000
2.824288e+003,-8.084472e-001
2.825252e+003,-8.241760e-001
2.826217e+003,-9.053070e-001
2.827181e+003,-1.033969e+000
2.828145e+003,-1.229318e+000
2.829109e+003,-1.499103e+000
2.830073e+003,-1.811350e+000
2.831038e+003,-2.096179e+000
2.832002e+003,-2.241235e+000
2.832966e+003,-2.192798e+000
2.833930e+003,-1.741333e+000
2.834895e+003,-8.574737e-001
2.835859e+003,-7.356750e-001
2.836823e+003,-1.682898e+000
2.837787e+003,-2.061832e+000
2.838752e+003,-1.819128e+000
2.839716e+003,-2.042111e+000
2.840680e+003,-2.618350e+000
2.841644e+003,-2.058023e+000
2.842609e+003,-7.059967e-001
2.843573e+003,-4.629517e-001
2.844537e+003,-1.377280e+000
2.845501e+003,-2.227484e+000
2.846466e+003,-2.746060e+000
2.847430e+003,-2.996008e+000
2.848394e+003,-2.997754e+000
2.849358e+003,-2.710205e+000
2.850323e+003,-2.141907e+000
2.851287e+003,-4.879517e-001
2.852251e+003,1.866626e+000
2.853215e+003,2.361884e+000
2.854179e+003,1.280682e+000
2.855144e+003,3.645965e-001
2.856108e+003,-2.140961e-001
2.857072e+003,-1.292743e+000
2.858036e+003,-2.771619e+000
2.859000e+003,-2.957785e+000
2.859965e+003,-1.764343e+000
2.860929e+003,-7.641236e-001
2.861893e+003,2.925110e-002
2.862857e+003,-4.822571e-001
2.863822e+003,-1.839511e+000
2.864786e+003,-1.904330e+000
2.865750e+003,-8.852478e-001
2.866714e+003,7.101440e-001
2.867679e+003,2.029886e+000
2.868643e+003,9.774567e-001
2.869607e+003,-1.800580e+000
2.870571e+003,-2.639533e+000
2.871536e+003,-1.562436e+000
2.872500e+003,9.973205e-001
2.873464e+003,4.784213e+000
2.874428e+003,3.157230e+000
2.875393e+003,-2.037836e+000
2.876357e+003,-5.138510e+000
2.877321e+003,-6.038478e+000
2.878285e+003,-4.932684e+000
2.879250e+003,-2.771921e+000
2.880214e+003,-5.522797e-001
2.881178e+003,1.104770e+000
2.882142e+003,9.968567e-001
2.883106e+003,-3.939911e-001
2.884071e+003,-1.475119e+000
2.885035e+003,-2.066327e+000
2.885999e+003,-5.271972e-001
2.886963e+003,1.861334e+000
2.887927e+003,1.799982e+000
2.888892e+003,5.517578e-001
2.889856e+003,2.044678e-001
2.890820e+003,2.911774e-001
2.891784e+003,-2.751099e-001
2.892749e+003,-1.126273e+000
2.893713e+003,-1.553589e+000
2.894677e+003,-1.677512e+000
2.895641e+003,-1.871866e+000
2.896606e+003,-1.855942e+000
2.897570e+003,-3.083801e-001
2.898534e+003,1.501913e+000
2.899498e+003,1.267154e+000
2.900463e+003,2.786224e-001
2.901427e+003,-4.657593e-002
2.902391e+003,-1.040192e-001
2.903355e+003,-5.111939e-001
2.904320e+003,-8.649505e-001
2.905284e+003,-7.516297e-001
2.906248e+003,-2.966522e-001
2.907212e+003,4.299683e-001
2.908177e+003,1.116196e+000
2.909141e+003,1.158511e+000
2.910105e+003,9.265411e-001
2.911069e+003,6.053955e-001
2.912033e+003,4.425781e-001
2.912998e+003,9.124359e-001
2.913962e+003,1.239642e+000
2.914926e+003,8.916229e-001
2.915890e+003,4.545410e-001
2.916854e+003,3.721313e-001
2.917819e+003,1.580811e-001
2.918783e+003,-7.923523e-001
2.919747e+003,-1.415103e+000
2.920711e+003,5.026184e-001
2.921676e+003,1.545114e+000
2.922640e+003,-1.928018e+000
2.923604e+003,-4.501349e+000
2.924568e+003,-3.775128e+000
2.925533e+003,-2.447757e+000
2.926497e+003,-1.407410e+000
2.927461e+003,5.945374e-001
2.928425e+003,3.991565e+000
2.929390e+003,-3.100876e+000
2.930354e+003,-3.100504e+001
2.931318e+003,-4.774266e+001
2.932282e+003,-2.220049e+001
2.933247e+003,-1.745526e+000
2.934211e+003,-2.319855e+000
2.935175e+003,-2.881210e+000
2.936139e+003,-1.570004e+000
2.937104e+003,1.137756e-001
2.938068e+003,1.730399e+000
2.939032e+003,1.686807e+000
2.939996e+003,-2.099060e-001
2.940960e+003,-1.643906e+000
2.941925e+003,-1.720490e+000
2.942889e+003,-1.501816e+000
2.943853e+003,-1.018906e+000
2.944817e+003,-1.274084e+000
2.945781e+003,-2.654572e+000
2.946746e+003,-2.504303e+000
2.947710e+003,-7.965912e-001
2.948674e+003,1.445358e+000
2.949638e+003,3.503055e+000
2.950603e+003,3.285123e+000
2.951567e+003,1.136151e+000
2.952531e+003,-5.432068e-001
2.953495e+003,-1.232706e+000
2.954460e+003,-9.062195e-001
2.955424e+003,4.011749e-001
2.956388e+003,-7.244629e-001
2.957352e+003,-3.774429e+000
2.958317e+003,-3.108328e+000
2.959281e+003,-1.946472e-001
2.960245e+003,7.942993e-001
2.961209e+003,2.581421e-001
2.962174e+003,-5.580261e-001
2.963138e+003,-1.303131e+000
2.964102e+003,-1.792743e+000
2.965066e+003,-1.852551e+000
2.966031e+003,-8.981689e-001
2.966995e+003,4.853546e-001
2.967959e+003,5.901489e-002
2.968923e+003,-1.085492e+000
2.969887e+003,-2.342682e-001
2.970852e+003,8.795044e-001
2.971816e+003,-3.874481e-001
2.972780e+003,-1.965369e+000
2.973744e+003,-1.133569e+000
2.974708e+003,-3.565308e-001
2.975673e+003,-1.907355e+000
2.976637e+003,-3.600568e+000
2.977601e+003,-2.739874e+000
2.978565e+003,-1.248874e+000
2.979530e+003,-1.928458e+000
2.980494e+003,-2.790534e+000
2.981458e+003,-2.232461e+000
2.982422e+003,-1.308295e+000
2.983387e+003,-1.473145e-001
2.984351e+003,2.890747e-001
2.985315e+003,-4.169342e-001
2.986279e+003,-1.000339e+000
2.987244e+003,-8.453919e-001
2.988208e+003,-9.934112e-001
2.989172e+003,-2.140094e+000
2.990136e+003,-3.231680e+000
2.991101e+003,-3.810025e+000
2.992065e+003,-3.797302e+000
2.993029e+003,-3.163519e+000
2.993993e+003,-1.798523e+000
2.994958e+003,3.915253e-001
2.995922e+003,6.551574e-001
2.996886e+003,-1.071960e+000
2.997850e+003,-1.563162e+000
2.998814e+003,-3.277557e-001
2.999779e+003,1.901886e-001
3.000743e+003,-6.881256e-001
3.001707e+003,-1.369968e+000
3.002671e+003,-1.708386e+000
3.003635e+003,-1.542242e+000
3.004600e+003,-9.392822e-001
3.005564e+003,-8.766357e-001
3.006528e+003,-1.273785e+000
3.007492e+003,-2.176535e+000
3.008457e+003,-2.871277e+000
3.009421e+003,-1.426416e+000
3.010385e+003,1.103516e+000
3.011349e+003,1.843854e+000
3.012314e+003,1.048733e+000
3.013278e+003,-7.826203e-001
3.014242e+003,-3.034271e+000
3.015206e+003,-3.761070e+000
3.016171e+003,-3.363940e+000
3.017135e+003,-1.893701e+000
3.018099e+003,-3.605591e-001
3.019063e+003,4.101685e-001
3.020028e+003,3.991394e-001
3.020992e+003,-4.665039e-001
3.021956e+003,-1.559271e+000
3.022920e+003,-2.395682e+000
3.023885e+003,-2.765073e+000
3.024849e+003,-2.275061e+000
3.025813e+003,-1.775504e+000
3.026777e+003,-2.157062e+000
3.027741e+003,-2.676318e+000
3.028706e+003,-3.322659e+000
3.029670e+003,-3.309418e+000
3.030634e+003,-2.325278e+000
3.031598e+003,-1.251971e+000
3.032563e+003,-4.515839e-001
3.033527e+003,-4.139679e-001
3.034491e+003,-1.237396e+000
3.035455e+003,-1.868268e+000
3.036420e+003,-1.797147e+000
3.037384e+003,-1.791971e+000
3.038348e+003,-1.974701e+000
3.039312e+003,-2.467834e+000
3.040277e+003,-3.256985e+000
3.041241e+003,-3.687244e+000
3.042205e+003,-3.686288e+000
3.043169e+003,-2.996756e+000
3.044134e+003,-2.000711e+000
3.045098e+003,-1.805997e+000
3.046062e+003,-2.404605e+000
3.047026e+003,-2.953009e+000
3.047990e+003,-3.341499e+000
3.048955e+003,-3.178844e+000
3.049919e+003,-2.646750e+000
3.050883e+003,-2.483078e+000
3.051847e+003,-2.571649e+000
3.052812e+003,-3.153429e+000
3.053776e+003,-3.412288e+000
3.054740e+003,-1.895721e+000
3.055704e+003,-1.857025e-001
3.056668e+003,3.270477e-001
3.057633e+003,2.313294e-001
3.058597e+003,1.579132e-001
3.059561e+003,-2.204926e-001
3.060525e+003,-1.535593e+000
3.061490e+003,-2.972520e+000
3.062454e+003,-4.554975e+000
3.063418e+003,-4.867659e+000
3.064382e+003,-2.591419e+000
3.065347e+003,-1.489987e+000
3.066311e+003,-2.604858e+000
3.067275e+003,-3.566548e+000
3.068239e+003,-3.430589e+000
3.069204e+003,-2.641101e+000
3.070168e+003,-1.421314e+000
3.071132e+003,-1.193823e+000
3.072096e+003,-3.063051e+000
3.073061e+003,-3.989421e+000
3.074025e+003,-3.899647e+000
3.074989e+003,-2.701805e+000
3.075953e+003,-9.625061e-001
3.076917e+003,-1.650101e+000
3.077882e+003,-3.862054e+000
3.078846e+003,-4.275018e+000
3.079810e+003,-3.112015e+000
3.080774e+003,-2.630005e+000
3.081739e+003,-2.700012e+000
3.082703e+003,-2.548209e+000
3.083667e+003,-2.400232e+000
3.084631e+003,-3.373047e+000
3.085595e+003,-4.435304e+000
3.086560e+003,-3.406293e+000
3.087524e+003,-2.151422e+000
3.088488e+003,-2.815471e+000
3.089452e+003,-3.897661e+000
3.090417e+003,-4.537225e+000
3.091381e+003,-4.246701e+000
3.092345e+003,-2.582573e+000
3.093309e+003,-1.445834e+000
3.094274e+003,-2.925923e+000
3.095238e+003,-4.259757e+000
3.096202e+003,-3.414087e+000
3.097166e+003,-2.502948e+000
3.098131e+003,-1.723578e+000
3.099095e+003,-1.984699e+000
3.100059e+003,-3.345648e+000
3.101023e+003,-4.124795e+000
3.101988e+003,-3.970631e+000
3.102952e+003,-3.524174e+000
3.103916e+003,-3.013838e+000
3.104880e+003,-2.377379e+000
3.105844e+003,-1.579764e+000
3.106809e+003,-2.123305e+000
3.107773e+003,-3.839507e+000
3.108737e+003,-5.107056e+000
3.109701e+003,-5.625424e+000
3.110666e+003,-3.921899e+000
3.111630e+003,-1.693373e+000
3.112594e+003,-1.785817e+000
3.113558e+003,-3.118970e+000
3.114522e+003,-4.133270e+000
3.115487e+003,-4.750371e+000
3.116451e+003,-4.787836e+000
3.117415e+003,-4.541284e+000
3.118379e+003,-4.480077e+000
3.119344e+003,-4.272482e+000
3.120308e+003,-3.038680e+000
3.121272e+003,-2.808549e+000
3.122236e+003,-4.709342e+000
3.123201e+003,-5.632027e+000
3.124165e+003,-4.620422e+000
3.125129e+003,-3.652707e+000
3.126093e+003,-3.554982e+000
3.127058e+003,-3.537720e+000
3.128022e+003,-3.264105e+000
3.128986e+003,-3.042673e+000
3.129950e+003,-2.832248e+000
3.130915e+003,-3.182809e+000
3.131879e+003,-3.962741e+000
3.132843e+003,-3.678094e+000
3.133807e+003,-2.702640e+000
3.134771e+003,-2.211040e+000
3.135736e+003,-2.198500e+000
3.136700e+003,-2.253787e+000
3.137664e+003,-2.479858e+000
3.138628e+003,-3.247829e+000
3.139593e+003,-4.206306e+000
3.140557e+003,-4.714887e+000
3.141521e+003,-4.663106e+000
3.142485e+003,-3.393842e+000
3.143449e+003,-2.121582e+000
3.144414e+003,-1.190021e+000
3.145378e+003,-1.898528e+000
3.146342e+003,-5.220010e+000
3.147306e+003,-6.976102e+000
3.148271e+003,-5.290540e+000
3.149235e+003,-3.546751e+000
3.150199e+003,-3.634445e+000
3.151163e+003,-4.094148e+000
3.152128e+003,-4.440927e+000
3.153092e+003,-4.698567e+000
3.154056e+003,-4.908820e+000
3.155020e+003,-4.650144e+000
3.155985e+003,-4.044660e+000
3.156949e+003,-3.469061e+000
3.157913e+003,-3.198622e+000
3.158877e+003,-4.176652e+000
3.159842e+003,-5.694819e+000
3.160806e+003,-5.642503e+000
3.161770e+003,-4.442721e+000
3.162734e+003,-2.957977e+000
3.163698e+003,-1.692891e+000
3.164663e+003,-2.132950e+000
3.165627e+003,-2.959793e+000
3.166591e+003,-2.842552e+000
3.167555e+003,-2.446857e+000
3.168520e+003,-1.968765e+000
3.169484e+003,-2.302641e+000
3.170448e+003,-3.861350e+000
3.171412e+003,-4.843071e+000
3.172376e+003,-4.197029e+000
3.173341e+003,-3.133492e+000
3.174305e+003,-1.977002e+000
3.175269e+003,-1.473686e+000
3.176233e+003,-1.791771e+000
3.177198e+003,-1.891800e+000
3.178162e+003,-1.741682e+000
3.179126e+003,-1.154443e+000
3.180090e+003,-6.558350e-001
3.181055e+003,-2.302208e+000
3.182019e+003,-4.879302e+000
3.182983e+003,-4.372790e+000
3.183947e+003,-2.214296e+000
3.184912e+003,-1.954878e+000
3.185876e+003,-2.676335e+000
3.186840e+003,-2.362750e+000
3.187804e+003,-1.851707e+000
3.188769e+003,-1.928786e+000
3.189733e+003,-2.310753e+000
3.190697e+003,-2.986377e+000
3.191661e+003,-3.425522e+000
3.192625e+003,-3.403395e+000
3.193590e+003,-3.116147e+000
3.194554e+003,-2.689529e+000
3.195518e+003,-2.614058e+000
3.196482e+003,-3.401927e+000
3.197447e+003,-3.154944e+000
3.198411e+003,-1.469022e+000
3.199375e+003,-1.283401e+000
3.200339e+003,-2.190480e+000
3.201303e+003,-9.444610e-001
3.202268e+003,1.426367e+000
3.203232e+003,2.133505e+000
3.204196e+003,1.116785e+000
3.205160e+003,-1.119673e+000
3.206125e+003,-3.471561e+000
3.207089e+003,-4.013731e+000
3.208053e+003,-3.403001e+000
3.209017e+003,-2.089134e+000
3.209982e+003,-1.149965e+000
3.210946e+003,-2.265878e+000
3.211910e+003,-2.581473e+000
3.212874e+003,-8.247238e-001
3.213839e+003,4.155273e-001
3.214803e+003,2.365509e-001
3.215767e+003,-1.596307e+000
3.216731e+003,-4.782661e+000
3.217696e+003,-5.364600e+000
3.218660e+003,-1.391359e+000
3.219624e+003,5.162598e-001
3.220588e+003,2.613449e-001
3.221552e+003,-6.383804e-001
3.222517e+003,-1.836237e+000
3.223481e+003,-2.750407e+000
3.224445e+003,-3.163118e+000
3.225409e+003,-2.336910e+000
3.226374e+003,-1.320010e+000
3.227338e+003,-1.349646e+000
3.228302e+003,-1.770343e+000
3.229266e+003,-1.839828e+000
3.230230e+003,-1.576590e+000
3.231195e+003,-6.775955e-001
3.232159e+003,7.010193e-002
3.233123e+003,4.919067e-001
3.234087e+003,-4.634857e-002
3.235052e+003,-1.663518e+000
3.236016e+003,-1.564783e+000
3.236980e+003,2.118530e-001
3.237944e+003,-3.340240e-001
3.238909e+003,-3.543720e+000
3.239873e+003,-4.073753e+000
3.240837e+003,-2.064807e+000
3.241801e+003,-1.811258e+000
3.242766e+003,-2.835205e+000
3.243730e+003,-3.538620e+000
3.244694e+003,-3.779130e+000
3.245658e+003,-2.890152e+000
3.246623e+003,-2.136723e+000
3.247587e+003,-2.691060e+000
3.248551e+003,-3.305998e+000
3.249515e+003,-3.195615e+000
3.250479e+003,-2.705693e+000
3.251444e+003,-2.022704e+000
3.252408e+003,-1.628976e+000
3.253372e+003,-1.656113e+000
3.254336e+003,-2.591351e+000
3.255301e+003,-4.581256e+000
3.256265e+003,-4.654798e+000
3.257229e+003,-3.210315e+000
3.258193e+003,-3.423999e+000
3.259157e+003,-4.590788e+000
3.260122e+003,-2.980812e+000
3.261086e+003,-2.155548e-001
3.262050e+003,-5.146408e-001
3.263014e+003,-2.464056e+000
3.263979e+003,-3.230740e+000
3.264943e+003,-3.234349e+000
3.265907e+003,-2.501854e+000
3.266871e+003,-1.972356e+000
3.267836e+003,-2.507466e+000
3.268800e+003,-2.246101e+000
3.269764e+003,-6.705002e-001
3.270728e+003,-1.687622e-003
3.271693e+003,-9.439560e-001
3.272657e+003,-2.015843e+000
3.273621e+003,-2.726187e+000
3.274585e+003,-2.941954e+000
3.275550e+003,-2.666353e+000
3.276514e+003,-1.797414e+000
3.277478e+003,-7.923889e-001
3.278442e+003,-1.368373e+000
3.279406e+003,-2.371379e+000
3.280371e+003,-1.650490e+000
3.281335e+003,-9.391998e-001
3.282299e+003,-1.951988e+000
3.283263e+003,-2.610274e+000
3.284228e+003,-8.851303e-001
3.285192e+003,9.156479e-001
3.286156e+003,7.090836e-001
3.287120e+003,3.932694e-001
3.288084e+003,2.056305e-001
3.289049e+003,1.171213e+000
3.290013e+003,3.051138e+000
3.290977e+003,2.445064e+000
3.291941e+003,-6.819458e-002
3.292906e+003,-1.129543e+000
3.293870e+003,-5.452331e-001
3.294834e+003,2.842667e-001
3.295798e+003,9.202576e-001
3.296763e+003,-2.418152e-001
3.297727e+003,-1.686507e+000
3.298691e+003,-1.762482e-001
3.299655e+003,1.281363e+000
3.300620e+003,-4.818924e-001
3.301584e+003,-1.145908e+000
3.302548e+003,5.517105e-001
3.303512e+003,1.963962e+000
3.304477e+003,2.112273e+000
3.305441e+003,1.693143e+000
3.306405e+003,9.373673e-001
3.307369e+003,6.792160e-001
3.308333e+003,9.368545e-001
3.309298e+003,2.227806e+000
3.310262e+003,3.990665e+000
3.311226e+003,4.681717e+000
3.312190e+003,4.462823e+000
3.313155e+003,2.879788e+000
3.314119e+003,1.699475e+000
3.315083e+003,2.294435e+000
3.316047e+003,3.586249e+000
3.317011e+003,4.781882e+000
3.317976e+003,5.011301e+000
3.318940e+003,2.664424e+000
3.319904e+003,1.660890e+000
3.320868e+003,3.005614e+000
3.321833e+003,3.278410e+000
3.322797e+003,2.508919e+000
3.323761e+003,2.544959e+000
3.324725e+003,3.162639e+000
3.325690e+003,3.048199e+000
3.326654e+003,2.435069e+000
3.327618e+003,2.093565e+000
3.328582e+003,2.114084e+000
3.329547e+003,3.025003e+000
3.330511e+003,3.785384e+000
3.331475e+003,2.792355e+000
3.332439e+003,1.841980e+000
3.333404e+003,1.652960e+000
3.334368e+003,1.817799e+000
3.335332e+003,2.195770e+000
3.336296e+003,2.053436e+000
3.337260e+003,1.326245e+000
3.338225e+003,9.346832e-001
3.339189e+003,1.054022e+000
3.340153e+003,9.919388e-001
3.341117e+003,8.578186e-001
3.342082e+003,1.448869e+000
3.343046e+003,2.116652e+000
3.344010e+003,2.012212e+000
3.344974e+003,1.211000e+000
3.345938e+003,-5.985764e-001
3.346903e+003,-1.671036e+000
3.347867e+003,-1.197884e+000
3.348831e+003,-1.712540e-001
3.349795e+003,8.869522e-001
3.350760e+003,9.978134e-001
3.351724e+003,-8.898239e-001
3.352688e+003,-6.247848e-001
3.353652e+003,1.518341e+000
3.354617e+003,2.844565e+000
3.355581e+003,3.242403e+000
3.356545e+003,2.351929e+000
3.357509e+003,1.183562e+000
3.358474e+003,1.016129e+000
3.359438e+003,1.115561e+000
3.360402e+003,7.311951e-001
3.361366e+003,8.821045e-001
3.362331e+003,3.449090e+000
3.363295e+003,4.317915e+000
3.364259e+003,5.987991e-001
3.365223e+003,-2.812241e-001
3.366188e+003,1.852863e+000
3.367152e+003,2.753795e+000
3.368116e+003,2.220877e+000
3.369080e+003,1.569463e+000
3.370044e+003,1.034175e+000
3.371009e+003,4.544037e-001
3.371973e+003,2.946167e-001
3.372937e+003,1.850975e+000
3.373901e+003,3.460870e+000
3.374865e+003,2.870587e+000
3.375830e+003,1.973166e+000
3.376794e+003,1.521965e+000
3.377758e+003,8.186920e-001
3.378722e+003,-1.367462e-001
3.379687e+003,3.826614e-001
3.380651e+003,2.357074e+000
3.381615e+003,3.252483e+000
3.382579e+003,3.023701e+000
3.383544e+003,4.274245e+000
3.384508e+003,6.221680e+000
3.385472e+003,6.008815e+000
3.386436e+003,4.844302e+000
3.387401e+003,3.610397e+000
3.388365e+003,2.886076e+000
3.389329e+003,2.846886e+000
3.390293e+003,3.552266e+000
3.391258e+003,4.932501e+000
3.392222e+003,6.073546e+000
3.393186e+003,6.616712e+000
3.394150e+003,6.761362e+000
3.395115e+003,6.540108e+000
3.396079e+003,6.264139e+000
3.397043e+003,6.060004e+000
3.398007e+003,6.277484e+000
3.398971e+003,6.930881e+000
3.399936e+003,8.303760e+000
3.400900e+003,9.595920e+000
3.401864e+003,1.034797e+001
3.402828e+003,1.083361e+001
3.403792e+003,1.125849e+001
3.404757e+003,1.120183e+001
3.405721e+003,9.671728e+000
3.406685e+003,1.046411e+001
3.407649e+003,1.361730e+001
3.408614e+003,1.482708e+001
3.409578e+003,1.471697e+001
3.410542e+003,1.514618e+001
3.411506e+003,1.627276e+001
3.412471e+003,1.799241e+001
3.413435e+003,2.010524e+001
3.414399e+003,2.257730e+001
3.415363e+003,2.440257e+001
3.416328e+003,2.466152e+001
3.417292e+003,2.358289e+001
3.418256e+003,2.023083e+001
3.419220e+003,1.969464e+001
3.420185e+003,2.197806e+001
3.421149e+003,2.465861e+001
3.422113e+003,2.683224e+001
3.423077e+003,2.726998e+001
3.424042e+003,2.640920e+001
3.425006e+003,2.525177e+001
3.425970e+003,2.407551e+001
3.426934e+003,2.320091e+001
