7.140112e+001,1.968727e+002
7.236536e+001,1.877721e+002
7.332959e+001,1.879679e+002
7.429382e+001,1.950800e+002
7.525806e+001,2.107928e+002
7.622229e+001,2.175512e+002
7.718652e+001,2.027925e+002
7.815076e+001,1.546735e+002
7.911499e+001,1.218899e+002
8.007922e+001,1.007186e+002
8.104346e+001,9.139175e+001
8.200769e+001,9.485115e+001
8.297192e+001,1.172754e+002
8.393616e+001,1.469431e+002
8.490039e+001,1.941747e+002
8.586462e+001,2.457983e+002
8.682886e+001,2.796637e+002
8.779310e+001,2.512851e+002
8.875733e+001,2.029677e+002
8.972157e+001,1.561191e+002
9.068580e+001,1.191714e+002
9.165003e+001,9.235321e+001
9.261427e+001,8.432700e+001
9.357850e+001,8.881792e+001
9.454273e+001,9.435632e+001
9.550697e+001,9.303623e+001
9.647120e+001,8.263530e+001
9.743543e+001,7.372345e+001
9.839967e+001,6.547556e+001
9.936390e+001,5.836366e+001
1.003281e+002,5.302208e+001
1.012924e+002,4.990894e+001
1.022566e+002,4.830868e+001
1.032208e+002,4.814392e+001
1.041851e+002,4.953030e+001
1.051493e+002,5.272235e+001
1.061135e+002,6.417712e+001
1.070778e+002,7.266267e+001
1.080420e+002,7.099099e+001
1.090062e+002,5.806126e+001
1.099705e+002,3.962519e+001
1.109347e+002,2.909673e+001
1.118989e+002,2.412604e+001
1.128632e+002,2.498633e+001
1.138274e+002,3.198838e+001
1.147916e+002,4.663159e+001
1.157559e+002,5.298328e+001
1.167201e+002,4.833997e+001
1.176843e+002,4.028119e+001
1.186486e+002,3.819582e+001
1.196128e+002,4.808162e+001
1.205770e+002,5.619275e+001
1.215413e+002,6.416589e+001
1.225055e+002,6.985291e+001
1.234697e+002,6.903978e+001
1.244340e+002,5.020232e+001
1.253982e+002,3.047651e+001
1.263624e+002,1.106832e+001
1.273267e+002,-5.271240e+000
1.282909e+002,-1.321542e+001
1.292551e+002,1.161836e+001
1.302194e+002,4.631536e+001
1.311836e+002,7.024327e+001
1.321478e+002,7.040771e+001
1.331121e+002,4.672737e+001
1.340763e+002,2.751323e+001
1.350405e+002,1.118926e+001
1.360048e+002,8.186035e-001
1.369690e+002,8.212646e-001
1.379332e+002,2.248462e+001
1.388975e+002,3.636480e+001
1.398617e+002,4.026213e+001
1.408259e+002,3.733818e+001
1.417902e+002,3.259063e+001
1.427544e+002,2.635244e+001
1.437186e+002,2.013082e+001
1.446829e+002,1.343717e+001
1.456471e+002,6.850940e+000
1.466113e+002,1.638965e+000
1.475756e+002,-1.107153e+000
1.485398e+002,-9.090698e-001
1.495040e+002,5.520081e+000
1.504683e+002,1.847894e+001
1.514325e+002,3.509763e+001
1.523967e+002,3.731925e+001
1.533610e+002,2.853933e+001
1.543252e+002,1.786862e+001
1.552894e+002,1.178949e+001
1.562537e+002,1.226643e+001
1.572179e+002,1.171080e+001
1.581821e+002,7.421204e+000
1.591464e+002,3.894470e+000
1.601106e+002,6.732202e+000
1.610748e+002,2.454443e+001
1.620391e+002,3.567583e+001
1.630033e+002,3.199883e+001
1.639676e+002,1.975946e+001
1.649318e+002,8.956873e+000
1.658960e+002,1.181499e+001
1.668603e+002,1.660773e+001
1.678245e+002,1.381746e+001
1.687887e+002,4.135010e+000
1.697530e+002,-6.927429e+000
1.707172e+002,-1.574951e+000
1.716814e+002,1.376126e+001
1.726457e+002,2.341688e+001
1.736099e+002,2.118283e+001
1.745741e+002,6.485339e+000
1.755384e+002,-3.632226e+000
1.765026e+002,-9.521509e+000
1.774668e+002,-1.248810e+001
1.784311e+002,-1.224653e+001
1.793953e+002,-7.274573e+000
1.803595e+002,-3.325342e+000
1.813238e+002,-1.699011e+000
1.822880e+002,-1.173474e+000
1.832522e+002,-2.937134e-001
1.842165e+002,2.838281e+000
1.851807e+002,3.460498e+000
1.861449e+002,-3.323523e+000
1.871092e+002,-1.389084e+001
1.880734e+002,-2.391272e+001
1.890376e+002,-2.774675e+001
1.900019e+002,-2.557921e+001
1.909661e+002,-1.899661e+001
1.919303e+002,-8.322302e+000
1.928946e+002,3.821899e+000
1.938588e+002,8.404455e+000
1.948230e+002,2.354492e-001
1.957873e+002,-4.027539e+000
1.967515e+002,-7.791748e-002
1.977157e+002,1.185175e+001
1.986800e+002,2.183356e+001
1.996442e+002,2.827157e+001
2.006084e+002,3.301287e+001
2.015727e+002,3.683507e+001
2.025369e+002,3.997439e+001
2.035011e+002,4.081071e+001
2.044654e+002,3.726000e+001
2.054296e+002,3.202307e+001
2.063938e+002,2.623429e+001
2.073581e+002,2.068369e+001
2.083223e+002,1.561403e+001
2.092865e+002,9.560803e+000
2.102508e+002,3.854517e+000
2.112150e+002,2.769702e+000
2.121792e+002,1.093657e+001
2.131435e+002,3.180527e+001
2.141077e+002,4.327650e+001
2.150719e+002,4.180212e+001
2.160362e+002,3.439442e+001
2.170004e+002,3.154799e+001
2.179646e+002,3.871714e+001
2.189289e+002,4.299127e+001
2.198931e+002,4.050813e+001
2.208573e+002,3.455851e+001
2.218216e+002,3.147858e+001
2.227858e+002,3.726200e+001
2.237500e+002,4.549343e+001
2.247143e+002,5.779629e+001
2.256785e+002,7.120107e+001
2.266427e+002,7.972361e+001
2.276070e+002,6.682906e+001
2.285712e+002,4.363361e+001
2.295354e+002,2.397043e+001
2.304997e+002,1.192524e+001
2.314639e+002,6.647888e+000
2.324281e+002,3.233081e+000
2.333924e+002,1.702466e+000
2.343566e+002,1.364148e+000
2.353208e+002,2.697778e+000
2.362851e+002,6.261865e+000
2.372493e+002,7.554248e+000
2.382135e+002,4.748596e+000
2.391778e+002,1.547827e+000
2.401420e+002,4.127197e-002
2.411062e+002,1.238220e+000
2.420705e+002,1.690137e+000
2.430347e+002,-1.168835e+000
2.439989e+002,-5.232642e+000
2.449632e+002,-9.302649e+000
2.459274e+002,-1.253969e+001
2.468916e+002,-1.427017e+001
2.478559e+002,-1.315907e+001
2.488201e+002,-1.018317e+001
2.497843e+002,-7.323096e+000
2.507486e+002,-6.932446e+000
2.517128e+002,-9.840711e+000
2.526770e+002,-9.441870e+000
2.536413e+002,-3.929822e+000
2.546055e+002,3.178003e+000
2.555697e+002,6.195142e+000
2.565340e+002,3.205444e-001
2.574982e+002,-3.140857e+000
2.584625e+002,-1.371448e+000
2.594267e+002,3.167285e+000
2.603909e+002,5.983630e+000
2.613552e+002,2.575073e+000
2.623194e+002,-1.330298e+000
2.632836e+002,-3.318017e+000
2.642479e+002,-3.455566e+000
2.652121e+002,-2.606055e+000
2.661763e+002,-1.488586e+000
2.671406e+002,-6.059326e-001
2.681048e+002,-1.171887e+000
2.690690e+002,-3.291968e+000
2.700333e+002,-6.141394e+000
2.709975e+002,-6.043542e+000
2.719617e+002,-1.546985e+000
2.729260e+002,1.149292e+000
2.738902e+002,-2.311890e-001
2.748544e+002,-5.623621e+000
2.758187e+002,-9.550232e+000
2.767829e+002,-1.155203e+001
2.777471e+002,-1.253328e+001
2.787114e+002,-1.236808e+001
2.796756e+002,-1.106009e+001
2.806398e+002,-9.200098e+000
2.816041e+002,-6.690308e+000
2.825683e+002,-4.329346e+000
2.835325e+002,-2.696313e+000
2.844968e+002,-1.982922e+000
2.854610e+002,-1.686890e+000
2.864252e+002,1.067139e-001
2.873895e+002,2.346887e+000
2.883537e+002,3.178979e+000
2.893179e+002,1.444763e+000
2.902822e+002,-2.980859e+000
2.912464e+002,-7.076355e+000
2.922106e+002,-1.123147e+001
2.931749e+002,-1.484222e+001
2.941391e+002,-1.755037e+001
2.951033e+002,-1.931985e+001
2.960676e+002,-2.043767e+001
2.970318e+002,-2.155903e+001
2.979960e+002,-2.166962e+001
2.989603e+002,-1.983589e+001
2.999245e+002,-1.536963e+001
3.008887e+002,-1.028351e+001
3.018530e+002,-5.528528e+000
3.028172e+002,-1.297485e+000
3.037814e+002,2.362463e+000
3.047457e+002,5.458948e+000
3.057099e+002,7.435266e+000
3.066741e+002,6.955481e+000
3.076384e+002,4.391626e+000
3.086026e+002,8.881226e-001
3.095668e+002,-2.317761e+000
3.105311e+002,-5.144165e+000
3.114953e+002,-6.946008e+000
3.124595e+002,-7.465613e+000
3.134238e+002,-7.407263e+000
3.143880e+002,-7.607984e+000
3.153522e+002,-8.495483e+000
3.163165e+002,-9.078052e+000
3.172807e+002,-9.377111e+000
3.182449e+002,-9.059009e+000
3.192092e+002,-7.714258e+000
3.201734e+002,-4.800940e+000
3.211376e+002,-1.489465e+000
3.221019e+002,1.346863e+000
3.230661e+002,3.896533e+000
3.240303e+002,6.674817e+000
3.249946e+002,1.049531e+001
3.259588e+002,1.450869e+001
3.269230e+002,1.527086e+001
3.278873e+002,1.266565e+001
3.288515e+002,8.414221e+000
3.298157e+002,5.554199e+000
3.307800e+002,5.211511e+000
3.317442e+002,4.920215e+000
3.327084e+002,3.820068e+000
3.336727e+002,2.782507e+000
3.346369e+002,3.652063e+000
3.356011e+002,9.818995e+000
3.365654e+002,1.363442e+001
3.375296e+002,1.186444e+001
3.384938e+002,6.989087e+000
3.394581e+002,2.988171e+000
3.404223e+002,3.740906e+000
3.413865e+002,6.003381e+000
3.423508e+002,6.659436e+000
3.433150e+002,5.999451e+000
3.442792e+002,5.034436e+000
3.452435e+002,5.270398e+000
3.462077e+002,6.870105e+000
3.471719e+002,8.415906e+000
3.481362e+002,9.103101e+000
3.491004e+002,1.072513e+001
3.500646e+002,1.728074e+001
3.510289e+002,2.944612e+001
3.519931e+002,4.791127e+001
3.529573e+002,7.511544e+001
3.539216e+002,1.080196e+002
3.548858e+002,1.430326e+002
3.558500e+002,1.918947e+002
3.568143e+002,2.220820e+002
3.577785e+002,2.179135e+002
3.587427e+002,1.886780e+002
3.597070e+002,1.496204e+002
3.606712e+002,1.114796e+002
3.616354e+002,7.829557e+001
3.625997e+002,5.406712e+001
3.635639e+002,3.848820e+001
3.645281e+002,2.963367e+001
3.654924e+002,2.421135e+001
3.664566e+002,2.325823e+001
3.674208e+002,2.095053e+001
3.683851e+002,1.675887e+001
3.693493e+002,1.133474e+001
3.703135e+002,6.019861e+000
3.712778e+002,-3.669311e-001
3.722420e+002,-4.293921e+000
3.732062e+002,-4.978198e+000
3.741705e+002,-3.330566e+000
3.751347e+002,-4.827393e-001
3.760989e+002,4.240588e+000
3.770632e+002,8.133374e+000
3.780274e+002,9.143201e+000
3.789916e+002,8.345703e+000
3.799559e+002,7.676355e+000
3.809201e+002,9.614416e+000
3.818844e+002,1.271686e+001
3.828486e+002,1.268079e+001
3.838128e+002,9.743274e+000
3.847771e+002,5.887439e+000
3.857413e+002,4.099402e+000
3.867055e+002,5.651648e+000
3.876698e+002,6.162549e+000
3.886340e+002,3.157788e+000
3.895982e+002,8.587646e-002
3.905625e+002,2.482117e+000
3.915267e+002,1.654766e+001
3.924909e+002,2.561428e+001
3.934552e+002,2.517502e+001
3.944194e+002,1.980073e+001
3.953836e+002,1.392477e+001
3.963479e+002,9.408875e+000
3.973121e+002,7.183984e+000
3.982763e+002,8.672437e+000
3.992406e+002,1.203762e+001
4.002048e+002,1.469725e+001
4.011690e+002,1.413223e+001
4.021333e+002,1.075922e+001
4.030975e+002,9.000257e+000
4.040617e+002,8.864807e+000
4.050260e+002,9.321777e+000
4.059902e+002,9.178271e+000
4.069544e+002,7.607165e+000
4.079187e+002,8.013989e+000
4.088829e+002,1.227965e+001
4.098471e+002,1.652613e+001
4.108114e+002,1.737236e+001
4.117756e+002,1.315415e+001
4.127398e+002,9.823181e+000
4.137041e+002,9.973547e+000
4.146683e+002,1.155481e+001
4.156325e+002,1.346587e+001
4.165968e+002,1.508544e+001
4.175610e+002,1.616603e+001
4.185252e+002,1.596163e+001
4.194895e+002,1.521660e+001
4.204537e+002,1.471311e+001
4.214179e+002,1.496278e+001
4.223822e+002,1.601406e+001
4.233464e+002,1.890005e+001
4.243106e+002,2.435482e+001
4.252749e+002,2.821592e+001
4.262391e+002,2.704597e+001
4.272033e+002,2.005972e+001
4.281676e+002,1.808147e+001
4.291318e+002,2.571536e+001
4.300960e+002,3.398809e+001
4.310603e+002,3.873857e+001
4.320245e+002,3.987650e+001
4.329887e+002,4.287766e+001
4.339530e+002,5.069525e+001
4.349172e+002,6.369744e+001
4.358814e+002,8.559927e+001
4.368457e+002,1.151931e+002
4.378099e+002,1.475235e+002
4.387741e+002,1.760796e+002
4.397384e+002,1.982471e+002
4.407026e+002,2.042242e+002
4.416668e+002,1.907637e+002
4.426311e+002,1.626994e+002
4.435953e+002,1.360612e+002
4.445595e+002,1.085291e+002
4.455238e+002,8.627610e+001
4.464880e+002,7.114274e+001
4.474522e+002,6.134121e+001
4.484165e+002,5.334293e+001
4.493807e+002,4.731304e+001
4.503449e+002,4.223257e+001
4.513092e+002,3.770969e+001
4.522734e+002,3.371123e+001
4.532376e+002,3.048236e+001
4.542019e+002,2.873171e+001
4.551661e+002,2.689419e+001
4.561303e+002,2.219901e+001
4.570946e+002,1.580319e+001
4.580588e+002,1.018958e+001
4.590230e+002,8.097778e+000
4.599873e+002,9.921557e+000
4.609515e+002,1.090479e+001
4.619157e+002,1.049348e+001
4.628800e+002,1.027413e+001
4.638442e+002,1.193546e+001
4.648084e+002,1.646479e+001
4.657727e+002,1.986082e+001
4.667369e+002,2.240306e+001
4.677011e+002,2.390087e+001
4.686654e+002,2.380566e+001
4.696296e+002,2.186294e+001
4.705938e+002,1.973997e+001
4.715581e+002,1.875269e+001
4.725223e+002,1.807015e+001
4.734865e+002,1.726966e+001
4.744508e+002,1.617357e+001
4.754150e+002,1.484697e+001
4.763792e+002,1.295159e+001
4.773435e+002,1.085435e+001
4.783077e+002,1.006577e+001
4.792719e+002,1.133419e+001
4.802362e+002,1.408429e+001
4.812004e+002,1.492175e+001
4.821646e+002,1.188021e+001
4.831289e+002,9.115857e+000
4.840931e+002,6.153028e+000
4.850573e+002,3.591467e+000
4.860216e+002,3.353418e+000
4.869858e+002,9.703662e+000
4.879500e+002,1.401927e+001
4.889143e+002,1.197067e+001
4.898785e+002,6.355835e+000
4.908427e+002,1.827759e+000
4.918070e+002,2.551001e+000
4.927712e+002,5.675464e+000
4.937354e+002,6.249621e+000
4.946997e+002,4.873462e+000
4.956639e+002,2.939929e+000
4.966281e+002,1.842145e+000
4.975924e+002,1.688684e+000
4.985566e+002,1.182172e+000
4.995208e+002,-4.583862e-001
5.004851e+002,-1.344983e+000
5.014493e+002,5.147339e-001
5.024135e+002,6.141955e+000
5.033778e+002,9.581714e+000
5.043420e+002,8.972583e+000
5.053063e+002,7.795691e+000
5.062705e+002,7.724670e+000
5.072347e+002,8.941711e+000
5.081990e+002,9.736145e+000
5.091632e+002,7.329504e+000
5.101274e+002,4.564551e+000
5.110917e+002,3.469147e+000
5.120559e+002,4.249939e+000
5.130201e+002,5.669568e+000
5.139844e+002,5.116223e+000
5.149486e+002,2.728925e+000
5.159128e+002,1.320380e+000
5.168771e+002,1.468640e+000
5.178413e+002,2.464532e+000
5.188055e+002,2.756964e+000
5.197698e+002,2.188953e+000
5.207340e+002,8.989502e-001
5.216982e+002,-1.965985e+000
5.226625e+002,-5.084650e+000
5.236267e+002,-6.950738e+000
5.245909e+002,-6.902655e+000
5.255552e+002,-6.143842e+000
5.265194e+002,-4.743701e+000
5.274836e+002,-3.452332e+000
5.284479e+002,-3.148584e+000
5.294121e+002,-4.253241e+000
5.303763e+002,-5.818701e+000
5.313406e+002,-5.957685e+000
5.323048e+002,-5.051917e+000
5.332690e+002,-3.094208e+000
5.342333e+002,3.439941e-002
5.351975e+002,3.999615e+000
5.361617e+002,5.994879e+000
5.371260e+002,4.748389e+000
5.380902e+002,3.654791e+000
5.390544e+002,3.349860e+000
5.400187e+002,3.542578e+000
5.409829e+002,3.420190e+000
5.419471e+002,2.660803e+000
5.429114e+002,1.906409e+000
5.438756e+002,1.445496e+000
5.448398e+002,1.029645e+000
5.458041e+002,1.858032e-001
5.467683e+002,-1.584827e+000
5.477325e+002,-3.389123e+000
5.486968e+002,-4.031372e+000
5.496610e+002,-3.827325e+000
5.506252e+002,-3.264563e+000
5.515895e+002,-2.741894e+000
5.525537e+002,-2.277606e+000
5.535179e+002,-2.239807e+000
5.544822e+002,-2.580127e+000
5.554464e+002,-3.037946e+000
5.564106e+002,-3.746094e+000
5.573749e+002,-4.754157e+000
5.583391e+002,-5.085297e+000
5.593033e+002,-3.674969e+000
5.602676e+002,-2.452368e+000
5.612318e+002,-2.114368e+000
5.621960e+002,-2.457977e+000
5.631603e+002,-2.623334e+000
5.641245e+002,-1.527606e+000
5.650887e+002,-6.041015e-001
5.660530e+002,-1.661578e+000
5.670172e+002,-3.898859e+000
5.679814e+002,-5.367712e+000
5.689457e+002,-3.890839e+000
5.699099e+002,1.830994e-001
5.708741e+002,1.711426e+000
5.718384e+002,6.399902e-001
5.728026e+002,-1.346918e+000
5.737668e+002,-3.240119e+000
5.747311e+002,-5.274664e+000
5.756953e+002,-6.019019e+000
5.766595e+002,-4.424848e+000
5.776238e+002,-2.848987e+000
5.785880e+002,-2.016595e+000
5.795522e+002,-2.032330e+000
5.805165e+002,-2.704175e+000
5.814807e+002,-4.531195e+000
5.824449e+002,-6.426422e+000
5.834092e+002,-8.379858e+000
5.843734e+002,-9.972735e+000
5.853376e+002,-1.034108e+001
5.863019e+002,-8.222461e+000
5.872661e+002,-4.187988e+000
5.882303e+002,-1.729785e+000
5.891946e+002,-8.412842e-001
5.901588e+002,-8.790100e-001
5.911230e+002,-1.324756e+000
5.920873e+002,-2.422937e+000
5.930515e+002,-3.027942e+000
5.940157e+002,-2.474560e+000
5.949800e+002,-2.203442e+000
5.959442e+002,-3.451672e+000
5.969084e+002,-6.177887e+000
5.978727e+002,-7.913214e+000
5.988369e+002,-5.313635e+000
5.998011e+002,-2.974707e+000
6.007654e+002,-3.211884e+000
6.017296e+002,-5.615064e+000
6.026938e+002,-8.315344e+000
6.036581e+002,-9.343188e+000
6.046223e+002,-8.909314e+000
6.055865e+002,-7.926618e+000
6.065508e+002,-6.455579e+000
6.075150e+002,-5.323554e+000
6.084792e+002,-5.556848e+000
6.094435e+002,-7.725409e+000
6.104077e+002,-8.105291e+000
6.113719e+002,-5.380243e+000
6.123362e+002,-2.903992e+000
6.133004e+002,-2.719617e+000
6.142646e+002,-4.853693e+000
6.152289e+002,-6.487500e+000
6.161931e+002,-5.582232e+000
6.171573e+002,-4.790210e+000
6.181216e+002,-5.262903e+000
6.190858e+002,-6.652118e+000
6.200500e+002,-7.848737e+000
6.210143e+002,-7.860950e+000
6.219785e+002,-6.952558e+000
6.229427e+002,-5.610748e+000
6.239070e+002,-4.026770e+000
6.248712e+002,-2.974835e+000
6.258354e+002,-3.254889e+000
6.267997e+002,-5.079919e+000
6.277639e+002,-5.120130e+000
6.287281e+002,-2.180890e+000
6.296924e+002,3.273987e-001
6.306566e+002,4.559998e-001
6.316208e+002,-1.531299e+000
6.325851e+002,-2.598132e+000
6.335493e+002,-8.240906e-001
6.345135e+002,1.209058e+000
6.354778e+002,3.284448e+000
6.364420e+002,4.967004e+000
6.374063e+002,5.649432e+000
6.383705e+002,4.654199e+000
6.393347e+002,2.828534e+000
6.402990e+002,1.719427e+000
6.412632e+002,1.150043e+000
6.422274e+002,5.774963e-001
6.431917e+002,-4.396973e-001
6.441559e+002,-1.864569e+000
6.451201e+002,-2.034241e+000
6.460844e+002,-1.216553e-001
6.470486e+002,1.219257e+000
6.480128e+002,9.412903e-001
6.489771e+002,-5.968384e-001
6.499413e+002,-1.922809e+000
6.509055e+002,-2.945087e+000
6.518698e+002,-3.495904e+000
6.528340e+002,-3.373187e+000
6.537982e+002,-2.799121e+000
6.547625e+002,-1.907404e+000
6.557267e+002,-7.046326e-001
6.566909e+002,2.206116e-001
6.576552e+002,-2.306213e-001
6.586194e+002,-1.426086e+000
6.595836e+002,-2.607465e+000
6.605479e+002,-3.341748e+000
6.615121e+002,-3.434052e+000
6.624763e+002,-2.078387e+000
6.634406e+002,1.860345e+000
6.644048e+002,4.220209e+000
6.653690e+002,3.666711e+000
6.663333e+002,1.301318e+000
6.672975e+002,-9.277466e-001
6.682617e+002,-3.340228e+000
6.692260e+002,-4.127398e+000
6.701902e+002,-1.677661e+000
6.711544e+002,1.351764e+000
6.721187e+002,2.701923e+000
6.730829e+002,1.606659e+000
6.740471e+002,-4.175903e-001
6.750114e+002,-1.756360e+000
6.759756e+002,-2.525653e+000
6.769398e+002,-2.713355e+000
6.779041e+002,-2.339728e+000
6.788683e+002,-1.414026e+000
6.798325e+002,1.216125e-001
6.807968e+002,2.723254e+000
6.817610e+002,3.709082e+000
6.827252e+002,1.851868e+000
6.836895e+002,-5.193604e-001
6.846537e+002,-1.267792e+000
6.856179e+002,-7.833252e-002
6.865822e+002,8.556946e-001
6.875464e+002,7.858642e-001
6.885106e+002,6.219971e-001
6.894749e+002,1.024280e+000
6.904391e+002,1.789777e+000
6.914034e+002,1.944806e+000
6.923676e+002,1.114746e-001
6.933318e+002,-2.130548e+000
6.942961e+002,-2.403223e+000
6.952603e+002,-1.107178e+000
6.962245e+002,2.814758e-001
6.971888e+002,3.900574e-001
6.981530e+002,-8.418457e-001
6.991172e+002,-1.415601e+000
7.000815e+002,-1.138434e+000
7.010457e+002,-8.382446e-001
7.020099e+002,-8.875488e-001
7.029742e+002,-1.118603e+000
7.039384e+002,-8.388733e-001
7.049026e+002,8.233582e-001
7.058669e+002,1.882147e+000
7.068311e+002,1.388824e+000
7.077953e+002,1.661743e-001
7.087596e+002,-7.860657e-001
7.097238e+002,-9.192810e-001
7.106880e+002,-5.606689e-001
7.116523e+002,-2.987610e-001
7.126165e+002,-5.452270e-002
7.135807e+002,5.525940e-001
7.145450e+002,1.662585e+000
7.155092e+002,2.870368e+000
7.164734e+002,2.997229e+000
7.174377e+002,1.282135e+000
7.184019e+002,-1.362915e-002
7.193661e+002,-8.695679e-001
7.203304e+002,-1.416284e+000
7.212946e+002,-1.710675e+000
7.222589e+002,-1.672510e+000
7.232231e+002,-1.556000e+000
7.241873e+002,-1.267517e+000
7.251516e+002,-1.100616e+000
7.261158e+002,-1.577081e+000
7.270800e+002,-2.500183e+000
7.280443e+002,-2.951410e+000
7.290085e+002,-1.650531e+000
7.299727e+002,5.007446e-001
7.309370e+002,1.504767e+000
7.319012e+002,1.457294e+000
7.328654e+002,1.159430e+000
7.338297e+002,1.388440e+000
7.347939e+002,2.212085e+000
7.357581e+002,1.607275e+000
7.367224e+002,-2.454791e+000
7.376866e+002,-5.160889e+000
7.386508e+002,-4.370300e+000
7.396151e+002,-1.264282e+000
7.405793e+002,8.755127e-001
7.415435e+002,9.125549e-001
7.425078e+002,3.043335e-001
7.434720e+002,-8.920715e-001
7.444362e+002,-2.063776e+000
7.454005e+002,-2.535742e+000
7.463647e+002,-2.018213e+000
7.473289e+002,-9.033691e-001
7.482932e+002,6.400940e-001
7.492574e+002,2.208337e+000
7.502216e+002,2.255219e+000
7.511859e+002,2.599304e-001
7.521501e+002,-2.613776e+000
7.531143e+002,-4.150470e+000
7.540786e+002,-3.422760e+000
7.550428e+002,-3.430383e+000
7.560070e+002,-4.995978e+000
7.569713e+002,-6.379669e+000
7.579355e+002,-6.384039e+000
7.588997e+002,-5.032184e+000
7.598640e+002,-3.671521e+000
7.608282e+002,-2.737823e+000
7.617924e+002,-2.254443e+000
7.627567e+002,-2.878125e+000
7.637209e+002,-3.911798e+000
7.646851e+002,-4.254877e+000
7.656494e+002,-3.033923e+000
7.666136e+002,-3.005249e-001
7.675778e+002,5.136438e+000
7.685421e+002,1.283746e+001
7.695063e+002,1.720629e+001
7.704705e+002,1.483167e+001
7.714348e+002,7.502234e+000
7.723990e+002,2.403571e+000
7.733632e+002,1.080463e+000
7.743275e+002,-1.572082e-001
7.752917e+002,-1.903461e+000
7.762559e+002,-3.434106e+000
7.772202e+002,-3.886798e+000
7.781844e+002,-3.053577e+000
7.791486e+002,-2.212775e+000
7.801129e+002,-2.627209e+000
7.810771e+002,-3.443329e+000
7.820413e+002,-4.242175e+000
7.830056e+002,-4.877960e+000
7.839698e+002,-5.310931e+000
7.849340e+002,-5.509662e+000
7.858983e+002,-5.463153e+000
7.868625e+002,-5.139508e+000
7.878267e+002,-4.465393e+000
7.887910e+002,-3.897528e+000
7.897552e+002,-3.739185e+000
7.907194e+002,-3.913818e+000
7.916837e+002,-3.910938e+000
7.926479e+002,-3.373920e+000
7.936121e+002,-3.157074e+000
7.945764e+002,-3.901111e+000
7.955406e+002,-4.823676e+000
7.965048e+002,-4.939386e+000
7.974691e+002,-3.824439e+000
7.984333e+002,-2.277600e+000
7.993975e+002,-9.783875e-001
8.003618e+002,-1.481995e-001
8.013260e+002,-4.989624e-001
8.022902e+002,-1.988544e+000
8.032545e+002,-3.526758e+000
8.042187e+002,-3.436914e+000
8.051829e+002,-1.264819e+000
8.061472e+002,1.765015e-001
8.071114e+002,4.408447e-001
8.080756e+002,5.639709e-001
8.090399e+002,1.312427e+000
8.100041e+002,2.535236e+000
8.109683e+002,2.954211e+000
8.119326e+002,9.878906e-001
8.128968e+002,-2.279968e-001
8.138610e+002,1.146997e+000
8.148253e+002,3.576092e+000
8.157895e+002,4.970441e+000
8.167537e+002,4.356494e+000
8.177180e+002,3.115149e+000
8.186822e+002,4.159210e+000
8.196464e+002,6.551208e+000
8.206107e+002,8.111450e+000
8.215749e+002,8.288946e+000
8.225391e+002,7.888904e+000
8.235034e+002,8.254382e+000
8.244676e+002,9.827667e+000
8.254318e+002,1.069111e+001
8.263961e+002,1.080845e+001
8.273603e+002,1.066022e+001
8.283245e+002,1.036879e+001
8.292888e+002,9.934253e+000
8.302530e+002,9.335986e+000
8.312172e+002,8.442370e+000
8.321815e+002,7.578326e+000
8.331457e+002,6.939374e+000
8.341099e+002,6.536456e+000
8.350742e+002,6.413788e+000
8.360384e+002,6.557465e+000
8.370026e+002,6.809601e+000
8.379669e+002,6.805560e+000
8.389311e+002,6.505908e+000
8.398953e+002,6.174622e+000
8.408596e+002,6.028076e+000
8.418238e+002,5.603125e+000
8.427880e+002,4.165423e+000
8.437523e+002,1.412372e+000
8.447165e+002,-7.124939e-001
8.456807e+002,-1.861645e+000
8.466450e+002,-2.485736e+000
8.476092e+002,-2.555774e+000
8.485734e+002,-2.276019e+000
8.495377e+002,-1.826984e+000
8.505019e+002,-1.157379e+000
8.514661e+002,-8.021973e-001
8.524304e+002,-1.785510e+000
8.533946e+002,-3.435217e+000
8.543588e+002,-4.795581e+000
8.553231e+002,-5.491162e+000
8.562873e+002,-5.651202e+000
8.572515e+002,-5.561419e+000
8.582158e+002,-5.189032e+000
8.591800e+002,-4.589172e+000
8.601442e+002,-3.713080e+000
8.611085e+002,-2.759900e+000
8.620727e+002,-1.534760e+000
8.630369e+002,-1.011230e-001
8.640012e+002,5.059326e-001
8.649654e+002,-4.330139e-001
8.659296e+002,-2.015961e+000
8.668939e+002,-5.082959e+000
8.678581e+002,-8.051623e+000
8.688223e+002,-8.386206e+000
8.697866e+002,-4.982727e+000
8.707508e+002,-1.842957e-001
8.717150e+002,9.535034e-001
8.726793e+002,-8.607910e-001
8.736435e+002,-2.459937e+000
8.746077e+002,-3.385352e+000
8.755720e+002,-3.844873e+000
8.765362e+002,-3.989386e+000
8.775004e+002,-3.659436e+000
8.784647e+002,-3.697498e+000
8.794289e+002,-4.539868e+000
8.803931e+002,-5.281671e+000
8.813574e+002,-5.626123e+000
8.823216e+002,-5.676984e+000
8.832858e+002,-5.649567e+000
8.842501e+002,-5.585791e+000
8.852143e+002,-5.494440e+000
8.861785e+002,-5.320453e+000
8.871428e+002,-5.251709e+000
8.881070e+002,-5.581464e+000
8.890712e+002,-6.344092e+000
8.900355e+002,-7.286847e+000
8.909997e+002,-8.016388e+000
8.919639e+002,-8.525208e+000
8.929282e+002,-8.466949e+000
8.938924e+002,-7.527948e+000
8.948566e+002,-6.546369e+000
8.958209e+002,-5.650916e+000
8.967851e+002,-4.981763e+000
8.977493e+002,-5.246600e+000
8.987136e+002,-7.245422e+000
8.996778e+002,-9.240387e+000
9.006420e+002,-1.113085e+001
9.016063e+002,-1.233788e+001
9.025705e+002,-1.172165e+001
9.035347e+002,-9.348450e+000
9.044990e+002,-7.172381e+000
9.054632e+002,-8.058398e+000
9.064274e+002,-1.120319e+001
9.073917e+002,-1.263254e+001
9.083559e+002,-1.221295e+001
9.093201e+002,-1.107712e+001
9.102844e+002,-9.956976e+000
9.112486e+002,-8.871264e+000
9.122128e+002,-7.996533e+000
9.131771e+002,-7.726190e+000
9.141413e+002,-7.137195e+000
9.151055e+002,-5.330566e+000
9.160698e+002,-3.656177e+000
9.170340e+002,-3.894025e+000
9.179982e+002,-6.351563e+000
9.189625e+002,-8.574183e+000
9.199267e+002,-8.174640e+000
9.208909e+002,-6.749713e+000
9.218552e+002,-5.393286e+000
9.228194e+002,-4.389874e+000
9.237836e+002,-4.208429e+000
9.247479e+002,-5.239007e+000
9.257121e+002,-7.201343e+000
9.266763e+002,-8.445618e+000
9.276406e+002,-8.658569e+000
9.286048e+002,-8.849615e+000
9.295690e+002,-9.149078e+000
9.305333e+002,-9.434320e+000
9.314975e+002,-9.654706e+000
9.324617e+002,-9.841619e+000
9.334260e+002,-9.643420e+000
9.343902e+002,-8.595062e+000
9.353545e+002,-7.377319e+000
9.363187e+002,-5.886353e+000
9.372830e+002,-4.517285e+000
9.382472e+002,-3.964258e+000
9.392114e+002,-4.616266e+000
9.401757e+002,-5.866663e+000
9.411399e+002,-6.446399e+000
9.421041e+002,-6.467725e+000
9.430684e+002,-6.135797e+000
9.440326e+002,-5.362628e+000
9.449968e+002,-4.610364e+000
9.459611e+002,-4.537909e+000
9.469253e+002,-5.262164e+000
9.478895e+002,-5.423627e+000
9.488538e+002,-4.321143e+000
9.498180e+002,-3.407983e+000
9.507822e+002,-3.039038e+000
9.517465e+002,-3.166882e+000
9.527107e+002,-3.805829e+000
9.536749e+002,-4.962439e+000
9.546392e+002,-5.965674e+000
9.556034e+002,-6.200025e+000
9.565676e+002,-5.708203e+000
9.575319e+002,-3.718732e+000
9.584961e+002,-4.403992e-001
9.594603e+002,1.927142e+000
9.604246e+002,8.075501e-001
9.613888e+002,-3.858252e+000
9.623530e+002,-5.649890e+000
9.633173e+002,-2.094354e+000
9.642815e+002,8.656677e-001
9.652457e+002,1.982050e+000
9.662100e+002,2.543359e+000
9.671742e+002,3.980151e+000
9.681384e+002,6.531891e+000
9.691027e+002,9.638507e+000
9.700669e+002,9.777649e+000
9.710311e+002,1.331847e+001
9.719954e+002,2.805367e+001
9.729596e+002,4.976080e+001
9.739238e+002,6.978607e+001
9.748881e+002,8.201791e+001
9.758523e+002,8.572091e+001
9.768165e+002,7.655953e+001
9.777808e+002,5.101043e+001
9.787450e+002,3.158147e+001
9.797092e+002,2.274562e+001
9.806735e+002,1.896428e+001
9.816377e+002,1.533956e+001
9.826019e+002,1.185962e+001
9.835662e+002,9.724890e+000
9.845304e+002,1.059296e+001
9.854946e+002,1.137617e+001
9.864589e+002,1.069263e+001
9.874231e+002,9.490875e+000
9.883873e+002,9.039154e+000
9.893516e+002,9.743487e+000
9.903158e+002,1.082794e+001
9.912800e+002,1.120063e+001
9.922443e+002,1.127386e+001
9.932085e+002,1.226008e+001
9.941727e+002,1.421260e+001
9.951370e+002,1.717983e+001
9.961012e+002,2.065045e+001
9.970654e+002,2.476446e+001
9.980297e+002,3.095942e+001
9.989939e+002,3.144101e+001
9.999581e+002,4.920000e+001
1.000922e+003,8.815538e+001
1.001887e+003,1.420446e+002
1.002851e+003,2.265670e+002
1.003815e+003,3.276014e+002
1.004779e+003,3.887967e+002
1.005744e+003,3.626571e+002
1.006708e+003,2.883473e+002
1.007672e+003,2.189798e+002
1.008636e+003,1.566060e+002
1.009600e+003,1.096148e+002
1.010565e+003,8.183214e+001
1.011529e+003,6.699336e+001
1.012493e+003,5.325628e+001
1.013457e+003,4.010724e+001
1.014422e+003,3.113398e+001
1.015386e+003,2.835703e+001
1.016350e+003,2.619052e+001
1.017314e+003,2.207424e+001
1.018279e+003,1.702871e+001
1.019243e+003,1.340223e+001
1.020207e+003,1.209970e+001
1.021171e+003,1.171338e+001
1.022135e+003,1.148919e+001
1.023100e+003,1.138254e+001
1.024064e+003,1.140538e+001
1.025028e+003,1.146757e+001
1.025992e+003,1.137488e+001
1.026957e+003,1.097914e+001
1.027921e+003,1.036672e+001
1.028885e+003,9.828028e+000
1.029849e+003,9.254260e+000
1.030814e+003,9.026087e+000
1.031778e+003,9.148480e+000
1.032742e+003,9.472601e+000
1.033706e+003,1.018960e+001
1.034671e+003,1.131683e+001
1.035635e+003,1.175309e+001
1.036599e+003,1.034189e+001
1.037563e+003,9.066602e+000
1.038527e+003,9.091907e+000
1.039492e+003,9.793940e+000
1.040456e+003,1.033231e+001
1.041420e+003,1.041036e+001
1.042384e+003,1.042158e+001
1.043349e+003,1.095472e+001
1.044313e+003,1.198848e+001
1.045277e+003,1.276789e+001
1.046241e+003,1.334058e+001
1.047206e+003,1.356375e+001
1.048170e+003,1.314815e+001
1.049134e+003,1.238592e+001
1.050098e+003,1.194844e+001
1.051063e+003,1.189100e+001
1.052027e+003,1.236763e+001
1.052991e+003,1.345025e+001
1.053955e+003,1.480501e+001
1.054919e+003,1.704236e+001
1.055884e+003,1.930997e+001
1.056848e+003,1.977368e+001
1.057812e+003,1.738052e+001
1.058776e+003,1.374772e+001
1.059741e+003,1.195099e+001
1.060705e+003,1.181022e+001
1.061669e+003,1.257662e+001
1.062633e+003,1.454203e+001
1.063598e+003,1.628695e+001
1.064562e+003,1.617832e+001
1.065526e+003,1.446183e+001
1.066490e+003,1.402443e+001
1.067454e+003,1.611800e+001
1.068419e+003,1.778062e+001
1.069383e+003,1.802091e+001
1.070347e+003,1.773028e+001
1.071311e+003,1.754884e+001
1.072276e+003,1.766063e+001
1.073240e+003,1.809727e+001
1.074204e+003,1.901297e+001
1.075168e+003,1.988798e+001
1.076133e+003,1.933031e+001
1.077097e+003,1.769202e+001
1.078061e+003,1.591526e+001
1.079025e+003,1.403183e+001
1.079990e+003,1.281962e+001
1.080954e+003,1.379030e+001
1.081918e+003,1.742997e+001
1.082882e+003,1.988318e+001
1.083846e+003,1.991663e+001
1.084811e+003,1.988311e+001
1.085775e+003,2.038276e+001
1.086739e+003,2.092128e+001
1.087703e+003,2.090173e+001
1.088668e+003,2.029158e+001
1.089632e+003,1.959149e+001
1.090596e+003,1.888232e+001
1.091560e+003,1.868038e+001
1.092525e+003,2.040732e+001
1.093489e+003,2.345908e+001
1.094453e+003,2.545124e+001
1.095417e+003,2.523355e+001
1.096381e+003,2.381165e+001
1.097346e+003,2.327107e+001
1.098310e+003,2.418708e+001
1.099274e+003,2.389443e+001
1.100238e+003,2.007413e+001
1.101203e+003,1.801933e+001
1.102167e+003,2.075297e+001
1.103131e+003,2.542731e+001
1.104095e+003,2.831739e+001
1.105060e+003,2.836283e+001
1.106024e+003,2.695045e+001
1.106988e+003,2.443514e+001
1.107952e+003,2.218516e+001
1.108917e+003,2.237498e+001
1.109881e+003,2.454609e+001
1.110845e+003,2.694586e+001
1.111809e+003,2.869279e+001
1.112773e+003,2.969481e+001
1.113738e+003,2.958880e+001
1.114702e+003,2.769454e+001
1.115666e+003,2.703979e+001
1.116630e+003,2.857418e+001
1.117595e+003,2.980367e+001
1.118559e+003,2.953167e+001
1.119523e+003,2.858713e+001
1.120487e+003,2.832290e+001
1.121452e+003,2.913472e+001
1.122416e+003,3.023742e+001
1.123380e+003,3.113254e+001
1.124344e+003,3.160269e+001
1.125308e+003,3.109989e+001
1.126273e+003,3.002661e+001
1.127237e+003,2.988004e+001
1.128201e+003,3.156461e+001
1.129165e+003,3.395263e+001
1.130130e+003,3.420424e+001
1.131094e+003,3.107214e+001
1.132058e+003,2.943745e+001
1.133022e+003,2.994270e+001
1.133987e+003,3.090574e+001
1.134951e+003,3.229916e+001
1.135915e+003,3.369263e+001
1.136879e+003,3.439640e+001
1.137844e+003,3.425639e+001
1.138808e+003,3.414530e+001
1.139772e+003,3.512640e+001
1.140736e+003,3.588545e+001
1.141700e+003,3.423449e+001
1.142665e+003,3.106679e+001
1.143629e+003,2.918788e+001
1.144593e+003,3.004439e+001
1.145557e+003,3.233272e+001
1.146522e+003,3.338030e+001
1.147486e+003,3.258895e+001
1.148450e+003,3.241821e+001
1.149414e+003,3.311035e+001
1.150379e+003,3.429975e+001
1.151343e+003,3.694411e+001
1.152307e+003,3.948699e+001
1.153271e+003,3.947505e+001
1.154235e+003,3.666034e+001
1.155200e+003,3.410743e+001
1.156164e+003,3.423934e+001
1.157128e+003,3.580969e+001
1.158092e+003,3.721079e+001
1.159057e+003,3.829053e+001
1.160021e+003,3.836011e+001
1.160985e+003,3.709259e+001
1.161949e+003,3.580529e+001
1.162914e+003,3.673988e+001
1.163878e+003,4.031467e+001
1.164842e+003,4.254912e+001
1.165806e+003,4.247396e+001
1.166771e+003,4.207239e+001
1.167735e+003,4.082038e+001
1.168699e+003,3.992186e+001
1.169663e+003,4.103180e+001
1.170627e+003,4.375029e+001
1.171592e+003,4.546039e+001
1.172556e+003,4.434050e+001
1.173520e+003,4.225634e+001
1.174484e+003,4.187505e+001
1.175449e+003,4.256128e+001
1.176413e+003,4.318552e+001
1.177377e+003,4.347752e+001
1.178341e+003,4.405126e+001
1.179306e+003,4.573860e+001
1.180270e+003,4.843275e+001
1.181234e+003,5.031056e+001
1.182198e+003,5.105975e+001
1.183162e+003,5.129982e+001
1.184127e+003,5.051966e+001
1.185091e+003,4.985506e+001
1.186055e+003,5.019163e+001
1.187019e+003,5.130232e+001
1.187984e+003,5.253131e+001
1.188948e+003,5.354507e+001
1.189912e+003,5.404320e+001
1.190876e+003,5.338453e+001
1.191841e+003,5.209099e+001
1.192805e+003,5.160233e+001
1.193769e+003,5.199165e+001
1.194733e+003,5.202798e+001
1.195698e+003,5.073186e+001
1.196662e+003,4.868650e+001
1.197626e+003,4.738519e+001
1.198590e+003,4.678761e+001
1.199554e+003,4.699570e+001
1.200519e+003,4.877015e+001
1.201483e+003,5.065444e+001
1.202447e+003,5.239232e+001
1.203411e+003,5.386724e+001
1.204376e+003,5.509184e+001
1.205340e+003,5.590063e+001
1.206304e+003,5.570731e+001
1.207268e+003,5.385515e+001
1.208233e+003,5.143204e+001
1.209197e+003,5.146742e+001
1.210161e+003,5.354509e+001
1.211125e+003,5.563477e+001
1.212089e+003,5.733098e+001
1.213054e+003,5.833934e+001
1.214018e+003,5.844877e+001
1.214982e+003,5.781273e+001
1.215946e+003,5.643299e+001
1.216911e+003,5.280394e+001
1.217875e+003,5.111737e+001
1.218839e+003,5.394825e+001
1.219803e+003,5.741518e+001
1.220768e+003,5.852806e+001
1.221732e+003,5.792374e+001
1.222696e+003,5.808706e+001
1.223660e+003,6.035121e+001
1.224625e+003,6.346523e+001
1.225589e+003,6.532678e+001
1.226553e+003,6.572882e+001
1.227517e+003,6.448839e+001
1.228481e+003,6.025831e+001
1.229446e+003,5.797758e+001
1.230410e+003,6.167496e+001
1.231374e+003,6.775719e+001
1.232338e+003,7.019871e+001
1.233303e+003,6.853416e+001
1.234267e+003,6.611089e+001
1.235231e+003,6.290565e+001
1.236195e+003,6.059303e+001
1.237160e+003,6.037162e+001
1.238124e+003,6.122227e+001
1.239088e+003,6.192376e+001
1.240052e+003,6.230145e+001
1.241016e+003,6.315844e+001
1.241981e+003,6.527187e+001
1.242945e+003,6.823828e+001
1.243909e+003,7.027147e+001
1.244873e+003,7.146985e+001
1.245838e+003,7.129165e+001
1.246802e+003,6.817732e+001
1.247766e+003,6.532218e+001
1.248730e+003,6.432601e+001
1.249695e+003,6.493309e+001
1.250659e+003,6.696293e+001
1.251623e+003,7.057613e+001
1.252587e+003,7.325452e+001
1.253552e+003,7.267384e+001
1.254516e+003,7.086165e+001
1.255480e+003,6.906545e+001
1.256444e+003,6.783524e+001
1.257408e+003,6.872980e+001
1.258373e+003,7.225972e+001
1.259337e+003,7.624023e+001
1.260301e+003,7.760209e+001
1.261265e+003,7.639142e+001
1.262230e+003,7.515880e+001
1.263194e+003,7.347567e+001
1.264158e+003,7.198885e+001
1.265122e+003,7.001807e+001
1.266087e+003,6.900535e+001
1.267051e+003,7.067198e+001
1.268015e+003,7.406264e+001
1.268979e+003,7.680974e+001
1.269943e+003,7.793036e+001
1.270908e+003,7.816290e+001
1.271872e+003,7.842279e+001
1.272836e+003,7.816683e+001
1.273800e+003,7.550868e+001
1.274765e+003,7.078130e+001
1.275729e+003,6.827512e+001
1.276693e+003,7.059607e+001
1.277657e+003,7.492588e+001
1.278622e+003,7.682517e+001
1.279586e+003,7.607536e+001
1.280550e+003,7.591702e+001
1.281514e+003,7.729240e+001
1.282479e+003,7.862892e+001
1.283443e+003,7.958413e+001
1.284407e+003,8.018073e+001
1.285371e+003,8.022887e+001
1.286335e+003,7.984802e+001
1.287300e+003,7.927351e+001
1.288264e+003,7.874172e+001
1.289228e+003,7.884725e+001
1.290192e+003,8.075608e+001
1.291157e+003,8.421745e+001
1.292121e+003,8.415005e+001
1.293085e+003,7.845461e+001
1.294049e+003,7.550250e+001
1.295014e+003,8.096098e+001
1.295978e+003,8.869263e+001
1.296942e+003,9.120581e+001
1.297906e+003,8.876593e+001
1.298870e+003,8.609454e+001
1.299835e+003,8.363052e+001
1.300799e+003,8.274115e+001
1.301763e+003,8.599575e+001
1.302727e+003,8.986761e+001
1.303692e+003,9.099013e+001
1.304656e+003,8.984294e+001
1.305620e+003,8.892511e+001
1.306584e+003,8.962553e+001
1.307549e+003,9.117824e+001
1.308513e+003,9.222406e+001
1.309477e+003,9.270199e+001
1.310441e+003,9.254439e+001
1.311406e+003,9.091846e+001
1.312370e+003,9.006698e+001
1.313334e+003,9.103908e+001
1.314298e+003,9.231059e+001
1.315263e+003,9.242843e+001
1.316227e+003,9.167322e+001
1.317191e+003,9.140115e+001
1.318155e+003,9.220168e+001
1.319120e+003,9.318667e+001
1.320084e+003,9.335353e+001
1.321048e+003,9.299895e+001
1.322012e+003,9.281609e+001
1.322976e+003,9.281734e+001
1.323941e+003,9.300919e+001
1.324905e+003,9.347318e+001
1.325869e+003,9.423103e+001
1.326833e+003,9.542975e+001
1.327798e+003,9.701733e+001
1.328762e+003,9.785527e+001
1.329726e+003,9.754971e+001
1.330690e+003,9.688377e+001
1.331655e+003,9.550404e+001
1.332619e+003,9.449155e+001
1.333583e+003,9.475635e+001
1.334547e+003,9.591337e+001
1.335511e+003,9.726314e+001
1.336476e+003,9.841801e+001
1.337440e+003,9.917877e+001
1.338404e+003,9.925758e+001
1.339368e+003,9.887479e+001
1.340333e+003,9.955764e+001
1.341297e+003,1.019364e+002
1.342261e+003,1.031072e+002
1.343225e+003,1.021463e+002
1.344190e+003,1.005979e+002
1.345154e+003,9.905125e+001
1.346118e+003,9.781995e+001
1.347082e+003,9.766713e+001
1.348047e+003,9.878255e+001
1.349011e+003,9.998368e+001
1.349975e+003,1.006939e+002
1.350939e+003,1.011125e+002
1.351903e+003,1.014294e+002
1.352868e+003,1.016032e+002
1.353832e+003,1.014141e+002
1.354796e+003,1.008582e+002
1.355760e+003,1.006810e+002
1.356725e+003,1.016439e+002
1.357689e+003,1.035457e+002
1.358653e+003,1.056103e+002
1.359617e+003,1.083970e+002
1.360582e+003,1.096875e+002
1.361546e+003,1.071221e+002
1.362510e+003,1.056386e+002
1.363474e+003,1.084083e+002
1.364438e+003,1.122612e+002
1.365403e+003,1.132346e+002
1.366367e+003,1.112744e+002
1.367331e+003,1.093794e+002
1.368295e+003,1.095269e+002
1.369260e+003,1.106024e+002
1.370224e+003,1.106174e+002
1.371188e+003,1.097941e+002
1.372152e+003,1.102472e+002
1.373117e+003,1.125157e+002
1.374081e+003,1.138153e+002
1.375045e+003,1.121648e+002
1.376009e+003,1.099452e+002
1.376974e+003,1.104556e+002
1.377938e+003,1.131770e+002
1.378902e+003,1.139499e+002
1.379866e+003,1.108610e+002
1.380830e+003,1.081918e+002
1.381795e+003,1.102018e+002
1.382759e+003,1.130602e+002
1.383723e+003,1.125895e+002
1.384687e+003,1.101526e+002
1.385652e+003,1.102259e+002
1.386616e+003,1.144298e+002
1.387580e+003,1.191665e+002
1.388544e+003,1.197290e+002
1.389509e+003,1.166693e+002
1.390473e+003,1.162113e+002
1.391437e+003,1.200444e+002
1.392401e+003,1.231665e+002
1.393365e+003,1.255617e+002
1.394330e+003,1.265980e+002
1.395294e+003,1.245719e+002
1.396258e+003,1.217514e+002
1.397222e+003,1.211654e+002
1.398187e+003,1.231117e+002
1.399151e+003,1.257517e+002
1.400115e+003,1.277219e+002
1.401079e+003,1.285933e+002
1.402044e+003,1.274660e+002
1.403008e+003,1.243384e+002
1.403972e+003,1.225356e+002
1.404936e+003,1.223393e+002
1.405901e+003,1.229547e+002
1.406865e+003,1.248253e+002
1.407829e+003,1.267037e+002
1.408793e+003,1.270785e+002
1.409757e+003,1.263322e+002
1.410722e+003,1.260792e+002
1.411686e+003,1.266184e+002
1.412650e+003,1.275165e+002
1.413614e+003,1.291455e+002
1.414579e+003,1.306528e+002
1.415543e+003,1.309673e+002
1.416507e+003,1.304518e+002
1.417471e+003,1.298029e+002
1.418436e+003,1.291642e+002
1.419400e+003,1.287857e+002
1.420364e+003,1.290301e+002
1.421328e+003,1.299568e+002
1.422292e+003,1.314828e+002
1.423257e+003,1.337941e+002
1.424221e+003,1.354788e+002
1.425185e+003,1.359047e+002
1.426149e+003,1.359483e+002
1.427114e+003,1.356815e+002
1.428078e+003,1.357497e+002
1.429042e+003,1.369171e+002
1.430006e+003,1.386695e+002
1.430971e+003,1.393724e+002
1.431935e+003,1.383450e+002
1.432899e+003,1.374771e+002
1.433863e+003,1.397414e+002
1.434828e+003,1.448164e+002
1.435792e+003,1.469367e+002
1.436756e+003,1.437582e+002
1.437720e+003,1.417831e+002
1.438684e+003,1.423454e+002
1.439649e+003,1.435468e+002
1.440613e+003,1.442723e+002
1.441577e+003,1.449489e+002
1.442541e+003,1.465894e+002
1.443506e+003,1.490573e+002
1.444470e+003,1.506214e+002
1.445434e+003,1.502638e+002
1.446398e+003,1.493114e+002
1.447363e+003,1.494624e+002
1.448327e+003,1.502244e+002
1.449291e+003,1.505140e+002
1.450255e+003,1.503090e+002
1.451219e+003,1.499061e+002
1.452184e+003,1.490639e+002
1.453148e+003,1.484236e+002
1.454112e+003,1.492296e+002
1.455076e+003,1.511087e+002
1.456041e+003,1.515981e+002
1.457005e+003,1.498900e+002
1.457969e+003,1.492243e+002
1.458933e+003,1.517618e+002
1.459898e+003,1.548961e+002
1.460862e+003,1.573007e+002
1.461826e+003,1.589592e+002
1.462790e+003,1.599523e+002
1.463755e+003,1.603814e+002
1.464719e+003,1.604012e+002
1.465683e+003,1.600868e+002
1.466647e+003,1.599741e+002
1.467611e+003,1.614484e+002
1.468576e+003,1.648480e+002
1.469540e+003,1.667784e+002
1.470504e+003,1.665282e+002
1.471468e+003,1.660391e+002
1.472433e+003,1.648318e+002
1.473397e+003,1.641585e+002
1.474361e+003,1.654872e+002
1.475325e+003,1.676205e+002
1.476290e+003,1.687415e+002
1.477254e+003,1.682480e+002
1.478218e+003,1.662529e+002
1.479182e+003,1.628361e+002
1.480146e+003,1.593986e+002
1.481111e+003,1.592210e+002
1.482075e+003,1.626950e+002
1.483039e+003,1.643665e+002
1.484003e+003,1.627583e+002
1.484968e+003,1.619382e+002
1.485932e+003,1.636536e+002
1.486896e+003,1.659932e+002
1.487860e+003,1.674511e+002
1.488825e+003,1.679617e+002
1.489789e+003,1.675844e+002
1.490753e+003,1.664860e+002
1.491717e+003,1.661086e+002
1.492682e+003,1.676211e+002
1.493646e+003,1.698712e+002
1.494610e+003,1.712700e+002
1.495574e+003,1.718176e+002
1.496538e+003,1.714878e+002
1.497503e+003,1.703291e+002
1.498467e+003,1.682963e+002
1.499431e+003,1.637949e+002
1.500395e+003,1.594823e+002
1.501360e+003,1.593689e+002
1.502324e+003,1.627747e+002
1.503288e+003,1.661461e+002
1.504252e+003,1.690406e+002
1.505217e+003,1.703325e+002
1.506181e+003,1.681631e+002
1.507145e+003,1.659057e+002
1.508109e+003,1.669221e+002
1.509073e+003,1.694414e+002
1.510038e+003,1.705562e+002
1.511002e+003,1.699087e+002
1.511966e+003,1.689145e+002
1.512930e+003,1.684641e+002
1.513895e+003,1.683554e+002
1.514859e+003,1.679577e+002
1.515823e+003,1.671386e+002
1.516787e+003,1.671379e+002
1.517752e+003,1.687265e+002
1.518716e+003,1.698370e+002
1.519680e+003,1.696012e+002
1.520644e+003,1.688244e+002
1.521609e+003,1.678272e+002
1.522573e+003,1.665092e+002
1.523537e+003,1.644866e+002
1.524501e+003,1.621783e+002
1.525465e+003,1.605903e+002
1.526430e+003,1.601975e+002
1.527394e+003,1.605648e+002
1.528358e+003,1.612703e+002
1.529322e+003,1.622884e+002
1.530287e+003,1.623543e+002
1.531251e+003,1.611465e+002
1.532215e+003,1.598300e+002
1.533179e+003,1.573706e+002
1.534144e+003,1.559590e+002
1.535108e+003,1.576764e+002
1.536072e+003,1.598841e+002
1.537036e+003,1.590805e+002
1.538000e+003,1.562119e+002
1.538965e+003,1.555035e+002
1.539929e+003,1.585529e+002
1.540893e+003,1.615078e+002
1.541857e+003,1.599308e+002
1.542822e+003,1.552502e+002
1.543786e+003,1.528597e+002
1.544750e+003,1.533848e+002
1.545714e+003,1.538203e+002
1.546679e+003,1.539518e+002
1.547643e+003,1.541282e+002
1.548607e+003,1.555188e+002
1.549571e+003,1.563688e+002
1.550536e+003,1.537886e+002
1.551500e+003,1.491001e+002
1.552464e+003,1.464130e+002
1.553428e+003,1.470369e+002
1.554392e+003,1.489608e+002
1.555357e+003,1.507433e+002
1.556321e+003,1.518411e+002
1.557285e+003,1.511758e+002
1.558249e+003,1.488942e+002
1.559214e+003,1.467578e+002
1.560178e+003,1.448679e+002
1.561142e+003,1.430242e+002
1.562106e+003,1.403465e+002
1.563071e+003,1.381570e+002
1.564035e+003,1.383528e+002
1.564999e+003,1.400130e+002
1.565963e+003,1.407995e+002
1.566927e+003,1.402654e+002
1.567892e+003,1.388609e+002
1.568856e+003,1.364101e+002
1.569820e+003,1.344961e+002
1.570784e+003,1.358970e+002
1.571749e+003,1.387504e+002
1.572713e+003,1.382319e+002
1.573677e+003,1.344735e+002
1.574641e+003,1.314717e+002
1.575606e+003,1.304287e+002
1.576570e+003,1.301960e+002
1.577534e+003,1.304598e+002
1.578498e+003,1.308218e+002
1.579463e+003,1.303381e+002
1.580427e+003,1.289753e+002
1.581391e+003,1.273669e+002
1.582355e+003,1.255513e+002
1.583319e+003,1.242382e+002
1.584284e+003,1.247230e+002
1.585248e+003,1.253501e+002
1.586212e+003,1.234147e+002
1.587176e+003,1.196759e+002
1.588141e+003,1.164644e+002
1.589105e+003,1.143707e+002
1.590069e+003,1.138524e+002
1.591033e+003,1.163780e+002
1.591998e+003,1.189990e+002
1.592962e+003,1.164488e+002
1.593926e+003,1.099132e+002
1.594890e+003,1.062005e+002
1.595854e+003,1.063783e+002
1.596819e+003,1.074304e+002
1.597783e+003,1.090970e+002
1.598747e+003,1.097527e+002
1.599711e+003,1.069285e+002
1.600676e+003,1.032594e+002
1.601640e+003,1.024791e+002
1.602604e+003,1.042111e+002
1.603568e+003,1.053256e+002
1.604533e+003,1.045593e+002
1.605497e+003,1.026653e+002
1.606461e+003,9.963462e+001
1.607425e+003,9.645747e+001
1.608390e+003,9.671057e+001
1.609354e+003,1.006439e+002
1.610318e+003,1.014899e+002
1.611282e+003,9.653355e+001
1.612246e+003,9.214310e+001
1.613211e+003,9.270042e+001
1.614175e+003,9.341371e+001
1.615139e+003,9.047969e+001
1.616103e+003,8.588039e+001
1.617068e+003,8.288656e+001
1.618032e+003,8.189667e+001
1.618996e+003,8.123206e+001
1.619960e+003,7.986599e+001
1.620925e+003,7.841512e+001
1.621889e+003,7.790204e+001
1.622853e+003,7.821729e+001
1.623817e+003,7.863704e+001
1.624781e+003,7.944956e+001
1.625746e+003,7.911208e+001
1.626710e+003,7.653813e+001
1.627674e+003,7.378819e+001
1.628638e+003,7.080717e+001
1.629603e+003,6.875647e+001
1.630567e+003,7.017638e+001
1.631531e+003,7.299960e+001
1.632495e+003,7.245416e+001
1.633460e+003,6.776683e+001
1.634424e+003,6.281207e+001
1.635388e+003,6.026691e+001
1.636352e+003,5.920161e+001
1.637317e+003,5.794387e+001
1.638281e+003,5.656249e+001
1.639245e+003,5.664819e+001
1.640209e+003,5.888659e+001
1.641173e+003,5.994166e+001
1.642138e+003,5.846381e+001
1.643102e+003,5.650901e+001
1.644066e+003,5.503020e+001
1.645030e+003,5.362307e+001
1.645995e+003,5.151570e+001
1.646959e+003,4.917709e+001
1.647923e+003,4.793638e+001
1.648887e+003,4.817017e+001
1.649852e+003,4.894326e+001
1.650816e+003,4.961803e+001
1.651780e+003,5.004320e+001
1.652744e+003,4.999590e+001
1.653708e+003,4.945634e+001
1.654673e+003,4.773999e+001
1.655637e+003,4.416399e+001
1.656601e+003,4.178465e+001
1.657565e+003,4.250569e+001
1.658530e+003,4.336482e+001
1.659494e+003,4.255935e+001
1.660458e+003,4.110892e+001
1.661422e+003,4.002018e+001
1.662387e+003,3.932573e+001
1.663351e+003,3.880790e+001
1.664315e+003,3.838361e+001
1.665279e+003,3.775788e+001
1.666244e+003,3.668312e+001
1.667208e+003,3.529670e+001
1.668172e+003,3.377858e+001
1.669136e+003,3.210328e+001
1.670100e+003,3.022996e+001
1.671065e+003,2.791670e+001
1.672029e+003,2.641819e+001
1.672993e+003,2.659075e+001
1.673957e+003,2.721810e+001
1.674922e+003,2.781034e+001
1.675886e+003,2.809999e+001
1.676850e+003,2.771240e+001
1.677814e+003,2.675996e+001
1.678779e+003,2.564638e+001
1.679743e+003,2.450171e+001
1.680707e+003,2.336190e+001
1.681671e+003,2.216487e+001
1.682635e+003,2.104413e+001
1.683600e+003,2.015877e+001
1.684564e+003,1.959125e+001
1.685528e+003,1.985368e+001
1.686492e+003,2.110581e+001
1.687457e+003,2.158463e+001
1.688421e+003,2.043090e+001
1.689385e+003,1.898739e+001
1.690349e+003,1.798140e+001
1.691314e+003,1.754982e+001
1.692278e+003,1.835842e+001
1.693242e+003,1.983508e+001
1.694206e+003,1.980160e+001
1.695171e+003,1.759884e+001
1.696135e+003,1.555515e+001
1.697099e+003,1.532833e+001
1.698063e+003,1.582260e+001
1.699027e+003,1.579799e+001
1.699992e+003,1.535792e+001
1.700956e+003,1.464899e+001
1.701920e+003,1.367706e+001
1.702884e+003,1.272965e+001
1.703849e+003,1.181357e+001
1.704813e+003,1.132136e+001
1.705777e+003,1.198131e+001
1.706741e+003,1.286316e+001
1.707706e+003,1.225132e+001
1.708670e+003,1.057006e+001
1.709634e+003,9.317548e+000
1.710598e+003,8.689484e+000
1.711563e+003,8.251684e+000
1.712527e+003,7.769556e+000
1.713491e+003,7.459131e+000
1.714455e+003,7.781982e+000
1.715419e+003,8.275476e+000
1.716384e+003,7.917120e+000
1.717348e+003,6.863532e+000
1.718312e+003,6.417175e+000
1.719276e+003,6.975134e+000
1.720241e+003,7.540405e+000
1.721205e+003,7.432458e+000
1.722169e+003,6.919135e+000
1.723133e+003,6.415656e+000
1.724098e+003,5.957593e+000
1.725062e+003,5.377912e+000
1.726026e+003,4.503589e+000
1.726990e+003,3.960675e+000
1.727954e+003,4.250262e+000
1.728919e+003,4.359241e+000
1.729883e+003,3.748193e+000
1.730847e+003,2.841675e+000
1.731811e+003,1.578424e+000
1.732776e+003,5.235718e-001
1.733740e+003,1.280121e+000
1.734704e+003,3.726013e+000
1.735668e+003,5.146240e+000
1.736633e+003,3.961444e+000
1.737597e+003,2.084430e+000
1.738561e+003,2.084680e+000
1.739525e+003,3.526636e+000
1.740490e+003,4.182959e+000
1.741454e+003,3.784094e+000
1.742418e+003,3.444098e+000
1.743382e+003,3.525665e+000
1.744346e+003,3.102197e+000
1.745311e+003,1.608295e+000
1.746275e+003,4.385986e-002
1.747239e+003,-1.300708e+000
1.748203e+003,-2.121759e+000
1.749168e+003,-1.899408e+000
1.750132e+003,-9.133362e-001
1.751096e+003,1.137695e-001
1.752060e+003,8.058349e-001
1.753025e+003,1.002142e+000
1.753989e+003,5.469055e-001
1.754953e+003,-2.817261e-001
1.755917e+003,-8.939575e-001
1.756881e+003,-1.295880e+000
1.757846e+003,-1.543817e+000
1.758810e+003,-1.538318e+000
1.759774e+003,-1.509796e+000
1.760738e+003,-1.485840e+000
1.761703e+003,-1.590710e+000
1.762667e+003,-2.047565e+000
1.763631e+003,-2.463660e+000
1.764595e+003,-2.260504e+000
1.765560e+003,-1.847174e+000
1.766524e+003,-2.267371e+000
1.767488e+003,-3.485059e+000
1.768452e+003,-3.989410e+000
1.769417e+003,-2.855878e+000
1.770381e+003,-1.598840e+000
1.771345e+003,-2.099921e+000
1.772309e+003,-3.710669e+000
1.773273e+003,-5.052381e+000
1.774238e+003,-6.085162e+000
1.775202e+003,-5.889752e+000
1.776166e+003,-4.101678e+000
1.777130e+003,-2.753778e+000
1.778095e+003,-2.737500e+000
1.779059e+003,-3.083972e+000
1.780023e+003,-2.905402e+000
1.780987e+003,-2.677710e+000
1.781952e+003,-3.404260e+000
1.782916e+003,-4.890119e+000
1.783880e+003,-5.868048e+000
1.784844e+003,-6.074515e+000
1.785808e+003,-5.878439e+000
1.786773e+003,-5.356665e+000
1.787737e+003,-4.570215e+000
1.788701e+003,-3.132251e+000
1.789665e+003,-1.774847e+000
1.790630e+003,-1.562762e+000
1.791594e+003,-2.415265e+000
1.792558e+003,-4.057190e+000
1.793522e+003,-6.264132e+000
1.794487e+003,-7.890680e+000
1.795451e+003,-8.216681e+000
1.796415e+003,-7.315607e+000
1.797379e+003,-5.017520e+000
1.798344e+003,-1.989734e+000
1.799308e+003,-1.490332e+000
1.800272e+003,-4.650024e+000
1.801236e+003,-6.094367e+000
1.802201e+003,-4.049695e+000
1.803165e+003,-3.048456e+000
1.804129e+003,-4.977988e+000
1.805093e+003,-6.646335e+000
1.806057e+003,-5.967380e+000
1.807022e+003,-4.422815e+000
1.807986e+003,-3.697723e+000
1.808950e+003,-3.680206e+000
1.809914e+003,-3.262903e+000
1.810879e+003,-2.304706e+000
1.811843e+003,-2.194385e+000
1.812807e+003,-4.008643e+000
1.813771e+003,-6.273544e+000
1.814736e+003,-6.500488e+000
1.815700e+003,-5.073956e+000
1.816664e+003,-4.318274e+000
1.817628e+003,-4.312646e+000
1.818593e+003,-4.292413e+000
1.819557e+003,-4.113818e+000
1.820521e+003,-3.941455e+000
1.821485e+003,-3.672431e+000
1.822449e+003,-3.684406e+000
1.823414e+003,-4.607013e+000
1.824378e+003,-5.823260e+000
1.825342e+003,-6.520856e+000
1.826306e+003,-6.706519e+000
1.827271e+003,-6.652490e+000
1.828235e+003,-6.397568e+000
1.829199e+003,-6.176834e+000
1.830163e+003,-6.098941e+000
1.831128e+003,-6.075858e+000
1.832092e+003,-6.341974e+000
1.833056e+003,-6.446146e+000
1.834020e+003,-5.196109e+000
1.834984e+003,-3.194647e+000
1.835949e+003,-2.686261e+000
1.836913e+003,-3.963452e+000
1.837877e+003,-5.106595e+000
1.838841e+003,-5.103754e+000
1.839806e+003,-4.705917e+000
1.840770e+003,-4.751944e+000
1.841734e+003,-5.048440e+000
1.842698e+003,-4.941092e+000
1.843663e+003,-4.336462e+000
1.844627e+003,-3.691943e+000
1.845591e+003,-2.924597e+000
1.846555e+003,-2.307868e+000
1.847520e+003,-1.746521e+000
1.848484e+003,-1.571271e+000
1.849448e+003,-1.851025e+000
1.850412e+003,-2.496027e+000
1.851376e+003,-4.027359e+000
1.852341e+003,-5.608090e+000
1.853305e+003,-5.792020e+000
1.854269e+003,-4.625506e+000
1.855233e+003,-3.174579e+000
1.856198e+003,-1.961597e+000
1.857162e+003,-1.493121e+000
1.858126e+003,-2.558020e+000
1.859090e+003,-4.211886e+000
1.860055e+003,-4.459564e+000
1.861019e+003,-3.599555e+000
1.861983e+003,-3.105591e+000
1.862947e+003,-3.032477e+000
1.863911e+003,-3.475104e+000
1.864876e+003,-4.617438e+000
1.865840e+003,-5.357562e+000
1.866804e+003,-4.952506e+000
1.867768e+003,-4.178873e+000
1.868733e+003,-4.037546e+000
1.869697e+003,-4.205270e+000
1.870661e+003,-3.422833e+000
1.871625e+003,-1.675555e+000
1.872590e+003,-1.087158e+000
1.873554e+003,-2.721124e+000
1.874518e+003,-3.747348e+000
1.875482e+003,-2.567651e+000
1.876447e+003,-1.516309e+000
1.877411e+003,-2.404175e+000
1.878375e+003,-3.818887e+000
1.879339e+003,-4.161355e+000
1.880303e+003,-3.717813e+000
1.881268e+003,-3.470621e+000
1.882232e+003,-3.545529e+000
1.883196e+003,-3.125873e+000
1.884160e+003,-1.830475e+000
1.885125e+003,-9.104614e-001
1.886089e+003,-1.966547e+000
1.887053e+003,-3.907196e+000
1.888017e+003,-3.177804e+000
1.888982e+003,2.961914e-001
1.889946e+003,1.521143e+000
1.890910e+003,5.955200e-002
1.891874e+003,-1.494275e+000
1.892839e+003,-3.009021e+000
1.893803e+003,-3.891260e+000
1.894767e+003,-3.728586e+000
1.895731e+003,-2.918091e+000
1.896695e+003,-1.370844e+000
1.897660e+003,3.244446e-001
1.898624e+003,1.207208e+000
1.899588e+003,1.273712e+000
1.900552e+003,8.354004e-001
1.901517e+003,-2.381165e-001
1.902481e+003,-1.246143e+000
1.903445e+003,-1.727100e+000
1.904409e+003,-2.201404e+000
1.905374e+003,-3.555920e+000
1.906338e+003,-4.585519e+000
1.907302e+003,-3.262421e+000
1.908266e+003,-8.201721e-001
1.909230e+003,-6.428833e-002
1.910195e+003,-1.158002e+000
1.911159e+003,-2.230035e+000
1.912123e+003,-2.370728e+000
1.913087e+003,-1.929321e+000
1.914052e+003,-1.223401e+000
1.915016e+003,-5.719299e-001
1.915980e+003,-5.928223e-001
1.916944e+003,-1.260577e+000
1.917909e+003,-2.516608e+000
1.918873e+003,-4.643643e+000
1.919837e+003,-5.404816e+000
1.920801e+003,-3.976080e+000
1.921766e+003,-2.919614e+000
1.922730e+003,-3.567880e+000
1.923694e+003,-4.229248e+000
1.924658e+003,-3.534686e+000
1.925622e+003,-2.239142e+000
1.926587e+003,-1.029431e+000
1.927551e+003,1.935425e-002
1.928515e+003,7.346985e-001
1.929479e+003,1.129199e+000
1.930444e+003,8.705750e-001
1.931408e+003,-9.284851e-001
1.932372e+003,-2.250513e+000
1.933336e+003,-1.814252e+000
1.934301e+003,-8.835632e-001
1.935265e+003,-2.186829e-001
1.936229e+003,1.141113e-001
1.937193e+003,6.225586e-003
1.938157e+003,-4.556824e-001
1.939122e+003,-1.121771e+000
1.940086e+003,-1.845483e+000
1.941050e+003,-2.340515e+000
1.942014e+003,-2.451492e+000
1.942979e+003,-2.252914e+000
1.943943e+003,-1.784637e+000
1.944907e+003,-1.119580e+000
1.945871e+003,-4.090210e-001
1.946836e+003,3.574158e-001
1.947800e+003,7.427613e-001
1.948764e+003,6.576172e-001
1.949728e+003,3.917419e-001
1.950693e+003,-1.335388e-001
1.951657e+003,-2.932922e-001
1.952621e+003,7.245606e-001
1.953585e+003,1.328125e+000
1.954549e+003,-4.644775e-001
1.955514e+003,-3.457071e+000
1.956478e+003,-5.252368e+000
1.957442e+003,-5.862268e+000
1.958406e+003,-5.284024e+000
1.959371e+003,-2.875186e+000
1.960335e+003,-1.145972e+000
1.961299e+003,-9.693848e-001
1.962263e+003,-7.244934e-001
1.963228e+003,5.135742e-001
1.964192e+003,1.568591e+000
1.965156e+003,1.337530e+000
1.966120e+003,6.252502e-001
1.967084e+003,5.514709e-001
1.968049e+003,9.945068e-001
1.969013e+003,1.172351e+000
1.969977e+003,9.134949e-001
1.970941e+003,8.100525e-001
1.971906e+003,1.245654e+000
1.972870e+003,1.571045e+000
1.973834e+003,8.995484e-001
1.974798e+003,-1.031799e-001
1.975763e+003,-3.505432e-001
1.976727e+003,-1.353760e-002
1.977691e+003,4.775818e-001
1.978655e+003,1.091333e+000
1.979620e+003,2.179279e+000
1.980584e+003,3.798492e+000
1.981548e+003,4.459338e+000
1.982512e+003,3.279755e+000
1.983476e+003,1.719751e+000
1.984441e+003,1.301721e+000
1.985405e+003,1.623267e+000
1.986369e+003,1.747986e+000
1.987333e+003,1.714178e+000
1.988298e+003,1.814801e+000
1.989262e+003,2.056305e+000
1.990226e+003,2.221631e+000
1.991190e+003,2.267462e+000
1.992155e+003,2.370129e+000
1.993119e+003,3.452277e+000
1.994083e+003,3.549658e+000
1.995047e+003,-1.837769e-002
1.996011e+003,-3.743091e+000
1.996976e+003,-3.507428e+000
1.997940e+003,-6.773132e-001
1.998904e+003,1.406226e+000
1.999868e+003,2.413660e+000
2.000833e+003,3.300848e+000
2.001797e+003,4.580969e+000
2.002761e+003,4.940503e+000
2.003725e+003,2.886243e+000
2.004690e+003,9.669067e-001
2.005654e+003,1.086694e+000
2.006618e+003,1.909607e+000
2.007582e+003,2.359631e+000
2.008547e+003,2.266327e+000
2.009511e+003,1.166431e+000
2.010475e+003,-4.492920e-001
2.011439e+003,-9.627197e-001
2.012403e+003,4.218139e-002
2.013368e+003,1.181787e+000
2.014332e+003,1.493567e+000
2.015296e+003,1.299481e+000
2.016260e+003,7.655334e-001
2.017225e+003,2.281494e-001
2.018189e+003,4.259582e-001
2.019153e+003,1.283423e+000
2.020117e+003,2.866315e+000
2.021082e+003,4.988922e+000
2.022046e+003,6.263159e+000
2.023010e+003,6.360797e+000
2.023974e+003,5.346387e+000
2.024938e+003,3.098889e+000
2.025903e+003,1.260535e+000
2.026867e+003,1.688989e+000
2.027831e+003,3.224677e+000
2.028795e+003,3.019812e+000
2.029760e+003,1.227905e+000
2.030724e+003,1.219391e+000
2.031688e+003,3.706647e+000
2.032652e+003,5.106671e+000
2.033617e+003,4.999433e+000
2.034581e+003,4.486633e+000
2.035545e+003,3.429279e+000
2.036509e+003,2.781274e+000
2.037474e+003,2.914014e+000
2.038438e+003,3.682361e+000
2.039402e+003,5.675958e+000
2.040366e+003,8.001154e+000
2.041330e+003,8.633814e+000
2.042295e+003,7.586035e+000
2.043259e+003,5.883588e+000
2.044223e+003,2.864813e+000
2.045187e+003,1.160669e+000
2.046152e+003,2.061273e+000
2.047116e+003,3.229163e+000
2.048080e+003,3.962769e+000
2.049044e+003,4.404651e+000
2.050009e+003,4.722302e+000
2.050973e+003,4.862073e+000
2.051937e+003,4.514508e+000
2.052901e+003,4.011621e+000
2.053865e+003,4.144910e+000
2.054830e+003,4.905713e+000
2.055794e+003,5.365649e+000
2.056758e+003,5.099420e+000
2.057722e+003,4.764075e+000
2.058687e+003,4.808557e+000
2.059651e+003,5.087457e+000
2.060615e+003,5.653351e+000
2.061579e+003,6.128516e+000
2.062544e+003,5.805530e+000
2.063508e+003,5.185016e+000
2.064472e+003,5.600824e+000
2.065436e+003,6.717248e+000
2.066401e+003,6.556793e+000
2.067365e+003,4.758514e+000
2.068329e+003,3.486267e+000
2.069293e+003,4.107776e+000
2.070258e+003,4.980042e+000
2.071222e+003,4.030487e+000
2.072186e+003,2.360931e+000
2.073150e+003,2.424310e+000
2.074115e+003,3.837256e+000
2.075079e+003,4.939294e+000
2.076043e+003,5.707147e+000
2.077007e+003,6.847833e+000
2.077971e+003,8.465271e+000
2.078936e+003,9.323914e+000
2.079900e+003,8.938995e+000
2.080864e+003,8.115332e+000
2.081828e+003,7.389410e+000
2.082792e+003,6.929602e+000
2.083757e+003,6.998291e+000
2.084721e+003,7.454230e+000
2.085685e+003,7.875268e+000
2.086649e+003,8.296893e+000
2.087614e+003,8.370410e+000
2.088578e+003,8.081555e+000
2.089542e+003,7.456293e+000
2.090506e+003,6.224616e+000
2.091471e+003,5.340918e+000
2.092435e+003,5.130902e+000
2.093399e+003,5.508588e+000
2.094363e+003,6.846368e+000
2.095328e+003,8.070642e+000
2.096292e+003,7.490967e+000
2.097256e+003,5.727136e+000
2.098220e+003,5.076593e+000
2.099185e+003,5.695410e+000
2.100149e+003,6.434497e+000
2.101113e+003,7.509320e+000
2.102077e+003,8.195770e+000
2.103042e+003,8.786756e+000
2.104006e+003,8.522766e+000
2.104970e+003,5.805133e+000
2.105934e+003,3.915698e+000
2.106898e+003,5.705658e+000
2.107863e+003,8.217901e+000
2.108827e+003,8.370862e+000
2.109791e+003,6.957037e+000
2.110755e+003,5.629907e+000
2.111719e+003,4.534155e+000
2.112684e+003,4.095123e+000
2.113648e+003,4.434534e+000
2.114612e+003,5.371124e+000
2.115576e+003,8.104065e+000
2.116541e+003,9.578918e+000
2.117505e+003,7.671918e+000
2.118469e+003,5.463129e+000
2.119433e+003,4.909094e+000
2.120398e+003,5.027026e+000
2.121362e+003,4.439948e+000
2.122326e+003,3.711163e+000
2.123290e+003,4.327789e+000
2.124255e+003,6.179053e+000
2.125219e+003,7.882636e+000
2.126183e+003,9.084356e+000
2.127147e+003,9.323230e+000
2.128112e+003,7.530432e+000
2.129076e+003,6.157465e+000
2.130040e+003,7.075873e+000
2.131004e+003,8.277643e+000
2.131969e+003,8.282117e+000
2.132933e+003,7.535596e+000
2.133897e+003,6.213061e+000
2.134861e+003,4.953101e+000
2.135825e+003,4.835370e+000
2.136790e+003,5.640527e+000
2.137754e+003,6.193396e+000
2.138718e+003,6.126916e+000
2.139682e+003,5.850281e+000
2.140646e+003,5.550690e+000
2.141611e+003,5.296613e+000
2.142575e+003,4.975305e+000
2.143539e+003,4.826782e+000
2.144503e+003,5.369171e+000
2.145468e+003,6.126086e+000
2.146432e+003,6.473371e+000
2.147396e+003,6.431281e+000
2.148360e+003,6.122302e+000
2.149325e+003,5.614435e+000
2.150289e+003,4.908673e+000
2.151253e+003,4.076398e+000
2.152217e+003,3.446332e+000
2.153182e+003,3.229871e+000
2.154146e+003,3.353821e+000
2.155110e+003,3.934387e+000
2.156074e+003,4.525598e+000
2.157039e+003,4.653192e+000
2.158003e+003,4.240527e+000
2.158967e+003,2.663391e+000
2.159931e+003,7.861999e-001
2.160896e+003,6.993103e-001
2.161860e+003,2.054529e+000
2.162824e+003,2.889893e+000
2.163788e+003,2.814270e+000
2.164752e+003,2.999011e+000
2.165717e+003,3.979401e+000
2.166681e+003,4.691089e+000
2.167645e+003,4.125867e+000
2.168609e+003,3.195422e+000
2.169573e+003,3.267120e+000
2.170538e+003,3.846924e+000
2.171502e+003,4.138525e+000
2.172466e+003,4.009790e+000
2.173430e+003,2.934228e+000
2.174395e+003,1.300885e+000
2.175359e+003,2.546295e-001
2.176323e+003,5.370484e-002
2.177287e+003,9.396179e-001
2.178252e+003,2.716241e+000
2.179216e+003,3.363129e+000
2.180180e+003,1.414209e+000
2.181144e+003,-8.651642e-001
2.182109e+003,-5.445648e-001
2.183073e+003,9.072266e-001
2.184037e+003,7.096161e-001
2.185001e+003,-5.837280e-001
2.185966e+003,-1.912823e+000
2.186930e+003,-2.945602e+000
2.187894e+003,-2.811887e+000
2.188858e+003,-1.630048e+000
2.189823e+003,-2.837524e-001
2.190787e+003,8.091614e-001
2.191751e+003,1.271527e+000
2.192715e+003,9.608032e-001
2.193679e+003,7.474060e-002
2.194644e+003,-1.364941e+000
2.195608e+003,-2.550180e+000
2.196572e+003,-1.720889e+000
2.197536e+003,1.213257e-001
2.198500e+003,6.130310e-001
2.199465e+003,3.882446e-002
2.200429e+003,-1.111124e+000
2.201393e+003,-2.513809e+000
2.202357e+003,-3.302927e+000
2.203322e+003,-3.316843e+000
2.204286e+003,-2.577002e+000
2.205250e+003,-1.235648e+000
2.206214e+003,-1.999603e-001
2.207179e+003,-8.457641e-002
2.208143e+003,-6.606445e-001
2.209107e+003,-1.896078e+000
2.210071e+003,-3.137058e+000
2.211036e+003,-2.893973e+000
2.212000e+003,-1.883804e+000
2.212964e+003,-1.821759e+000
2.213928e+003,-2.553815e+000
2.214893e+003,-3.751111e+000
2.215857e+003,-4.970755e+000
2.216821e+003,-4.699713e+000
2.217785e+003,-2.981668e+000
2.218750e+003,-2.192572e+000
2.219714e+003,-3.328711e+000
2.220678e+003,-4.547937e+000
2.221642e+003,-4.371442e+000
2.222606e+003,-3.336212e+000
2.223571e+003,-1.769592e+000
2.224535e+003,-2.429901e-001
2.225499e+003,3.542175e-002
2.226463e+003,-3.749878e-001
2.227427e+003,-2.772888e-001
2.228392e+003,1.495819e-001
2.229356e+003,2.328217e-001
2.230320e+003,-7.160644e-002
2.231284e+003,-5.162659e-001
2.232249e+003,-1.014041e+000
2.233213e+003,-1.649008e+000
2.234177e+003,-2.421735e+000
2.235141e+003,-2.840308e+000
2.236106e+003,-2.439838e+000
2.237070e+003,-1.579019e+000
2.238034e+003,-4.265503e-001
2.238998e+003,6.234924e-001
2.239963e+003,9.288788e-001
2.240927e+003,8.505279e-001
2.241891e+003,1.183960e+000
2.242855e+003,1.621393e+000
2.243820e+003,1.169745e+000
2.244784e+003,-2.028809e-002
2.245748e+003,-1.115506e+000
2.246712e+003,-1.737341e+000
2.247677e+003,-1.331320e+000
2.248641e+003,4.794617e-001
2.249605e+003,1.789551e+000
2.250569e+003,5.525421e-001
2.251533e+003,-1.005127e+000
2.252498e+003,-6.296875e-001
2.253462e+003,2.423309e-001
2.254426e+003,1.143494e-002
2.255390e+003,-6.019348e-001
2.256354e+003,-4.692261e-001
2.257319e+003,7.366028e-002
2.258283e+003,3.326782e-001
2.259247e+003,1.640625e-001
2.260211e+003,-6.343292e-001
2.261176e+003,-1.946826e+000
2.262140e+003,-2.269809e+000
2.263104e+003,-5.595123e-001
2.264068e+003,5.293274e-001
2.265033e+003,-1.059457e+000
2.265997e+003,-2.943701e+000
2.266961e+003,-4.244888e+000
2.267925e+003,-4.691351e+000
2.268890e+003,-3.358173e+000
2.269854e+003,-1.719580e+000
2.270818e+003,-1.368143e+000
2.271782e+003,-1.855505e+000
2.272747e+003,-2.397153e+000
2.273711e+003,-2.778497e+000
2.274675e+003,-2.658536e+000
2.275639e+003,-1.963721e+000
2.276604e+003,-1.773166e+000
2.277568e+003,-2.514542e+000
2.278532e+003,-3.435217e+000
2.279496e+003,-4.894830e+000
2.280460e+003,-5.808121e+000
2.281425e+003,-5.200003e+000
2.282389e+003,-4.638608e+000
2.283353e+003,-5.370160e+000
2.284317e+003,-6.169024e+000
2.285281e+003,-5.605356e+000
2.286246e+003,-4.468323e+000
2.287210e+003,-4.227661e+000
2.288174e+003,-4.768323e+000
2.289138e+003,-5.146362e+000
2.290103e+003,-5.378507e+000
2.291067e+003,-5.158203e+000
2.292031e+003,-3.519156e+000
2.292995e+003,-3.339240e+000
2.293960e+003,-6.340439e+000
2.294924e+003,-7.767667e+000
2.295888e+003,-5.374396e+000
2.296852e+003,-3.394772e+000
2.297817e+003,-4.437833e+000
2.298781e+003,-5.639560e+000
2.299745e+003,-4.071936e+000
2.300709e+003,-1.570547e+000
2.301674e+003,-1.358456e+000
2.302638e+003,-3.028232e+000
2.303602e+003,-4.535089e+000
2.304566e+003,-5.968524e+000
2.305531e+003,-6.093292e+000
2.306495e+003,-4.670331e+000
2.307459e+003,-3.297894e+000
2.308423e+003,-2.056754e+000
2.309387e+003,-1.805469e+000
2.310352e+003,-2.812668e+000
2.311316e+003,-4.529422e+000
2.312280e+003,-6.757187e+000
2.313244e+003,-7.964499e+000
2.314208e+003,-6.827426e+000
2.315173e+003,-4.741049e+000
2.316137e+003,-3.540747e+000
2.317101e+003,-3.354172e+000
2.318065e+003,-5.227170e+000
2.319030e+003,-8.254801e+000
2.319994e+003,-8.432047e+000
2.320958e+003,-6.486081e+000
2.321922e+003,-5.654840e+000
2.322887e+003,-5.905176e+000
2.323851e+003,-5.139273e+000
2.324815e+003,-3.307657e+000
2.325779e+003,-2.622049e+000
2.326744e+003,-3.797760e+000
2.327708e+003,-5.308286e+000
2.328672e+003,-6.214459e+000
2.329636e+003,-6.466354e+000
2.330601e+003,-5.510175e+000
2.331565e+003,-4.717081e+000
2.332529e+003,-6.214743e+000
2.333493e+003,-8.149256e+000
2.334458e+003,-8.478030e+000
2.335422e+003,-7.727264e+000
2.336386e+003,-6.301980e+000
2.337350e+003,-4.693439e+000
2.338314e+003,-3.282687e+000
2.339279e+003,-2.374612e+000
2.340243e+003,-2.745294e+000
2.341207e+003,-4.327350e+000
2.342171e+003,-5.333056e+000
2.343135e+003,-5.036978e+000
2.344100e+003,-4.909680e+000
2.345064e+003,-6.087027e+000
2.346028e+003,-6.643558e+000
2.346992e+003,-5.190607e+000
2.347957e+003,-3.878638e+000
2.348921e+003,-3.515472e+000
2.349885e+003,-3.959522e+000
2.350849e+003,-6.002676e+000
2.351814e+003,-8.106748e+000
2.352778e+003,-8.057917e+000
2.353742e+003,-6.736758e+000
2.354706e+003,-6.367826e+000
2.355671e+003,-6.836871e+000
2.356635e+003,-7.015280e+000
2.357599e+003,-6.946652e+000
2.358563e+003,-6.404474e+000
2.359528e+003,-5.046286e+000
2.360492e+003,-4.493009e+000
2.361456e+003,-5.144937e+000
2.362420e+003,-5.560129e+000
2.363385e+003,-5.270041e+000
2.364349e+003,-5.034729e+000
2.365313e+003,-5.291342e+000
2.366277e+003,-5.407782e+000
2.367241e+003,-4.742743e+000
2.368206e+003,-4.101859e+000
2.369170e+003,-4.921344e+000
2.370134e+003,-6.462176e+000
2.371098e+003,-6.432825e+000
2.372063e+003,-5.245816e+000
2.373027e+003,-4.338303e+000
2.373991e+003,-3.806335e+000
2.374955e+003,-4.239306e+000
2.375919e+003,-5.394177e+000
2.376884e+003,-6.442294e+000
2.377848e+003,-7.033356e+000
2.378812e+003,-6.376685e+000
2.379776e+003,-4.507584e+000
2.380741e+003,-3.467599e+000
2.381705e+003,-4.404852e+000
2.382669e+003,-5.560742e+000
2.383633e+003,-5.863849e+000
2.384598e+003,-5.424966e+000
2.385562e+003,-3.371594e+000
2.386526e+003,-1.840015e+000
2.387490e+003,-3.458087e+000
2.388455e+003,-5.451819e+000
2.389419e+003,-4.409628e+000
2.390383e+003,-2.587079e+000
2.391347e+003,-3.601129e+000
2.392312e+003,-6.335931e+000
2.393276e+003,-7.591910e+000
2.394240e+003,-7.270083e+000
2.395204e+003,-7.495935e+000
2.396168e+003,-8.932727e+000
2.397133e+003,-8.690210e+000
2.398097e+003,-4.948819e+000
2.399061e+003,-2.834183e+000
2.400025e+003,-3.163956e+000
2.400990e+003,-3.972928e+000
2.401954e+003,-5.223816e+000
2.402918e+003,-5.812430e+000
2.403882e+003,-5.093820e+000
2.404846e+003,-3.920059e+000
2.405811e+003,-2.856812e+000
2.406775e+003,-2.129657e+000
2.407739e+003,-2.105719e+000
2.408703e+003,-2.688559e+000
2.409668e+003,-3.694772e+000
2.410632e+003,-4.963440e+000
2.411596e+003,-5.771292e+000
2.412560e+003,-6.155454e+000
2.413525e+003,-6.116388e+000
2.414489e+003,-5.727377e+000
2.415453e+003,-5.221869e+000
2.416417e+003,-4.649347e+000
2.417382e+003,-3.872699e+000
2.418346e+003,-3.076257e+000
2.419310e+003,-3.251517e+000
2.420274e+003,-4.766940e+000
2.421239e+003,-6.291944e+000
2.422203e+003,-7.124957e+000
2.423167e+003,-7.215863e+000
2.424131e+003,-5.913434e+000
2.425095e+003,-4.668161e+000
2.426060e+003,-4.272372e+000
2.427024e+003,-4.479571e+000
2.427988e+003,-5.652396e+000
2.428952e+003,-6.795029e+000
2.429917e+003,-7.080731e+000
2.430881e+003,-6.591226e+000
2.431845e+003,-4.797058e+000
2.432809e+003,-2.570102e+000
2.433773e+003,-3.270770e+000
2.434738e+003,-6.872061e+000
2.435702e+003,-8.215604e+000
2.436666e+003,-6.643408e+000
2.437630e+003,-5.114258e+000
2.438595e+003,-3.571433e+000
2.439559e+003,-2.363330e+000
2.440523e+003,-1.455753e+000
2.441487e+003,-1.304471e+000
2.442452e+003,-2.128229e+000
2.443416e+003,-2.747144e+000
2.444380e+003,-2.543646e+000
2.445344e+003,-3.044376e+000
2.446309e+003,-5.625339e+000
2.447273e+003,-7.226175e+000
2.448237e+003,-3.252264e+000
2.449201e+003,2.693890e+000
2.450166e+003,5.454358e+000
2.451130e+003,5.542444e+000
2.452094e+003,2.259204e+000
2.453058e+003,-2.031815e+000
2.454022e+003,-3.662967e+000
2.454987e+003,-3.615921e+000
2.455951e+003,-4.311368e+000
2.456915e+003,-5.427762e+000
2.457879e+003,-4.850891e+000
2.458844e+003,-2.724539e+000
2.459808e+003,-2.065799e+000
2.460772e+003,-3.824576e+000
2.461736e+003,-4.897412e+000
2.462700e+003,-4.105728e+000
2.463665e+003,-3.582541e+000
2.464629e+003,-3.217740e+000
2.465593e+003,-3.580682e+000
2.466557e+003,-5.470932e+000
2.467522e+003,-6.781732e+000
2.468486e+003,-6.578052e+000
2.469450e+003,-5.699969e+000
2.470414e+003,-4.603409e+000
2.471379e+003,-3.596375e+000
2.472343e+003,-3.085486e+000
2.473307e+003,-2.877969e+000
2.474271e+003,-2.456519e+000
2.475236e+003,-2.085788e+000
2.476200e+003,-3.067407e+000
2.477164e+003,-4.646356e+000
2.478128e+003,-4.016004e+000
2.479093e+003,-2.238962e+000
2.480057e+003,-2.791586e+000
2.481021e+003,-4.890231e+000
2.481985e+003,-5.338305e+000
2.482949e+003,-4.003720e+000
2.483914e+003,-2.702200e+000
2.484878e+003,-2.056476e+000
2.485842e+003,-2.309647e+000
2.486806e+003,-3.824817e+000
2.487771e+003,-4.607398e+000
2.488735e+003,-3.192032e+000
2.489699e+003,-2.130038e+000
2.490663e+003,-2.610965e+000
2.491627e+003,-2.845252e+000
2.492592e+003,-1.609167e+000
2.493556e+003,-8.615173e-001
2.494520e+003,-1.715527e+000
2.495484e+003,-3.110333e+000
2.496449e+003,-4.487231e+000
2.497413e+003,-5.147119e+000
2.498377e+003,-3.841678e+000
2.499341e+003,-1.667157e+000
2.500306e+003,-1.637375e+000
2.501270e+003,-3.230496e+000
2.502234e+003,-4.454974e+000
2.503198e+003,-5.143546e+000
2.504163e+003,-4.216525e+000
2.505127e+003,-2.370502e+000
2.506091e+003,-1.799432e+000
2.507055e+003,-2.296670e+000
2.508020e+003,-2.286426e+000
2.508984e+003,-1.626331e+000
2.509948e+003,-1.329675e+000
2.510912e+003,-1.701373e+000
2.511876e+003,-2.209155e+000
2.512841e+003,-2.775336e+000
2.513805e+003,-2.922141e+000
2.514769e+003,-2.003793e+000
2.515733e+003,-1.457852e+000
2.516698e+003,-2.122934e+000
2.517662e+003,-2.532623e+000
2.518626e+003,-1.822589e+000
2.519590e+003,-1.410629e+000
2.520554e+003,-2.332282e+000
2.521519e+003,-3.120267e+000
2.522483e+003,-2.474921e+000
2.523447e+003,-1.146539e+000
2.524411e+003,-1.594635e-001
2.525376e+003,6.316864e-001
2.526340e+003,1.890167e+000
2.527304e+003,2.971259e+000
2.528268e+003,1.244299e+000
2.529233e+003,-1.922830e+000
2.530197e+003,-3.646430e+000
2.531161e+003,-3.861514e+000
2.532125e+003,-2.540305e+000
2.533090e+003,-3.609222e-001
2.534054e+003,1.561237e+000
2.535018e+003,2.965521e+000
2.535982e+003,3.897668e+000
2.536947e+003,4.360962e+000
2.537911e+003,4.207294e+000
2.538875e+003,2.972296e+000
2.539839e+003,2.378345e+000
2.540803e+003,3.390594e+000
2.541768e+003,3.716272e+000
2.542732e+003,2.857080e+000
2.543696e+003,1.951331e+000
2.544660e+003,1.262714e+000
2.545625e+003,9.593750e-001
2.546589e+003,1.157080e+000
2.547553e+003,1.292511e+000
2.548517e+003,9.064392e-001
2.549482e+003,4.356659e-001
2.550446e+003,4.595367e-001
2.551410e+003,5.202545e-001
2.552374e+003,-5.440155e-001
2.553339e+003,-1.628049e+000
2.554303e+003,-6.023957e-001
2.555267e+003,9.455444e-001
2.556231e+003,5.477508e-001
2.557196e+003,-3.217041e-001
2.558160e+003,1.027374e+000
2.559124e+003,3.099994e+000
2.560088e+003,2.655792e+000
2.561052e+003,4.678497e-001
2.562017e+003,-3.941345e-002
2.562981e+003,1.240967e+000
2.563945e+003,2.357574e+000
2.564909e+003,3.477173e+000
2.565874e+003,3.334137e+000
2.566838e+003,1.738586e+000
2.567802e+003,3.837250e-001
2.568766e+003,-5.720398e-001
2.569730e+003,1.981140e-001
2.570695e+003,2.678467e+000
2.571659e+003,3.829602e+000
2.572623e+003,2.795935e+000
2.573587e+003,1.923999e+000
2.574552e+003,2.436352e+000
2.575516e+003,2.787170e+000
2.576480e+003,1.856268e+000
2.577444e+003,7.208923e-001
2.578409e+003,-1.305695e-001
2.579373e+003,-8.296539e-001
2.580337e+003,-1.718979e+000
2.581301e+003,-1.982153e+000
2.582266e+003,-4.282410e-001
2.583230e+003,1.100238e+000
2.584194e+003,1.350793e+000
2.585158e+003,8.677246e-001
2.586123e+003,4.117737e-002
2.587087e+003,-7.762268e-001
2.588051e+003,-9.883881e-001
2.589015e+003,-7.962463e-001
2.589979e+003,-8.226746e-001
2.590944e+003,-1.004993e+000
2.591908e+003,-8.691314e-001
2.592872e+003,-7.613525e-001
2.593836e+003,-2.200089e+000
2.594801e+003,-4.013123e+000
2.595765e+003,-2.995679e+000
2.596729e+003,-3.417511e-001
2.597693e+003,2.259888e-001
2.598657e+003,-1.194330e+000
2.599622e+003,-1.644623e+000
2.600586e+003,-6.058197e-001
2.601550e+003,-2.316864e-001
2.602514e+003,-1.261816e+000
2.603479e+003,-1.707965e+000
2.604443e+003,-1.136346e+000
2.605407e+003,-1.490299e+000
2.606371e+003,-3.210254e+000
2.607336e+003,-3.634366e+000
2.608300e+003,-2.149524e+000
2.609264e+003,-1.314896e+000
2.610228e+003,-2.030170e+000
2.611193e+003,-2.270215e+000
2.612157e+003,-9.071320e-001
2.613121e+003,-1.027466e-001
2.614085e+003,-1.834381e+000
2.615050e+003,-3.489770e+000
2.616014e+003,-2.395285e+000
2.616978e+003,-1.171307e+000
2.617942e+003,-1.536523e+000
2.618906e+003,-2.179132e+000
2.619871e+003,-2.160733e+000
2.620835e+003,-2.289654e+000
2.621799e+003,-3.792752e+000
2.622763e+003,-4.852240e+000
2.623728e+003,-3.492603e+000
2.624692e+003,-1.236298e+000
2.625656e+003,-4.872711e-001
2.626620e+003,-8.174988e-001
2.627584e+003,-1.207779e+000
2.628549e+003,-1.618384e+000
2.629513e+003,-1.909735e+000
2.630477e+003,-2.098984e+000
2.631441e+003,-2.613553e+000
2.632406e+003,-2.832358e+000
2.633370e+003,-6.672608e-001
2.634334e+003,2.274701e+000
2.635298e+003,1.823297e+000
2.636263e+003,-9.569122e-001
2.637227e+003,-7.316498e-001
2.638191e+003,2.878296e+000
2.639155e+003,3.845544e+000
2.640120e+003,1.401581e+000
2.641084e+003,2.546509e-001
2.642048e+003,6.550537e-001
2.643012e+003,1.520874e-001
2.643977e+003,-1.345377e+000
2.644941e+003,-1.367874e+000
2.645905e+003,1.717712e-001
2.646869e+003,1.085144e-001
2.647833e+003,-1.937473e+000
2.648798e+003,-1.971786e+000
2.649762e+003,1.265729e+000
2.650726e+003,2.887585e+000
2.651690e+003,-1.383667e-002
2.652655e+003,-2.726825e+000
2.653619e+003,-3.244580e+000
2.654583e+003,-2.909439e+000
2.655547e+003,-1.239255e+000
2.656511e+003,-1.176880e-001
2.657476e+003,-1.374023e-001
2.658440e+003,-6.650025e-001
2.659404e+003,-1.526953e+000
2.660368e+003,-2.385251e+000
2.661333e+003,-3.025906e+000
2.662297e+003,-3.066251e+000
2.663261e+003,-2.117914e+000
2.664225e+003,-7.570893e-001
2.665190e+003,9.519898e-001
2.666154e+003,1.748749e+000
2.667118e+003,-1.387006e+000
2.668082e+003,-4.216782e+000
2.669047e+003,-1.820087e+000
2.670011e+003,1.458447e+000
2.670975e+003,1.328503e+000
2.671939e+003,9.160767e-002
2.672904e+003,6.219605e-001
2.673868e+003,1.794458e+000
2.674832e+003,2.022864e+000
2.675796e+003,1.498877e+000
2.676760e+003,6.629578e-001
2.677725e+003,-4.194916e-001
2.678689e+003,-1.739960e+000
2.679653e+003,-2.856900e+000
2.680617e+003,-2.086572e+000
2.681582e+003,-4.280029e-001
2.682546e+003,7.318725e-002
2.683510e+003,-1.524719e-001
2.684474e+003,2.304077e-002
2.685438e+003,5.065918e-001
2.686403e+003,6.900513e-001
2.687367e+003,5.572144e-001
2.688331e+003,4.507751e-001
2.689295e+003,4.195862e-001
2.690260e+003,1.220966e+000
2.691224e+003,3.093945e+000
2.692188e+003,3.135169e+000
2.693152e+003,1.415271e+000
2.694117e+003,1.425043e+000
2.695081e+003,3.034100e+000
2.696045e+003,3.366699e+000
2.697009e+003,2.149384e+000
2.697974e+003,5.999695e-001
2.698938e+003,-6.968262e-001
2.699902e+003,-8.029083e-001
2.700866e+003,6.727844e-001
2.701831e+003,1.748218e+000
2.702795e+003,1.706647e+000
2.703759e+003,1.534393e+000
2.704723e+003,1.205798e+000
2.705688e+003,1.161896e+000
2.706652e+003,1.479547e+000
2.707616e+003,1.587817e+000
2.708580e+003,1.371082e+000
2.709544e+003,1.297491e+000
2.710509e+003,1.503888e+000
2.711473e+003,1.206403e+000
2.712437e+003,-3.421631e-002
2.713401e+003,-7.026245e-001
2.714365e+003,4.559143e-001
2.715330e+003,1.853107e+000
2.716294e+003,3.466925e+000
2.717258e+003,3.912823e+000
2.718222e+003,1.606299e+000
2.719187e+003,-3.134643e-001
2.720151e+003,-1.019867e+000
2.721115e+003,-7.473358e-001
2.722079e+003,5.314148e-001
2.723044e+003,1.420715e+000
2.724008e+003,8.640076e-001
2.724972e+003,-7.517090e-002
2.725936e+003,-3.959045e-001
2.726901e+003,-1.882813e-001
2.727865e+003,1.203485e+000
2.728829e+003,2.102069e+000
2.729793e+003,2.177918e-001
2.730758e+003,-1.530569e+000
2.731722e+003,-7.841004e-001
2.732686e+003,4.469177e-001
2.733650e+003,7.457398e-001
2.734615e+003,8.882446e-001
2.735579e+003,1.604651e+000
2.736543e+003,2.192053e+000
2.737507e+003,1.669330e+000
2.738471e+003,5.887268e-001
2.739436e+003,-4.942383e-001
2.740400e+003,-9.430267e-001
2.741364e+003,1.224451e+000
2.742328e+003,3.717712e+000
2.743292e+003,3.933319e+000
2.744257e+003,2.902307e+000
2.745221e+003,1.234051e+000
2.746185e+003,-3.411682e-001
2.747149e+003,-1.097784e+000
2.748114e+003,-1.218729e+000
2.749078e+003,-9.436310e-001
2.750042e+003,-2.233887e-001
2.751006e+003,1.223059e+000
2.751971e+003,2.914130e+000
2.752935e+003,2.970349e+000
2.753899e+003,2.144220e+000
2.754863e+003,2.140045e+000
2.755828e+003,2.440796e+000
2.756792e+003,1.780493e+000
2.757756e+003,9.563233e-001
2.758720e+003,1.722638e+000
2.759685e+003,3.215436e+000
2.760649e+003,3.245459e+000
2.761613e+003,2.181781e+000
2.762577e+003,9.662415e-001
2.763542e+003,-1.917419e-001
2.764506e+003,1.102710e+000
2.765470e+003,4.124518e+000
2.766434e+003,4.999219e+000
2.767398e+003,4.253046e+000
2.768363e+003,2.792499e+000
2.769327e+003,1.376453e+000
2.770291e+003,1.715826e+000
2.771255e+003,2.984186e+000
2.772219e+003,2.661133e+000
2.773184e+003,8.995117e-001
2.774148e+003,4.757690e-002
2.775112e+003,7.688598e-002
2.776076e+003,-1.385071e-001
2.777041e+003,-5.860962e-001
2.778005e+003,-1.464801e+000
2.778969e+003,-2.330194e+000
2.779933e+003,2.845703e-001
2.780898e+003,4.634229e+000
2.781862e+003,4.621839e+000
2.782826e+003,1.337909e+000
2.783790e+003,-1.961792e-001
2.784755e+003,4.233093e-001
2.785719e+003,7.144653e-001
2.786683e+003,3.729248e-001
2.787647e+003,1.062537e+000
2.788612e+003,3.010339e+000
2.789576e+003,3.546466e+000
2.790540e+003,2.734790e+000
2.791504e+003,2.097858e+000
2.792469e+003,1.705914e+000
2.793433e+003,8.077881e-001
2.794397e+003,-1.752136e-001
2.795361e+003,8.289429e-001
2.796325e+003,3.368683e+000
2.797290e+003,4.513922e+000
2.798254e+003,3.786011e+000
2.799218e+003,2.853467e+000
2.800182e+003,1.693604e+000
2.801146e+003,1.563184e+000
2.802111e+003,2.589368e+000
2.803075e+003,4.273047e+000
2.804039e+003,6.334394e+000
2.805003e+003,7.042078e+000
2.805968e+003,6.362012e+000
2.806932e+003,5.069715e+000
2.807896e+003,3.822656e+000
2.808860e+003,3.748059e+000
2.809825e+003,4.891656e+000
2.810789e+003,5.802026e+000
2.811753e+003,6.209949e+000
2.812717e+003,5.822803e+000
2.813682e+003,4.276319e+000
2.814646e+003,4.122736e+000
2.815610e+003,5.363238e+000
2.816574e+003,5.138641e+000
2.817539e+003,3.533227e+000
2.818503e+003,2.416095e+000
2.819467e+003,2.164868e+000
2.820431e+003,2.821625e+000
2.821396e+003,4.176636e+000
2.822360e+003,5.007507e+000
2.823324e+003,4.953504e+000
2.824288e+003,5.497314e+000
2.825252e+003,7.513843e+000
2.826217e+003,6.095148e+000
2.827181e+003,1.099548e+000
2.828145e+003,6.919373e-001
2.829109e+003,4.494690e+000
2.830073e+003,6.110644e+000
2.831038e+003,4.999451e+000
2.832002e+003,3.203467e+000
2.832966e+003,1.856836e+000
2.833930e+003,3.450787e+000
2.834895e+003,8.497455e+000
2.835859e+003,1.045566e+001
2.836823e+003,8.017774e+000
2.837787e+003,7.151202e+000
2.838752e+003,7.971662e+000
2.839716e+003,8.651385e+000
2.840680e+003,8.974182e+000
2.841644e+003,8.331098e+000
2.842609e+003,6.916455e+000
2.843573e+003,5.518756e+000
2.844537e+003,4.505853e+000
2.845501e+003,4.327643e+000
2.846466e+003,4.969775e+000
2.847430e+003,5.438544e+000
2.848394e+003,5.593140e+000
2.849358e+003,6.060059e+000
2.850323e+003,6.886249e+000
2.851287e+003,7.687903e+000
2.852251e+003,8.354510e+000
2.853215e+003,8.525434e+000
2.854179e+003,8.155688e+000
2.855144e+003,6.738623e+000
2.856108e+003,4.853980e+000
2.857072e+003,4.551141e+000
2.858036e+003,5.906390e+000
2.859000e+003,6.519641e+000
2.859965e+003,6.214478e+000
2.860929e+003,7.240594e+000
2.861893e+003,9.615979e+000
2.862857e+003,9.558374e+000
2.863822e+003,7.732355e+000
2.864786e+003,7.280310e+000
2.865750e+003,8.021838e+000
2.866714e+003,8.801397e+000
2.867679e+003,9.344037e+000
2.868643e+003,9.535663e+000
2.869607e+003,9.599310e+000
2.870571e+003,1.042147e+001
2.871536e+003,1.184603e+001
2.872500e+003,1.232513e+001
2.873464e+003,1.180876e+001
2.874428e+003,1.085507e+001
2.875393e+003,9.356769e+000
2.876357e+003,5.616479e+000
2.877321e+003,1.729681e+000
2.878285e+003,3.082269e+000
2.879250e+003,7.174512e+000
2.880214e+003,8.131531e+000
2.881178e+003,6.678717e+000
2.882142e+003,6.985907e+000
2.883106e+003,8.393774e+000
2.884071e+003,7.830420e+000
2.885035e+003,5.858038e+000
2.885999e+003,5.272925e+000
2.886963e+003,5.889465e+000
2.887927e+003,8.498462e+000
2.888892e+003,1.113619e+001
2.889856e+003,9.845148e+000
2.890820e+003,7.148139e+000
2.891784e+003,7.386206e+000
2.892749e+003,9.115631e+000
2.893713e+003,9.643158e+000
2.894677e+003,9.352094e+000
2.895641e+003,9.015497e+000
2.896606e+003,8.622986e+000
2.897570e+003,7.950604e+000
2.898534e+003,7.498871e+000
2.899498e+003,8.619574e+000
2.900463e+003,9.804663e+000
2.901427e+003,8.742554e+000
2.902391e+003,7.464050e+000
2.903355e+003,8.727979e+000
2.904320e+003,1.009991e+001
2.905284e+003,8.868628e+000
2.906248e+003,7.075574e+000
2.907212e+003,7.987775e+000
2.908177e+003,9.784589e+000
2.909141e+003,9.367682e+000
2.910105e+003,8.188482e+000
2.911069e+003,7.195563e+000
2.912033e+003,6.869421e+000
2.912998e+003,8.707453e+000
2.913962e+003,9.741425e+000
2.914926e+003,7.803088e+000
2.915890e+003,5.733435e+000
2.916854e+003,5.589075e+000
2.917819e+003,6.385541e+000
2.918783e+003,7.200562e+000
2.919747e+003,7.956220e+000
2.920711e+003,8.711157e+000
2.921676e+003,9.216589e+000
2.922640e+003,8.805890e+000
2.923604e+003,8.975592e+000
2.924568e+003,1.116587e+001
2.925533e+003,1.177407e+001
2.926497e+003,9.242188e+000
2.927461e+003,6.608643e+000
2.928425e+003,5.885254e+000
2.929390e+003,7.055573e+000
2.930354e+003,9.437146e+000
2.931318e+003,1.071023e+001
2.932282e+003,8.957977e+000
2.933247e+003,7.125305e+000
2.934211e+003,7.542127e+000
2.935175e+003,8.398254e+000
2.936139e+003,8.835986e+000
2.937104e+003,8.713257e+000
2.938068e+003,8.221588e+000
2.939032e+003,8.612543e+000
2.939996e+003,1.003751e+001
2.940960e+003,1.077939e+001
2.941925e+003,1.015480e+001
2.942889e+003,9.333362e+000
2.943853e+003,8.775843e+000
2.944817e+003,7.769812e+000
2.945781e+003,6.019879e+000
2.946746e+003,5.637811e+000
2.947710e+003,6.573529e+000
2.948674e+003,7.318695e+000
2.949638e+003,7.470245e+000
2.950603e+003,6.080432e+000
2.951567e+003,3.732990e+000
2.952531e+003,2.914331e+000
2.953495e+003,3.950818e+000
2.954460e+003,5.078607e+000
2.955424e+003,6.224622e+000
2.956388e+003,5.951587e+000
2.957352e+003,4.461774e+000
2.958317e+003,4.209656e+000
2.959281e+003,4.545990e+000
2.960245e+003,2.686249e+000
2.961209e+003,3.746216e-001
2.962174e+003,1.657574e+000
2.963138e+003,5.133166e+000
2.964102e+003,7.384454e+000
2.965066e+003,8.317279e+000
2.966031e+003,7.747473e+000
2.966995e+003,6.191485e+000
2.967959e+003,4.924609e+000
2.968923e+003,4.182843e+000
2.969887e+003,5.395569e+000
2.970852e+003,6.489752e+000
2.971816e+003,4.025031e+000
2.972780e+003,1.143170e+000
2.973744e+003,1.254724e+000
2.974708e+003,2.514917e+000
2.975673e+003,3.534381e+000
2.976637e+003,4.273529e+000
2.977601e+003,4.663886e+000
2.978565e+003,4.732556e+000
2.979530e+003,4.296515e+000
2.980494e+003,3.946313e+000
2.981458e+003,4.632294e+000
2.982422e+003,4.875031e+000
2.983387e+003,3.802765e+000
2.984351e+003,2.062561e+000
2.985315e+003,-2.875732e-001
2.986279e+003,-1.679788e+000
2.987244e+003,-1.333032e+000
2.988208e+003,1.365356e-001
2.989172e+003,2.449121e+000
2.990136e+003,3.608661e+000
2.991101e+003,1.472986e+000
2.992065e+003,2.454712e-001
2.993029e+003,1.173987e+000
2.993993e+003,1.837793e+000
2.994958e+003,1.959631e+000
2.995922e+003,1.392993e+000
2.996886e+003,4.144409e-001
2.997850e+003,9.375122e-001
2.998814e+003,2.904877e+000
2.999779e+003,3.229681e+000
3.000743e+003,1.085382e+000
3.001707e+003,1.999573e-001
3.002671e+003,1.161920e+000
3.003635e+003,1.023865e+000
3.004600e+003,-1.124451e-001
3.005564e+003,3.648071e-002
3.006528e+003,9.714538e-001
3.007492e+003,4.416565e-001
3.008457e+003,-6.909668e-001
3.009421e+003,1.854492e-001
3.010385e+003,2.333899e+000
3.011349e+003,3.369208e+000
3.012314e+003,3.332770e+000
3.013278e+003,2.250708e+000
3.014242e+003,5.528320e-001
3.015206e+003,-5.508789e-001
3.016171e+003,-1.042914e+000
3.017135e+003,-2.117706e-001
3.018099e+003,5.592407e-001
3.019063e+003,-8.120758e-001
3.020028e+003,-2.122171e+000
3.020992e+003,-1.245715e+000
3.021956e+003,-4.431763e-001
3.022920e+003,-1.783377e+000
3.023885e+003,-3.229129e+000
3.024849e+003,-2.335864e+000
3.025813e+003,-1.166479e+000
3.026777e+003,-1.809866e+000
3.027741e+003,-2.649295e+000
3.028706e+003,-3.239621e+000
3.029670e+003,-3.071359e+000
3.030634e+003,-1.771811e+000
3.031598e+003,-1.303525e+000
3.032563e+003,-2.233798e+000
3.033527e+003,-2.214423e+000
3.034491e+003,-3.409149e-001
3.035455e+003,1.437543e+000
3.036420e+003,2.467200e+000
3.037384e+003,1.821967e+000
3.038348e+003,-1.945242e+000
3.039312e+003,-2.907300e+000
3.040277e+003,-9.650146e-001
3.041241e+003,-1.099243e+000
3.042205e+003,-2.927533e+000
3.043169e+003,-2.502255e+000
3.044134e+003,-1.794464e-001
3.045098e+003,1.156219e+000
3.046062e+003,1.254327e+000
3.047026e+003,1.561432e+000
3.047990e+003,1.992902e+000
3.048955e+003,1.435565e+000
3.049919e+003,2.136322e-001
3.050883e+003,-2.922394e-001
3.051847e+003,-3.749359e-001
3.052812e+003,-7.120117e-001
3.053776e+003,-7.078949e-001
3.054740e+003,7.895843e-001
3.055704e+003,2.445111e+000
3.056668e+003,3.138391e+000
3.057633e+003,3.322192e+000
3.058597e+003,3.453314e+000
3.059561e+003,3.369324e+000
3.060525e+003,2.611450e+000
3.061490e+003,1.960028e+000
3.062454e+003,1.893109e+000
3.063418e+003,2.441711e+000
3.064382e+003,4.090045e+000
3.065347e+003,4.632697e+000
3.066311e+003,3.451440e+000
3.067275e+003,3.244385e+000
3.068239e+003,4.836035e+000
3.069204e+003,5.395404e+000
3.070168e+003,3.597650e+000
3.071132e+003,1.883447e+000
3.072096e+003,8.501648e-001
3.073061e+003,1.003744e+000
3.074025e+003,2.495587e+000
3.074989e+003,3.932410e+000
3.075953e+003,4.896930e+000
3.076917e+003,3.692902e+000
3.077882e+003,1.169073e+000
3.078846e+003,-7.335816e-002
3.079810e+003,-8.911133e-002
3.080774e+003,-4.548645e-001
3.081739e+003,-1.054590e+000
3.082703e+003,-1.177380e+000
3.083667e+003,-1.119287e+000
3.084631e+003,-1.974133e+000
3.085595e+003,-3.091092e+000
3.086560e+003,-3.544345e+000
3.087524e+003,-3.512292e+000
3.088488e+003,-2.715399e+000
3.089452e+003,-2.365997e+000
3.090417e+003,-3.412881e+000
3.091381e+003,-4.184751e+000
3.092345e+003,-3.355145e+000
3.093309e+003,-2.555093e+000
3.094274e+003,-3.485428e+000
3.095238e+003,-4.224149e+000
3.096202e+003,-3.155966e+000
3.097166e+003,-2.264749e+000
3.098131e+003,-1.813028e+000
3.099095e+003,-2.034631e+000
3.100059e+003,-2.964242e+000
3.101023e+003,-4.772885e+000
3.101988e+003,-6.950980e+000
3.102952e+003,-6.829584e+000
3.103916e+003,-4.118381e+000
3.104880e+003,-3.147168e+000
3.105844e+003,-4.448468e+000
3.106809e+003,-4.958282e+000
3.107773e+003,-4.806430e+000
3.108737e+003,-5.745001e+000
3.109701e+003,-7.283829e+000
3.110666e+003,-8.572818e+000
3.111630e+003,-9.034475e+000
3.112594e+003,-7.079706e+000
3.113558e+003,-4.817380e+000
3.114522e+003,-5.118362e+000
3.115487e+003,-6.237140e+000
3.116451e+003,-5.665597e+000
3.117415e+003,-4.408002e+000
3.118379e+003,-3.401712e+000
3.119344e+003,-3.132132e+000
3.120308e+003,-4.671786e+000
3.121272e+003,-6.072736e+000
3.122236e+003,-6.643167e+000
3.123201e+003,-6.897299e+000
3.124165e+003,-6.987814e+000
3.125129e+003,-6.145416e+000
3.126093e+003,-4.246628e+000
3.127058e+003,-3.036786e+000
3.128022e+003,-3.291629e+000
3.128986e+003,-3.958560e+000
3.129950e+003,-4.930402e+000
3.130915e+003,-6.065076e+000
3.131879e+003,-7.214389e+000
3.132843e+003,-6.450192e+000
3.133807e+003,-4.613251e+000
3.134771e+003,-4.342999e+000
3.135736e+003,-5.089691e+000
3.136700e+003,-4.521338e+000
3.137664e+003,-3.788092e+000
3.138628e+003,-5.600955e+000
3.139593e+003,-8.448407e+000
3.140557e+003,-8.963827e+000
3.141521e+003,-8.100058e+000
3.142485e+003,-6.759109e+000
3.143449e+003,-5.404715e+000
3.144414e+003,-3.352060e+000
3.145378e+003,-3.538092e+000
3.146342e+003,-7.706302e+000
3.147306e+003,-1.036024e+001
3.148271e+003,-8.979650e+000
3.149235e+003,-6.923615e+000
3.150199e+003,-6.025415e+000
3.151163e+003,-5.927554e+000
3.152128e+003,-6.886310e+000
3.153092e+003,-7.528433e+000
3.154056e+003,-7.863098e+000
3.155020e+003,-7.116852e+000
3.155985e+003,-5.830389e+000
3.156949e+003,-7.124118e+000
3.157913e+003,-9.805527e+000
3.158877e+003,-1.003781e+001
3.159842e+003,-8.111176e+000
3.160806e+003,-6.293991e+000
3.161770e+003,-4.990130e+000
3.162734e+003,-5.509085e+000
3.163698e+003,-6.698001e+000
3.164663e+003,-5.489459e+000
3.165627e+003,-4.352295e+000
3.166591e+003,-6.569186e+000
3.167555e+003,-8.714282e+000
3.168520e+003,-8.755783e+000
3.169484e+003,-8.683670e+000
3.170448e+003,-9.424802e+000
3.171412e+003,-9.393414e+000
3.172376e+003,-7.664685e+000
3.173341e+003,-5.936246e+000
3.174305e+003,-4.752374e+000
3.175269e+003,-4.921344e+000
3.176233e+003,-6.830020e+000
3.177198e+003,-7.445935e+000
3.178162e+003,-6.835803e+000
3.179126e+003,-6.259567e+000
3.180090e+003,-6.107736e+000
3.181055e+003,-7.505487e+000
3.182019e+003,-9.357282e+000
3.182983e+003,-8.165998e+000
3.183947e+003,-5.666883e+000
3.184912e+003,-6.326398e+000
3.185876e+003,-8.310086e+000
3.186840e+003,-7.320025e+000
3.187804e+003,-5.630567e+000
3.188769e+003,-5.435489e+000
3.189733e+003,-5.822656e+000
3.190697e+003,-6.446958e+000
3.191661e+003,-6.915582e+000
3.192625e+003,-7.052396e+000
3.193590e+003,-6.587854e+000
3.194554e+003,-5.436584e+000
3.195518e+003,-5.041168e+000
3.196482e+003,-6.471384e+000
3.197447e+003,-6.914365e+000
3.198411e+003,-5.949750e+000
3.199375e+003,-5.895645e+000
3.200339e+003,-6.467212e+000
3.201303e+003,-5.074820e+000
3.202268e+003,-2.839792e+000
3.203232e+003,-2.935559e+000
3.204196e+003,-4.749478e+000
3.205160e+003,-6.366501e+000
3.206125e+003,-7.396091e+000
3.207089e+003,-6.991547e+000
3.208053e+003,-6.236447e+000
3.209017e+003,-7.321625e+000
3.209982e+003,-8.536298e+000
3.210946e+003,-8.496073e+000
3.211910e+003,-7.948953e+000
3.212874e+003,-7.084161e+000
3.213839e+003,-6.462622e+000
3.214803e+003,-6.289526e+000
3.215767e+003,-6.561017e+000
3.216731e+003,-7.216370e+000
3.217696e+003,-8.053647e+000
3.218660e+003,-9.225317e+000
3.219624e+003,-8.503736e+000
3.220588e+003,-5.808972e+000
3.221552e+003,-5.373935e+000
3.222517e+003,-6.361871e+000
3.223481e+003,-6.076996e+000
3.224445e+003,-5.316531e+000
3.225409e+003,-5.678122e+000
3.226374e+003,-6.716080e+000
3.227338e+003,-7.974005e+000
3.228302e+003,-8.736399e+000
3.229266e+003,-7.991458e+000
3.230230e+003,-6.902353e+000
3.231195e+003,-6.169821e+000
3.232159e+003,-6.410779e+000
3.233123e+003,-9.144369e+000
3.234087e+003,-1.004753e+001
3.235052e+003,-8.457242e+000
3.236016e+003,-6.511551e+000
3.236980e+003,-5.042676e+000
3.237944e+003,-5.435855e+000
3.238909e+003,-7.510947e+000
3.239873e+003,-7.669833e+000
3.240837e+003,-6.002631e+000
3.241801e+003,-5.071536e+000
3.242766e+003,-4.777036e+000
3.243730e+003,-4.910895e+000
3.244694e+003,-5.189130e+000
3.245658e+003,-5.305514e+000
3.246623e+003,-5.233926e+000
3.247587e+003,-4.653085e+000
3.248551e+003,-5.005576e+000
3.249515e+003,-7.267306e+000
3.250479e+003,-9.027597e+000
3.251444e+003,-8.453830e+000
3.252408e+003,-7.267999e+000
3.253372e+003,-5.668780e+000
3.254336e+003,-5.259952e+000
3.255301e+003,-6.138092e+000
3.256265e+003,-7.672537e+000
3.257229e+003,-9.319461e+000
3.258193e+003,-8.971033e+000
3.259157e+003,-7.357910e+000
3.260122e+003,-7.023782e+000
3.261086e+003,-7.631900e+000
3.262050e+003,-8.000177e+000
3.263014e+003,-7.901544e+000
3.263979e+003,-6.095599e+000
3.264943e+003,-4.446921e+000
3.265907e+003,-6.099753e+000
3.266871e+003,-7.445526e+000
3.267836e+003,-6.384943e+000
3.268800e+003,-5.010254e+000
3.269764e+003,-3.916312e+000
3.270728e+003,-3.858704e+000
3.271693e+003,-4.975339e+000
3.272657e+003,-6.125540e+000
3.273621e+003,-6.935980e+000
3.274585e+003,-6.865735e+000
3.275550e+003,-5.885126e+000
3.276514e+003,-4.694135e+000
3.277478e+003,-3.561084e+000
3.278442e+003,-3.292505e+000
3.279406e+003,-3.637939e+000
3.280371e+003,-4.701612e+000
3.281335e+003,-5.390753e+000
3.282299e+003,-4.745096e+000
3.283263e+003,-3.711740e+000
3.284228e+003,-3.132962e+000
3.285192e+003,-2.898785e+000
3.286156e+003,-2.932022e+000
3.287120e+003,-3.281281e+000
3.288084e+003,-4.161368e+000
3.289049e+003,-4.448868e+000
3.290013e+003,-4.121704e+000
3.290977e+003,-4.206540e+000
3.291941e+003,-4.544427e+000
3.292906e+003,-3.750723e+000
3.293870e+003,-2.387351e+000
3.294834e+003,-2.681778e+000
3.295798e+003,-4.082318e+000
3.296763e+003,-5.620346e+000
3.297727e+003,-6.613070e+000
3.298691e+003,-5.185278e+000
3.299655e+003,-3.619696e+000
3.300620e+003,-3.993668e+000
3.301584e+003,-4.127142e+000
3.302548e+003,-3.417011e+000
3.303512e+003,-2.306363e+000
3.304477e+003,-1.137238e+000
3.305441e+003,-1.369028e+000
3.306405e+003,-3.577411e+000
3.307369e+003,-4.630496e+000
3.308333e+003,-4.353665e+000
3.309298e+003,-2.623721e+000
3.310262e+003,-2.894470e-001
3.311226e+003,-2.309814e-001
3.312190e+003,-1.119922e+000
3.313155e+003,-8.995880e-001
3.314119e+003,-6.222656e-001
3.315083e+003,-1.247241e+000
3.316047e+003,-1.794672e+000
3.317011e+003,-1.420966e+000
3.317976e+003,-1.230768e+000
3.318940e+003,-2.540601e+000
3.319904e+003,-2.880103e+000
3.320868e+003,-1.406097e+000
3.321833e+003,-2.030719e+000
3.322797e+003,-4.306580e+000
3.323761e+003,-3.449432e+000
3.324725e+003,-5.608551e-001
3.325690e+003,-3.084442e-001
3.326654e+003,-1.752618e+000
3.327618e+003,-1.758044e+000
3.328582e+003,-8.070709e-001
3.329547e+003,7.538239e-001
3.330511e+003,1.724597e+000
3.331475e+003,-4.116913e-001
3.332439e+003,-1.690497e+000
3.333404e+003,1.846313e-003
3.334368e+003,6.900604e-001
3.335332e+003,-3.368683e-001
3.336296e+003,-8.025543e-001
3.337260e+003,-2.859375e-001
3.338225e+003,-4.914795e-001
3.339189e+003,-1.604224e+000
3.340153e+003,-1.512967e+000
3.341117e+003,-5.179657e-001
3.342082e+003,-4.518158e-001
3.343046e+003,-6.175659e-001
3.344010e+003,4.431458e-001
3.344974e+003,1.378912e+000
3.345938e+003,1.071448e+000
3.346903e+003,4.576202e-001
3.347867e+003,-1.527405e-002
3.348831e+003,9.252624e-002
3.349795e+003,1.045709e+000
3.350760e+003,1.704651e+000
3.351724e+003,1.484515e+000
3.352688e+003,1.639639e+000
3.353652e+003,2.108414e+000
3.354617e+003,1.992923e+000
3.355581e+003,1.519110e+000
3.356545e+003,8.642914e-001
3.357509e+003,7.498230e-001
3.358474e+003,2.244925e+000
3.359438e+003,3.695096e+000
3.360402e+003,3.480322e+000
3.361366e+003,3.233231e+000
3.362331e+003,4.926260e+000
3.363295e+003,5.754474e+000
3.364259e+003,4.053397e+000
3.365223e+003,3.537930e+000
3.366188e+003,4.344931e+000
3.367152e+003,4.553861e+000
3.368116e+003,4.040649e+000
3.369080e+003,3.119705e+000
3.370044e+003,2.292032e+000
3.371009e+003,2.490076e+000
3.371973e+003,3.206552e+000
3.372937e+003,3.452686e+000
3.373901e+003,3.570471e+000
3.374865e+003,3.678607e+000
3.375830e+003,4.397720e+000
3.376794e+003,6.463022e+000
3.377758e+003,6.851968e+000
3.378722e+003,5.215555e+000
3.379687e+003,4.468405e+000
3.380651e+003,5.232446e+000
3.381615e+003,6.455548e+000
3.382579e+003,7.687149e+000
3.383544e+003,7.632266e+000
3.384508e+003,6.893329e+000
3.385472e+003,8.010633e+000
3.386436e+003,9.326599e+000
3.387401e+003,8.848434e+000
3.388365e+003,7.440781e+000
3.389329e+003,5.454031e+000
3.390293e+003,4.104410e+000
3.391258e+003,3.843649e+000
3.392222e+003,3.800043e+000
3.393186e+003,3.631097e+000
3.394150e+003,4.336362e+000
3.395115e+003,5.970758e+000
3.396079e+003,7.469586e+000
3.397043e+003,8.691297e+000
3.398007e+003,9.257919e+000
3.398971e+003,9.269623e+000
3.399936e+003,8.444693e+000
3.400900e+003,7.658942e+000
3.401864e+003,7.453970e+000
3.402828e+003,7.364435e+000
3.403792e+003,7.084116e+000
3.404757e+003,7.227777e+000
3.405721e+003,8.369596e+000
3.406685e+003,9.165903e+000
3.407649e+003,9.548212e+000
3.408614e+003,9.874481e+000
3.409578e+003,1.027818e+001
3.410542e+003,1.156183e+001
3.411506e+003,1.237309e+001
3.412471e+003,1.016191e+001
3.413435e+003,8.132584e+000
3.414399e+003,9.489120e+000
3.415363e+003,1.172744e+001
3.416328e+003,1.292247e+001
3.417292e+003,1.283983e+001
3.418256e+003,1.068874e+001
3.419220e+003,1.009981e+001
3.420185e+003,1.114624e+001
3.421149e+003,1.261334e+001
3.422113e+003,1.381354e+001
3.423077e+003,1.312996e+001
3.424042e+003,1.185098e+001
3.425006e+003,1.247307e+001
3.425970e+003,1.395362e+001
3.426934e+003,1.503054e+001
