7.140112e+001,1.672111e+002
7.236536e+001,1.617834e+002
7.332959e+001,1.614998e+002
7.429382e+001,1.662149e+002
7.525806e+001,1.770933e+002
7.622229e+001,1.817579e+002
7.718652e+001,1.713586e+002
7.815076e+001,1.375608e+002
7.911499e+001,1.146747e+002
8.007922e+001,9.931699e+001
8.104346e+001,9.276376e+001
8.200769e+001,9.709701e+001
8.297192e+001,1.196546e+002
8.393616e+001,1.449290e+002
8.490039e+001,1.774498e+002
8.586462e+001,2.094456e+002
8.682886e+001,2.282444e+002
8.779310e+001,2.057610e+002
8.875733e+001,1.703115e+002
8.972157e+001,1.362100e+002
9.068580e+001,1.091302e+002
9.165003e+001,8.925546e+001
9.261427e+001,8.213135e+001
9.357850e+001,8.364751e+001
9.454273e+001,8.771379e+001
9.550697e+001,9.046902e+001
9.647120e+001,9.224013e+001
9.743543e+001,9.134160e+001
9.839967e+001,8.716808e+001
9.936390e+001,8.109077e+001
1.003281e+002,7.438788e+001
1.012924e+002,6.436422e+001
1.022566e+002,5.781762e+001
1.032208e+002,5.712856e+001
1.041851e+002,6.082139e+001
1.051493e+002,6.533775e+001
1.061135e+002,6.982456e+001
1.070778e+002,7.206102e+001
1.080420e+002,6.972768e+001
1.090062e+002,6.270730e+001
1.099705e+002,5.346083e+001
1.109347e+002,4.699223e+001
1.118989e+002,4.292273e+001
1.128632e+002,4.294921e+001
1.138274e+002,4.841179e+001
1.147916e+002,6.061343e+001
1.157559e+002,6.620583e+001
1.167201e+002,6.304474e+001
1.176843e+002,5.716019e+001
1.186486e+002,5.608877e+001
1.196128e+002,6.516069e+001
1.205770e+002,7.190808e+001
1.215413e+002,7.721832e+001
1.225055e+002,7.976784e+001
1.234697e+002,7.702129e+001
1.244340e+002,5.886137e+001
1.253982e+002,4.137009e+001
1.263624e+002,2.814269e+001
1.273267e+002,2.084918e+001
1.282909e+002,1.977836e+001
1.292551e+002,3.323130e+001
1.302194e+002,5.083696e+001
1.311836e+002,6.320841e+001
1.321478e+002,6.438086e+001
1.331121e+002,5.410698e+001
1.340763e+002,4.380193e+001
1.350405e+002,3.265052e+001
1.360048e+002,2.403325e+001
1.369690e+002,2.194221e+001
1.379332e+002,3.223677e+001
1.388975e+002,4.040559e+001
1.398617e+002,4.658707e+001
1.408259e+002,5.056388e+001
1.417902e+002,5.202001e+001
1.427544e+002,4.903253e+001
1.437186e+002,4.515226e+001
1.446829e+002,4.066388e+001
1.456471e+002,3.599664e+001
1.466113e+002,3.171091e+001
1.475756e+002,2.656367e+001
1.485398e+002,2.345514e+001
1.495040e+002,2.679382e+001
1.504683e+002,3.746085e+001
1.514325e+002,5.271100e+001
1.523967e+002,5.604374e+001
1.533610e+002,5.026213e+001
1.543252e+002,4.200278e+001
1.552894e+002,3.579029e+001
1.562537e+002,3.227515e+001
1.572179e+002,2.943450e+001
1.581821e+002,2.533151e+001
1.591464e+002,2.278580e+001
1.601106e+002,2.577637e+001
1.610748e+002,4.226141e+001
1.620391e+002,5.166500e+001
1.630033e+002,4.565113e+001
1.639676e+002,3.097227e+001
1.649318e+002,1.814507e+001
1.658960e+002,1.894325e+001
1.668603e+002,2.365094e+001
1.678245e+002,2.637395e+001
1.687887e+002,2.645006e+001
1.697530e+002,2.522401e+001
1.707172e+002,2.623603e+001
1.716814e+002,2.865880e+001
1.726457e+002,3.091616e+001
1.736099e+002,3.253736e+001
1.745741e+002,3.357345e+001
1.755384e+002,3.130752e+001
1.765026e+002,2.311559e+001
1.774668e+002,1.551884e+001
1.784311e+002,1.243506e+001
1.793953e+002,1.592167e+001
1.803595e+002,1.795757e+001
1.813238e+002,1.601505e+001
1.822880e+002,1.306920e+001
1.832522e+002,1.180710e+001
1.842165e+002,1.485024e+001
1.851807e+002,1.724252e+001
1.861449e+002,1.429304e+001
1.871092e+002,8.665051e+000
1.880734e+002,3.763025e+000
1.890376e+002,4.320520e+000
1.900019e+002,9.253210e+000
1.909661e+002,1.498033e+001
1.919303e+002,2.114963e+001
1.928946e+002,2.690162e+001
1.938588e+002,2.910154e+001
1.948230e+002,2.565475e+001
1.957873e+002,2.318589e+001
1.967515e+002,2.217925e+001
1.977157e+002,2.273245e+001
1.986800e+002,2.638242e+001
1.996442e+002,3.468196e+001
2.006084e+002,4.409191e+001
2.015727e+002,5.551807e+001
2.025369e+002,6.904057e+001
2.035011e+002,7.850655e+001
2.044654e+002,7.943706e+001
2.054296e+002,7.561442e+001
2.063938e+002,6.728259e+001
2.073581e+002,5.479275e+001
2.083223e+002,4.135928e+001
2.092865e+002,3.300908e+001
2.102508e+002,2.932136e+001
2.112150e+002,3.225465e+001
2.121792e+002,4.411809e+001
2.131435e+002,6.849837e+001
2.141077e+002,8.022729e+001
2.150719e+002,7.432176e+001
2.160362e+002,6.049341e+001
2.170004e+002,5.310182e+001
2.179646e+002,5.769315e+001
2.189289e+002,6.205355e+001
2.198931e+002,6.350692e+001
2.208573e+002,6.390974e+001
2.218216e+002,6.718803e+001
2.227858e+002,7.936848e+001
2.237500e+002,9.162416e+001
2.247143e+002,1.037196e+002
2.256785e+002,1.133869e+002
2.266427e+002,1.167702e+002
2.276070e+002,1.010806e+002
2.285712e+002,7.595673e+001
2.295354e+002,5.300208e+001
2.304997e+002,3.575115e+001
2.314639e+002,2.383043e+001
2.324281e+002,1.592899e+001
2.333924e+002,1.205619e+001
2.343566e+002,1.030879e+001
2.353208e+002,1.094408e+001
2.362851e+002,1.463901e+001
2.372493e+002,1.610418e+001
2.382135e+002,1.352369e+001
2.391778e+002,1.054233e+001
2.401420e+002,9.094885e+000
2.411062e+002,1.006063e+001
2.420705e+002,1.073707e+001
2.430347e+002,9.119970e+000
2.439989e+002,6.736792e+000
2.449632e+002,4.658191e+000
2.459274e+002,3.705542e+000
2.468916e+002,3.632336e+000
2.478559e+002,3.950183e+000
2.488201e+002,4.412341e+000
2.497843e+002,4.361877e+000
2.507486e+002,3.001916e+000
2.517128e+002,-9.401856e-002
2.526770e+002,-1.368323e+000
2.536413e+002,-9.888794e-001
2.546055e+002,8.628418e-001
2.555697e+002,4.216577e+000
2.565340e+002,1.234733e+001
2.574982e+002,1.713288e+001
2.584625e+002,1.664458e+001
2.594267e+002,1.299314e+001
2.603909e+002,9.713428e+000
2.613552e+002,8.776624e+000
2.623194e+002,8.437597e+000
2.632836e+002,8.191589e+000
2.642479e+002,7.919214e+000
2.652121e+002,7.574512e+000
2.661763e+002,6.852576e+000
2.671406e+002,6.209326e+000
2.681048e+002,6.488464e+000
2.690690e+002,7.783484e+000
2.700333e+002,9.725622e+000
2.709975e+002,1.086107e+001
2.719617e+002,1.136460e+001
2.729260e+002,1.081102e+001
2.738902e+002,8.340698e+000
2.748544e+002,4.003369e+000
2.758187e+002,1.207068e+000
2.767829e+002,1.260864e+000
2.777471e+002,1.478699e+000
2.787114e+002,1.053296e+000
2.796756e+002,-8.489990e-002
2.806398e+002,-7.947022e-001
2.816041e+002,-5.672241e-001
2.825683e+002,3.851074e-001
2.835325e+002,2.541248e+000
2.844968e+002,5.899597e+000
2.854610e+002,9.394849e+000
2.864252e+002,1.014739e+001
2.873895e+002,9.285498e+000
2.883537e+002,8.351965e+000
2.893179e+002,8.353735e+000
2.902822e+002,9.436902e+000
2.912464e+002,8.761853e+000
2.922106e+002,5.829480e+000
2.931749e+002,2.594836e+000
2.941391e+002,1.914307e-001
2.951033e+002,-1.340356e+000
2.960676e+002,-2.311023e+000
2.970318e+002,-2.978235e+000
2.979960e+002,-2.950781e+000
2.989603e+002,-1.752454e+000
2.999245e+002,1.042957e+000
3.008887e+002,3.846985e+000
3.018530e+002,5.490210e+000
3.028172e+002,6.579028e+000
3.037814e+002,7.750940e+000
3.047457e+002,9.576037e+000
3.057099e+002,1.161742e+001
3.066741e+002,1.294977e+001
3.076384e+002,1.347859e+001
3.086026e+002,1.241862e+001
3.095668e+002,8.748706e+000
3.105311e+002,9.348022e-001
3.114953e+002,-3.125281e+000
3.124595e+002,-1.934363e+000
3.134238e+002,1.474377e+000
3.143880e+002,3.647913e+000
3.153522e+002,3.748401e+000
3.163165e+002,3.452539e+000
3.172807e+002,2.467822e+000
3.182449e+002,1.746338e+000
3.192092e+002,2.477490e+000
3.201734e+002,6.059644e+000
3.211376e+002,9.808874e+000
3.221019e+002,1.166433e+001
3.230661e+002,1.223224e+001
3.240303e+002,1.252761e+001
3.249946e+002,1.380925e+001
3.259588e+002,1.564917e+001
3.269230e+002,1.588468e+001
3.278873e+002,1.445164e+001
3.288515e+002,1.227158e+001
3.298157e+002,1.097830e+001
3.307800e+002,1.134426e+001
3.317442e+002,1.173057e+001
3.327084e+002,1.133057e+001
3.336727e+002,1.097152e+001
3.346369e+002,1.234675e+001
3.356011e+002,1.819430e+001
3.365654e+002,2.251090e+001
3.375296e+002,2.327196e+001
3.384938e+002,2.182142e+001
3.394581e+002,2.025660e+001
3.404223e+002,2.013638e+001
3.413865e+002,2.083906e+001
3.423508e+002,2.142056e+001
3.433150e+002,2.218931e+001
3.442792e+002,2.382125e+001
3.452435e+002,2.743494e+001
3.462077e+002,3.327240e+001
3.471719e+002,3.936592e+001
3.481362e+002,4.514071e+001
3.491004e+002,5.176483e+001
3.500646e+002,6.186477e+001
3.510289e+002,7.420233e+001
3.519931e+002,9.370360e+001
3.529573e+002,1.224637e+002
3.539216e+002,1.578475e+002
3.548858e+002,1.969315e+002
3.558500e+002,2.514852e+002
3.568143e+002,2.898987e+002
3.577785e+002,3.014482e+002
3.587427e+002,2.901891e+002
3.597070e+002,2.628040e+002
3.606712e+002,2.190484e+002
3.616354e+002,1.704054e+002
3.625997e+002,1.305765e+002
3.635639e+002,1.004291e+002
3.645281e+002,7.890304e+001
3.654924e+002,6.405009e+001
3.664566e+002,5.789263e+001
3.674208e+002,5.183092e+001
3.683851e+002,4.554844e+001
3.693493e+002,3.939530e+001
3.703135e+002,3.424902e+001
3.712778e+002,3.134863e+001
3.722420e+002,2.822959e+001
3.732062e+002,2.347549e+001
3.741705e+002,1.865717e+001
3.751347e+002,1.650050e+001
3.760989e+002,2.046750e+001
3.770632e+002,2.443142e+001
3.780274e+002,2.489412e+001
3.789916e+002,2.289272e+001
3.799559e+002,2.033580e+001
3.809201e+002,1.932731e+001
3.818844e+002,1.940267e+001
3.828486e+002,1.858765e+001
3.838128e+002,1.699244e+001
3.847771e+002,1.555592e+001
3.857413e+002,1.571836e+001
3.867055e+002,1.862607e+001
3.876698e+002,2.014355e+001
3.886340e+002,1.839647e+001
3.895982e+002,1.602858e+001
3.905625e+002,1.713743e+001
3.915267e+002,2.561634e+001
3.924909e+002,3.117184e+001
3.934552e+002,3.106962e+001
3.944194e+002,2.802593e+001
3.953836e+002,2.465168e+001
3.963479e+002,2.198612e+001
3.973121e+002,2.077858e+001
3.982763e+002,2.216600e+001
3.992406e+002,2.485378e+001
4.002048e+002,2.692579e+001
4.011690e+002,2.648900e+001
4.021333e+002,2.400438e+001
4.030975e+002,2.366981e+001
4.040617e+002,2.548518e+001
4.050260e+002,2.793280e+001
4.059902e+002,2.926073e+001
4.069544e+002,2.823527e+001
4.079187e+002,2.984834e+001
4.088829e+002,3.501097e+001
4.098471e+002,4.128245e+001
4.108114e+002,4.664172e+001
4.117756e+002,5.020200e+001
4.127398e+002,5.517046e+001
4.137041e+002,6.559843e+001
4.146683e+002,7.587551e+001
4.156325e+002,8.193204e+001
4.165968e+002,8.161531e+001
4.175610e+002,7.692075e+001
4.185252e+002,6.949071e+001
4.194895e+002,6.118092e+001
4.204537e+002,5.419680e+001
4.214179e+002,4.996421e+001
4.223822e+002,4.844701e+001
4.233464e+002,4.956344e+001
4.243106e+002,5.375561e+001
4.252749e+002,5.719112e+001
4.262391e+002,5.650575e+001
4.272033e+002,5.090004e+001
4.281676e+002,5.170245e+001
4.291318e+002,6.264344e+001
4.300960e+002,7.633828e+001
4.310603e+002,9.032048e+001
4.320245e+002,1.041569e+002
4.329887e+002,1.198209e+002
4.339530e+002,1.394451e+002
4.349172e+002,1.614538e+002
4.358814e+002,1.890388e+002
4.368457e+002,2.203158e+002
4.378099e+002,2.489407e+002
4.387741e+002,2.612440e+002
4.397384e+002,2.596910e+002
4.407026e+002,2.511323e+002
4.416668e+002,2.362879e+002
4.426311e+002,2.168286e+002
4.435953e+002,1.983677e+002
4.445595e+002,1.806578e+002
4.455238e+002,1.645907e+002
4.464880e+002,1.494419e+002
4.474522e+002,1.359929e+002
4.484165e+002,1.265231e+002
4.493807e+002,1.255156e+002
4.503449e+002,1.238650e+002
4.513092e+002,1.190725e+002
4.522734e+002,1.116895e+002
4.532376e+002,1.026004e+002
4.542019e+002,9.199773e+001
4.551661e+002,8.122595e+001
4.561303e+002,7.167655e+001
4.570946e+002,6.337712e+001
4.580588e+002,5.616474e+001
4.590230e+002,4.982087e+001
4.599873e+002,4.456218e+001
4.609515e+002,4.201152e+001
4.619157e+002,4.244221e+001
4.628800e+002,4.416255e+001
4.638442e+002,4.563398e+001
4.648084e+002,4.644315e+001
4.657727e+002,4.841169e+001
4.667369e+002,5.216862e+001
4.677011e+002,5.649163e+001
4.686654e+002,6.100945e+001
4.696296e+002,6.564040e+001
4.705938e+002,6.907034e+001
4.715581e+002,7.116608e+001
4.725223e+002,7.126530e+001
4.734865e+002,6.771934e+001
4.744508e+002,6.049650e+001
4.754150e+002,5.188916e+001
4.763792e+002,4.825063e+001
4.773435e+002,4.789401e+001
4.783077e+002,4.650988e+001
4.792719e+002,4.254222e+001
4.802362e+002,3.672753e+001
4.812004e+002,3.311520e+001
4.821646e+002,3.414601e+001
4.831289e+002,3.431332e+001
4.840931e+002,3.243497e+001
4.850573e+002,2.919264e+001
4.860216e+002,2.648851e+001
4.869858e+002,2.516747e+001
4.879500e+002,2.471335e+001
4.889143e+002,2.558733e+001
4.898785e+002,2.698220e+001
4.908427e+002,2.768673e+001
4.918070e+002,2.650417e+001
4.927712e+002,2.431436e+001
4.937354e+002,2.272379e+001
4.946997e+002,2.166614e+001
4.956639e+002,2.089028e+001
4.966281e+002,2.012688e+001
4.975924e+002,1.937355e+001
4.985566e+002,1.945311e+001
4.995208e+002,1.981006e+001
5.004851e+002,2.137506e+001
5.014493e+002,2.534849e+001
5.024135e+002,3.249921e+001
5.033778e+002,3.843482e+001
5.043420e+002,4.307652e+001
5.053063e+002,4.658228e+001
5.062705e+002,4.892609e+001
5.072347e+002,5.000176e+001
5.081990e+002,4.951734e+001
5.091632e+002,4.597279e+001
5.101274e+002,4.148320e+001
5.110917e+002,3.696807e+001
5.120559e+002,3.281190e+001
5.130201e+002,2.905649e+001
5.139844e+002,2.570325e+001
5.149486e+002,2.275631e+001
5.159128e+002,2.058276e+001
5.168771e+002,1.957336e+001
5.178413e+002,1.894570e+001
5.188055e+002,1.682476e+001
5.197698e+002,1.083289e+001
5.207340e+002,7.076734e+000
5.216982e+002,7.191589e+000
5.226625e+002,8.655401e+000
5.236267e+002,8.442932e+000
5.245909e+002,4.904547e+000
5.255552e+002,1.919934e+000
5.265194e+002,1.679761e+000
5.274836e+002,2.666187e+000
5.284479e+002,3.755841e+000
5.294121e+002,4.312171e+000
5.303763e+002,4.504169e+000
5.313406e+002,4.122949e+000
5.323048e+002,3.552258e+000
5.332690e+002,4.136597e+000
5.342333e+002,6.671777e+000
5.351975e+002,1.060773e+001
5.361617e+002,1.130358e+001
5.371260e+002,5.388843e+000
5.380902e+002,1.504413e+000
5.390544e+002,2.223065e+000
5.400187e+002,6.161377e+000
5.409829e+002,8.971087e+000
5.419471e+002,9.285192e+000
5.429114e+002,8.853564e+000
5.438756e+002,7.712341e+000
5.448398e+002,6.244360e+000
5.458041e+002,4.883173e+000
5.467683e+002,3.928424e+000
5.477325e+002,3.360907e+000
5.486968e+002,3.119720e+000
5.496610e+002,3.070392e+000
5.506252e+002,2.909332e+000
5.515895e+002,2.382501e+000
5.525537e+002,1.501660e+000
5.535179e+002,1.549329e+000
5.544822e+002,2.972974e+000
5.554464e+002,4.011249e+000
5.564106e+002,3.244995e+000
5.573749e+002,5.982727e-001
5.583391e+002,-6.585816e-001
5.593033e+002,1.950330e+000
5.602676e+002,3.903943e+000
5.612318e+002,3.297534e+000
5.621960e+002,8.481140e-001
5.631603e+002,-8.541138e-001
5.641245e+002,9.352051e-001
5.650887e+002,3.177368e+000
5.660530e+002,2.967279e+000
5.670172e+002,1.029614e+000
5.679814e+002,-7.429504e-001
5.689457e+002,-2.870422e-001
5.699099e+002,2.221503e+000
5.708741e+002,3.656238e+000
5.718384e+002,4.107422e+000
5.728026e+002,3.871680e+000
5.737668e+002,2.840863e+000
5.747311e+002,6.021606e-001
5.756953e+002,-4.179993e-001
5.766595e+002,1.206580e+000
5.776238e+002,2.400195e+000
5.785880e+002,1.505530e+000
5.795522e+002,-1.273731e+000
5.805165e+002,-3.609943e+000
5.814807e+002,-3.309253e+000
5.824449e+002,-2.561444e+000
5.834092e+002,-2.788031e+000
5.843734e+002,-3.731830e+000
5.853376e+002,-4.232764e+000
5.863019e+002,-2.742432e+000
5.872661e+002,1.588623e-001
5.882303e+002,1.085938e+000
5.891946e+002,6.280518e-003
5.901588e+002,-1.576416e+000
5.911230e+002,-2.138000e+000
5.920873e+002,-1.412085e+000
5.930515e+002,-7.243408e-001
5.940157e+002,2.671570e-001
5.949800e+002,9.687805e-001
5.959442e+002,9.211914e-001
5.969084e+002,1.277710e-001
5.978727e+002,-6.013794e-001
5.988369e+002,-8.096253e-001
5.998011e+002,-8.339844e-001
6.007654e+002,-5.831909e-001
6.017296e+002,-2.458252e-001
6.026938e+002,-3.149353e-001
6.036581e+002,-1.642242e+000
6.046223e+002,-3.376794e+000
6.055865e+002,-2.900098e+000
6.065508e+002,-3.329956e-001
6.075150e+002,2.523376e+000
6.084792e+002,3.676721e+000
6.094435e+002,2.654449e+000
6.104077e+002,2.410980e+000
6.113719e+002,3.195972e+000
6.123362e+002,4.130139e+000
6.133004e+002,4.775970e+000
6.142646e+002,5.113946e+000
6.152289e+002,5.475311e+000
6.161931e+002,6.312268e+000
6.171573e+002,6.859754e+000
6.181216e+002,6.527985e+000
6.190858e+002,5.697693e+000
6.200500e+002,5.267236e+000
6.210143e+002,6.108301e+000
6.219785e+002,7.813556e+000
6.229427e+002,9.604731e+000
6.239070e+002,1.135403e+001
6.248712e+002,1.256135e+001
6.258354e+002,1.268857e+001
6.267997e+002,1.153759e+001
6.277639e+002,1.244606e+001
6.287281e+002,1.706457e+001
6.296924e+002,2.090262e+001
6.306566e+002,2.166149e+001
6.316208e+002,1.959922e+001
6.325851e+002,1.770814e+001
6.335493e+002,1.657750e+001
6.345135e+002,1.624161e+001
6.354778e+002,1.748899e+001
6.364420e+002,1.943782e+001
6.374063e+002,2.050911e+001
6.383705e+002,1.933394e+001
6.393347e+002,1.694751e+001
6.402990e+002,1.498180e+001
6.412632e+002,1.351274e+001
6.422274e+002,1.278611e+001
6.431917e+002,1.299207e+001
6.441559e+002,1.404456e+001
6.451201e+002,1.432255e+001
6.460844e+002,1.337234e+001
6.470486e+002,1.266084e+001
6.480128e+002,1.323537e+001
6.489771e+002,1.457683e+001
6.499413e+002,1.431920e+001
6.509055e+002,1.016097e+001
6.518698e+002,6.729596e+000
6.528340e+002,5.035235e+000
6.537982e+002,4.823706e+000
6.547625e+002,5.954328e+000
6.557267e+002,8.532336e+000
6.566909e+002,1.121700e+001
6.576552e+002,1.196752e+001
6.586194e+002,1.152208e+001
6.595836e+002,1.077546e+001
6.605479e+002,1.022490e+001
6.615121e+002,9.963855e+000
6.624763e+002,1.027465e+001
6.634406e+002,1.161946e+001
6.644048e+002,1.225079e+001
6.653690e+002,1.139728e+001
6.663333e+002,9.706335e+000
6.672975e+002,8.431311e+000
6.682617e+002,7.720935e+000
6.692260e+002,7.732788e+000
6.701902e+002,8.731512e+000
6.711544e+002,1.010657e+001
6.721187e+002,1.155891e+001
6.730829e+002,1.289758e+001
6.740471e+002,1.369710e+001
6.750114e+002,1.271172e+001
6.759756e+002,1.122925e+001
6.769398e+002,1.051758e+001
6.779041e+002,1.084373e+001
6.788683e+002,1.185383e+001
6.798325e+002,1.295595e+001
6.807968e+002,1.432493e+001
6.817610e+002,1.478911e+001
6.827252e+002,1.369298e+001
6.836895e+002,1.228781e+001
6.846537e+002,1.177216e+001
6.856179e+002,1.235758e+001
6.865822e+002,1.247150e+001
6.875464e+002,1.121679e+001
6.885106e+002,9.989721e+000
6.894749e+002,9.089801e+000
6.904391e+002,8.760223e+000
6.914034e+002,9.433435e+000
6.923676e+002,1.213237e+001
6.933318e+002,1.534391e+001
6.942961e+002,1.700546e+001
6.952603e+002,1.727971e+001
6.962245e+002,1.677980e+001
6.971888e+002,1.601624e+001
6.981530e+002,1.494344e+001
6.991172e+002,1.464069e+001
7.000815e+002,1.516679e+001
7.010457e+002,1.597991e+001
7.020099e+002,1.699155e+001
7.029742e+002,1.823633e+001
7.039384e+002,1.973165e+001
7.049026e+002,2.182885e+001
7.058669e+002,2.357526e+001
7.068311e+002,2.445342e+001
7.077953e+002,2.492543e+001
7.087596e+002,2.580392e+001
7.097238e+002,2.761767e+001
7.106880e+002,2.919483e+001
7.116523e+002,2.784946e+001
7.126165e+002,2.509819e+001
7.135807e+002,2.318863e+001
7.145450e+002,2.300441e+001
7.155092e+002,2.396536e+001
7.164734e+002,2.442453e+001
7.174377e+002,2.416739e+001
7.184019e+002,2.369162e+001
7.193661e+002,2.272797e+001
7.203304e+002,2.161991e+001
7.212946e+002,2.081525e+001
7.222589e+002,2.049050e+001
7.232231e+002,2.004951e+001
7.241873e+002,1.883838e+001
7.251516e+002,1.783533e+001
7.261158e+002,1.778877e+001
7.270800e+002,1.851797e+001
7.280443e+002,1.904780e+001
7.290085e+002,1.822712e+001
7.299727e+002,1.682236e+001
7.309370e+002,1.649973e+001
7.319012e+002,1.714933e+001
7.328654e+002,1.792124e+001
7.338297e+002,1.804114e+001
7.347939e+002,1.746730e+001
7.357581e+002,1.686880e+001
7.367224e+002,1.635924e+001
7.376866e+002,1.568140e+001
7.386508e+002,1.442270e+001
7.396151e+002,1.293215e+001
7.405793e+002,1.226226e+001
7.415435e+002,1.324375e+001
7.425078e+002,1.427239e+001
7.434720e+002,1.437855e+001
7.444362e+002,1.420068e+001
7.454005e+002,1.439924e+001
7.463647e+002,1.529181e+001
7.473289e+002,1.666763e+001
7.482932e+002,1.859028e+001
7.492574e+002,2.073254e+001
7.502216e+002,2.202328e+001
7.511859e+002,2.215232e+001
7.521501e+002,2.138459e+001
7.531143e+002,2.016308e+001
7.540786e+002,1.804666e+001
7.550428e+002,1.680071e+001
7.560070e+002,1.678600e+001
7.569713e+002,1.706054e+001
7.579355e+002,1.688830e+001
7.588997e+002,1.628065e+001
7.598640e+002,1.624313e+001
7.608282e+002,1.812234e+001
7.617924e+002,2.004682e+001
7.627567e+002,2.088350e+001
7.637209e+002,2.097361e+001
7.646851e+002,2.095574e+001
7.656494e+002,2.131497e+001
7.666136e+002,2.226118e+001
7.675778e+002,2.545493e+001
7.685421e+002,3.054276e+001
7.695063e+002,3.408324e+001
7.704705e+002,3.438087e+001
7.714348e+002,3.202884e+001
7.723990e+002,2.926539e+001
7.733632e+002,2.478469e+001
7.743275e+002,2.200615e+001
7.752917e+002,2.222928e+001
7.762559e+002,2.344286e+001
7.772202e+002,2.362658e+001
7.781844e+002,2.225512e+001
7.791486e+002,2.135041e+001
7.801129e+002,2.364174e+001
7.810771e+002,2.654761e+001
7.820413e+002,2.865731e+001
7.830056e+002,2.969983e+001
7.839698e+002,2.971320e+001
7.849340e+002,2.861479e+001
7.858983e+002,2.656858e+001
7.868625e+002,2.704647e+001
7.878267e+002,3.057957e+001
7.887910e+002,3.403016e+001
7.897552e+002,3.567852e+001
7.907194e+002,3.574488e+001
7.916837e+002,3.582747e+001
7.926479e+002,3.592900e+001
7.936121e+002,3.612220e+001
7.945764e+002,3.638854e+001
7.955406e+002,3.671992e+001
7.965048e+002,3.708810e+001
7.974691e+002,3.753050e+001
7.984333e+002,3.834071e+001
7.993975e+002,4.008634e+001
8.003618e+002,4.218023e+001
8.013260e+002,4.408847e+001
8.022902e+002,4.569914e+001
8.032545e+002,4.716148e+001
8.042187e+002,4.874078e+001
8.051829e+002,5.054286e+001
8.061472e+002,5.198712e+001
8.071114e+002,5.178410e+001
8.080756e+002,5.256266e+001
8.090399e+002,5.646658e+001
8.100041e+002,6.297976e+001
8.109683e+002,6.821058e+001
8.119326e+002,6.938167e+001
8.128968e+002,7.135008e+001
8.138610e+002,7.585509e+001
8.148253e+002,8.209739e+001
8.157895e+002,8.938302e+001
8.167537e+002,9.731817e+001
8.177180e+002,1.050109e+002
8.186822e+002,1.106644e+002
8.196464e+002,1.148625e+002
8.206107e+002,1.188568e+002
8.215749e+002,1.229163e+002
8.225391e+002,1.261117e+002
8.235034e+002,1.268171e+002
8.244676e+002,1.240060e+002
8.254318e+002,1.216146e+002
8.263961e+002,1.204571e+002
8.273603e+002,1.190512e+002
8.283245e+002,1.168826e+002
8.292888e+002,1.137825e+002
8.302530e+002,1.093539e+002
8.312172e+002,1.023440e+002
8.321815e+002,9.577065e+001
8.331457e+002,9.211529e+001
8.341099e+002,9.005494e+001
8.350742e+002,8.761333e+001
8.360384e+002,8.386694e+001
8.370026e+002,7.976076e+001
8.379669e+002,7.762450e+001
8.389311e+002,7.753953e+001
8.398953e+002,7.702675e+001
8.408596e+002,7.611659e+001
8.418238e+002,7.436931e+001
8.427880e+002,7.085121e+001
8.437523e+002,6.497433e+001
8.447165e+002,6.049739e+001
8.456807e+002,5.870753e+001
8.466450e+002,5.744668e+001
8.476092e+002,5.640853e+001
8.485734e+002,5.519397e+001
8.495377e+002,5.311120e+001
8.505019e+002,4.952357e+001
8.514661e+002,4.602525e+001
8.524304e+002,4.501071e+001
8.533946e+002,4.539023e+001
8.543588e+002,4.566015e+001
8.553231e+002,4.521874e+001
8.562873e+002,4.432184e+001
8.572515e+002,4.351644e+001
8.582158e+002,4.271157e+001
8.591800e+002,4.238066e+001
8.601442e+002,4.307780e+001
8.611085e+002,4.355315e+001
8.620727e+002,4.278523e+001
8.630369e+002,4.093025e+001
8.640012e+002,3.956081e+001
8.649654e+002,3.935291e+001
8.659296e+002,3.952410e+001
8.668939e+002,3.993362e+001
8.678581e+002,4.041142e+001
8.688223e+002,4.074479e+001
8.697866e+002,4.083434e+001
8.707508e+002,4.085777e+001
8.717150e+002,4.129664e+001
8.726793e+002,4.198740e+001
8.736435e+002,4.214701e+001
8.746077e+002,4.157256e+001
8.755720e+002,4.075710e+001
8.765362e+002,4.058876e+001
8.775004e+002,4.159676e+001
8.784647e+002,4.088259e+001
8.794289e+002,3.584626e+001
8.803931e+002,3.208582e+001
8.813574e+002,3.239971e+001
8.823216e+002,3.509239e+001
8.832858e+002,3.662399e+001
8.842501e+002,3.532618e+001
8.852143e+002,3.307110e+001
8.861785e+002,3.107974e+001
8.871428e+002,2.953420e+001
8.881070e+002,2.910901e+001
8.890712e+002,2.979531e+001
8.900355e+002,3.054891e+001
8.909997e+002,2.966317e+001
8.919639e+002,2.682203e+001
8.929282e+002,2.488834e+001
8.938924e+002,2.388568e+001
8.948566e+002,2.352797e+001
8.958209e+002,2.433528e+001
8.967851e+002,2.583304e+001
8.977493e+002,2.580206e+001
8.987136e+002,2.253028e+001
8.996778e+002,1.965133e+001
9.006420e+002,1.886780e+001
9.016063e+002,1.888760e+001
9.025705e+002,1.846738e+001
9.035347e+002,1.730730e+001
9.044990e+002,1.615421e+001
9.054632e+002,1.597464e+001
9.064274e+002,1.649675e+001
9.073917e+002,1.676502e+001
9.083559e+002,1.681872e+001
9.093201e+002,1.644565e+001
9.102844e+002,1.524177e+001
9.112486e+002,1.327877e+001
9.122128e+002,1.212001e+001
9.131771e+002,1.240190e+001
9.141413e+002,1.277057e+001
9.151055e+002,1.349948e+001
9.160698e+002,1.403797e+001
9.170340e+002,1.351554e+001
9.179982e+002,1.179576e+001
9.189625e+002,1.041893e+001
9.199267e+002,1.109507e+001
9.208909e+002,1.245918e+001
9.218552e+002,1.345823e+001
9.228194e+002,1.395879e+001
9.237836e+002,1.389493e+001
9.247479e+002,1.320176e+001
9.257121e+002,1.198671e+001
9.266763e+002,1.085392e+001
9.276406e+002,9.743799e+000
9.286048e+002,8.838745e+000
9.295690e+002,8.393646e+000
9.305333e+002,8.017810e+000
9.314975e+002,6.999603e+000
9.324617e+002,5.138324e+000
9.334260e+002,4.131677e+000
9.343902e+002,5.980994e+000
9.353545e+002,7.731006e+000
9.363187e+002,7.777435e+000
9.372830e+002,6.807196e+000
9.382472e+002,6.302826e+000
9.392114e+002,7.204071e+000
9.401757e+002,8.954102e+000
9.411399e+002,1.018676e+001
9.421041e+002,1.094023e+001
9.430684e+002,1.171688e+001
9.440326e+002,1.274360e+001
9.449968e+002,1.341053e+001
9.459611e+002,1.269393e+001
9.469253e+002,1.028373e+001
9.478895e+002,9.054474e+000
9.488538e+002,1.026957e+001
9.498180e+002,1.140152e+001
9.507822e+002,1.166812e+001
9.517465e+002,1.141869e+001
9.527107e+002,1.124087e+001
9.536749e+002,1.139012e+001
9.546392e+002,1.176505e+001
9.556034e+002,1.209319e+001
9.565676e+002,1.257494e+001
9.575319e+002,1.378667e+001
9.584961e+002,1.571519e+001
9.594603e+002,1.752661e+001
9.604246e+002,1.824194e+001
9.613888e+002,1.782142e+001
9.623530e+002,1.829033e+001
9.633173e+002,2.012050e+001
9.642815e+002,2.213767e+001
9.652457e+002,2.387244e+001
9.662100e+002,2.603898e+001
9.671742e+002,2.907693e+001
9.681384e+002,3.296206e+001
9.691027e+002,3.890889e+001
9.700669e+002,4.805486e+001
9.710311e+002,5.954688e+001
9.719954e+002,7.694637e+001
9.729596e+002,9.619621e+001
9.739238e+002,1.087362e+002
9.748881e+002,1.087824e+002
9.758523e+002,9.903862e+001
9.768165e+002,8.773627e+001
9.777808e+002,7.428979e+001
9.787450e+002,6.277557e+001
9.797092e+002,5.384089e+001
9.806735e+002,4.680368e+001
9.816377e+002,4.108832e+001
9.826019e+002,3.671318e+001
9.835662e+002,3.378965e+001
9.845304e+002,3.331087e+001
9.854946e+002,3.336995e+001
9.864589e+002,3.346452e+001
9.874231e+002,3.366750e+001
9.883873e+002,3.410355e+001
9.893516e+002,3.477380e+001
9.903158e+002,3.555568e+001
9.912800e+002,3.637658e+001
9.922443e+002,3.737786e+001
9.932085e+002,3.820901e+001
9.941727e+002,3.871676e+001
9.951370e+002,4.095482e+001
9.961012e+002,4.662181e+001
9.970654e+002,5.521799e+001
9.980297e+002,6.371215e+001
9.989939e+002,6.752501e+001
9.999581e+002,7.992226e+001
1.000922e+003,9.875269e+001
1.001887e+003,1.287182e+002
1.002851e+003,1.787664e+002
1.003815e+003,2.451909e+002
1.004779e+003,3.141586e+002
1.005744e+003,3.854739e+002
1.006708e+003,4.354417e+002
1.007672e+003,4.259878e+002
1.008636e+003,3.738922e+002
1.009600e+003,3.113266e+002
1.010565e+003,2.516424e+002
1.011529e+003,1.975804e+002
1.012493e+003,1.558890e+002
1.013457e+003,1.297950e+002
1.014422e+003,1.076457e+002
1.015386e+003,8.857732e+001
1.016350e+003,7.330870e+001
1.017314e+003,6.331590e+001
1.018279e+003,5.686874e+001
1.019243e+003,5.072834e+001
1.020207e+003,4.373562e+001
1.021171e+003,3.779628e+001
1.022135e+003,3.495052e+001
1.023100e+003,3.366312e+001
1.024064e+003,3.309134e+001
1.025028e+003,3.285598e+001
1.025992e+003,3.264498e+001
1.026957e+003,3.221587e+001
1.027921e+003,3.156562e+001
1.028885e+003,3.031100e+001
1.029849e+003,2.790789e+001
1.030814e+003,2.615607e+001
1.031778e+003,2.565128e+001
1.032742e+003,2.535900e+001
1.033706e+003,2.406945e+001
1.034671e+003,2.184997e+001
1.035635e+003,2.058047e+001
1.036599e+003,2.162024e+001
1.037563e+003,2.300732e+001
1.038527e+003,2.421006e+001
1.039492e+003,2.481998e+001
1.040456e+003,2.393024e+001
1.041420e+003,2.152233e+001
1.042384e+003,1.911159e+001
1.043349e+003,1.897898e+001
1.044313e+003,2.113480e+001
1.045277e+003,2.313695e+001
1.046241e+003,2.545666e+001
1.047206e+003,2.642228e+001
1.048170e+003,2.398694e+001
1.049134e+003,1.986941e+001
1.050098e+003,1.857364e+001
1.051063e+003,2.149421e+001
1.052027e+003,2.407573e+001
1.052991e+003,2.463632e+001
1.053955e+003,2.450387e+001
1.054919e+003,2.415983e+001
1.055884e+003,2.375775e+001
1.056848e+003,2.327922e+001
1.057812e+003,2.275457e+001
1.058776e+003,2.252866e+001
1.059741e+003,2.347310e+001
1.060705e+003,2.530607e+001
1.061669e+003,2.627838e+001
1.062633e+003,2.609320e+001
1.063598e+003,2.514891e+001
1.064562e+003,2.347372e+001
1.065526e+003,2.123028e+001
1.066490e+003,2.001916e+001
1.067454e+003,2.051905e+001
1.068419e+003,2.118372e+001
1.069383e+003,2.169332e+001
1.070347e+003,2.205545e+001
1.071311e+003,2.236095e+001
1.072276e+003,2.261730e+001
1.073240e+003,2.261660e+001
1.074204e+003,2.205159e+001
1.075168e+003,2.152889e+001
1.076133e+003,2.292188e+001
1.077097e+003,2.562002e+001
1.078061e+003,2.733973e+001
1.079025e+003,2.728567e+001
1.079990e+003,2.632214e+001
1.080954e+003,2.556592e+001
1.081918e+003,2.500991e+001
1.082882e+003,2.476800e+001
1.083846e+003,2.522933e+001
1.084811e+003,2.550788e+001
1.085775e+003,2.511177e+001
1.086739e+003,2.463616e+001
1.087703e+003,2.495006e+001
1.088668e+003,2.616010e+001
1.089632e+003,2.720721e+001
1.090596e+003,2.687434e+001
1.091560e+003,2.607834e+001
1.092525e+003,2.704114e+001
1.093489e+003,2.921712e+001
1.094453e+003,3.049273e+001
1.095417e+003,2.988691e+001
1.096381e+003,2.811972e+001
1.097346e+003,2.640978e+001
1.098310e+003,2.447548e+001
1.099274e+003,2.361477e+001
1.100238e+003,2.463608e+001
1.101203e+003,2.573050e+001
1.102167e+003,2.634912e+001
1.103131e+003,2.669368e+001
1.104095e+003,2.699869e+001
1.105060e+003,2.733842e+001
1.106024e+003,2.790213e+001
1.106988e+003,2.904563e+001
1.107952e+003,3.051685e+001
1.108917e+003,3.203015e+001
1.109881e+003,3.342631e+001
1.110845e+003,3.417023e+001
1.111809e+003,3.393389e+001
1.112773e+003,3.293990e+001
1.113738e+003,3.166105e+001
1.114702e+003,2.983558e+001
1.115666e+003,2.882562e+001
1.116630e+003,2.895406e+001
1.117595e+003,2.919977e+001
1.118559e+003,2.911387e+001
1.119523e+003,2.898262e+001
1.120487e+003,2.941845e+001
1.121452e+003,3.059164e+001
1.122416e+003,3.168407e+001
1.123380e+003,3.186246e+001
1.124344e+003,3.150817e+001
1.125308e+003,3.090095e+001
1.126273e+003,3.033341e+001
1.127237e+003,3.080410e+001
1.128201e+003,3.293918e+001
1.129165e+003,3.580810e+001
1.130130e+003,3.707665e+001
1.131094e+003,3.579376e+001
1.132058e+003,3.566152e+001
1.133022e+003,3.810781e+001
1.133987e+003,3.979451e+001
1.134951e+003,3.920748e+001
1.135915e+003,3.750283e+001
1.136879e+003,3.626150e+001
1.137844e+003,3.589616e+001
1.138808e+003,3.596389e+001
1.139772e+003,3.617471e+001
1.140736e+003,3.641081e+001
1.141700e+003,3.660924e+001
1.142665e+003,3.685027e+001
1.143629e+003,3.732978e+001
1.144593e+003,3.818307e+001
1.145557e+003,3.913310e+001
1.146522e+003,3.949910e+001
1.147486e+003,3.889349e+001
1.148450e+003,3.876926e+001
1.149414e+003,3.968882e+001
1.150379e+003,4.054982e+001
1.151343e+003,4.125174e+001
1.152307e+003,4.168308e+001
1.153271e+003,4.137116e+001
1.154235e+003,4.031327e+001
1.155200e+003,3.978259e+001
1.156164e+003,4.126684e+001
1.157128e+003,4.318626e+001
1.158092e+003,4.265801e+001
1.159057e+003,4.071130e+001
1.160021e+003,4.009631e+001
1.160985e+003,4.184785e+001
1.161949e+003,4.456104e+001
1.162914e+003,4.615087e+001
1.163878e+003,4.650539e+001
1.164842e+003,4.740155e+001
1.165806e+003,4.959945e+001
1.166771e+003,5.126906e+001
1.167735e+003,5.194374e+001
1.168699e+003,5.220359e+001
1.169663e+003,5.227499e+001
1.170627e+003,5.239188e+001
1.171592e+003,5.331811e+001
1.172556e+003,5.584026e+001
1.173520e+003,5.858871e+001
1.174484e+003,5.903979e+001
1.175449e+003,5.823295e+001
1.176413e+003,5.816175e+001
1.177377e+003,5.925718e+001
1.178341e+003,6.080503e+001
1.179306e+003,6.219670e+001
1.180270e+003,6.347660e+001
1.181234e+003,6.464188e+001
1.182198e+003,6.555325e+001
1.183162e+003,6.644984e+001
1.184127e+003,6.764610e+001
1.185091e+003,6.852425e+001
1.186055e+003,6.907214e+001
1.187019e+003,6.906215e+001
1.187984e+003,6.767226e+001
1.188948e+003,6.444084e+001
1.189912e+003,6.098986e+001
1.190876e+003,5.936686e+001
1.191841e+003,5.922333e+001
1.192805e+003,5.979147e+001
1.193769e+003,6.103366e+001
1.194733e+003,6.192146e+001
1.195698e+003,6.172513e+001
1.196662e+003,6.077202e+001
1.197626e+003,5.987096e+001
1.198590e+003,5.889122e+001
1.199554e+003,5.834879e+001
1.200519e+003,5.875915e+001
1.201483e+003,5.925974e+001
1.202447e+003,5.991502e+001
1.203411e+003,6.031069e+001
1.204376e+003,5.949302e+001
1.205340e+003,5.748772e+001
1.206304e+003,5.605335e+001
1.207268e+003,5.714215e+001
1.208233e+003,5.972808e+001
1.209197e+003,5.994772e+001
1.210161e+003,5.807334e+001
1.211125e+003,5.702740e+001
1.212089e+003,5.800983e+001
1.213054e+003,5.915881e+001
1.214018e+003,5.790175e+001
1.214982e+003,5.465978e+001
1.215946e+003,5.395657e+001
1.216911e+003,5.770783e+001
1.217875e+003,6.111726e+001
1.218839e+003,6.306259e+001
1.219803e+003,6.381340e+001
1.220768e+003,6.294370e+001
1.221732e+003,6.130165e+001
1.222696e+003,6.059746e+001
1.223660e+003,6.172660e+001
1.224625e+003,6.362728e+001
1.225589e+003,6.440866e+001
1.226553e+003,6.395233e+001
1.227517e+003,6.379546e+001
1.228481e+003,6.444604e+001
1.229446e+003,6.434074e+001
1.230410e+003,6.183573e+001
1.231374e+003,5.856581e+001
1.232338e+003,5.766804e+001
1.233303e+003,5.953802e+001
1.234267e+003,6.079346e+001
1.235231e+003,5.959396e+001
1.236195e+003,5.825838e+001
1.237160e+003,5.820040e+001
1.238124e+003,5.861490e+001
1.239088e+003,5.810811e+001
1.240052e+003,5.678267e+001
1.241016e+003,5.658547e+001
1.241981e+003,5.942675e+001
1.242945e+003,6.434412e+001
1.243909e+003,6.691568e+001
1.244873e+003,6.609920e+001
1.245838e+003,6.528351e+001
1.246802e+003,6.416081e+001
1.247766e+003,6.331763e+001
1.248730e+003,6.276405e+001
1.249695e+003,6.279411e+001
1.250659e+003,6.455907e+001
1.251623e+003,6.855610e+001
1.252587e+003,7.146532e+001
1.253552e+003,6.996703e+001
1.254516e+003,6.732594e+001
1.255480e+003,6.678938e+001
1.256444e+003,6.776239e+001
1.257408e+003,6.880623e+001
1.258373e+003,6.933156e+001
1.259337e+003,6.931126e+001
1.260301e+003,6.860703e+001
1.261265e+003,6.725332e+001
1.262230e+003,6.660428e+001
1.263194e+003,6.726825e+001
1.264158e+003,6.746076e+001
1.265122e+003,6.631417e+001
1.266087e+003,6.546244e+001
1.267051e+003,6.628145e+001
1.268015e+003,6.833634e+001
1.268979e+003,7.041290e+001
1.269943e+003,7.200632e+001
1.270908e+003,7.311829e+001
1.271872e+003,7.374297e+001
1.272836e+003,7.383629e+001
1.273800e+003,7.314973e+001
1.274765e+003,7.179459e+001
1.275729e+003,7.106833e+001
1.276693e+003,7.179191e+001
1.277657e+003,7.300977e+001
1.278622e+003,7.309456e+001
1.279586e+003,7.191257e+001
1.280550e+003,7.124197e+001
1.281514e+003,7.146458e+001
1.282479e+003,7.223605e+001
1.283443e+003,7.409822e+001
1.284407e+003,7.576315e+001
1.285371e+003,7.601846e+001
1.286335e+003,7.510996e+001
1.287300e+003,7.399794e+001
1.288264e+003,7.328029e+001
1.289228e+003,7.305638e+001
1.290192e+003,7.346911e+001
1.291157e+003,7.446823e+001
1.292121e+003,7.494086e+001
1.293085e+003,7.433017e+001
1.294049e+003,7.447168e+001
1.295014e+003,7.687547e+001
1.295978e+003,7.988495e+001
1.296942e+003,8.162245e+001
1.297906e+003,8.209718e+001
1.298870e+003,8.181319e+001
1.299835e+003,8.025363e+001
1.300799e+003,7.905947e+001
1.301763e+003,7.975801e+001
1.302727e+003,8.093367e+001
1.303692e+003,8.143983e+001
1.304656e+003,8.138237e+001
1.305620e+003,8.126433e+001
1.306584e+003,8.134572e+001
1.307549e+003,8.189731e+001
1.308513e+003,8.363746e+001
1.309477e+003,8.689247e+001
1.310441e+003,8.832987e+001
1.311406e+003,8.618095e+001
1.312370e+003,8.495204e+001
1.313334e+003,8.592603e+001
1.314298e+003,8.752019e+001
1.315263e+003,8.845307e+001
1.316227e+003,8.878187e+001
1.317191e+003,8.926756e+001
1.318155e+003,9.025642e+001
1.319120e+003,9.100341e+001
1.320084e+003,9.038385e+001
1.321048e+003,8.908585e+001
1.322012e+003,8.884403e+001
1.322976e+003,8.958818e+001
1.323941e+003,9.001829e+001
1.324905e+003,8.942311e+001
1.325869e+003,8.871632e+001
1.326833e+003,8.940477e+001
1.327798e+003,9.143607e+001
1.328762e+003,9.256841e+001
1.329726e+003,9.187991e+001
1.330690e+003,9.158334e+001
1.331655e+003,9.277803e+001
1.332619e+003,9.408920e+001
1.333583e+003,9.454606e+001
1.334547e+003,9.437635e+001
1.335511e+003,9.435641e+001
1.336476e+003,9.473360e+001
1.337440e+003,9.471843e+001
1.338404e+003,9.322917e+001
1.339368e+003,9.065723e+001
1.340333e+003,9.011182e+001
1.341297e+003,9.225405e+001
1.342261e+003,9.398041e+001
1.343225e+003,9.551556e+001
1.344190e+003,9.602023e+001
1.345154e+003,9.386053e+001
1.346118e+003,9.044655e+001
1.347082e+003,8.923659e+001
1.348047e+003,9.104011e+001
1.349011e+003,9.345106e+001
1.349975e+003,9.567336e+001
1.350939e+003,9.713731e+001
1.351903e+003,9.684607e+001
1.352868e+003,9.553394e+001
1.353832e+003,9.476584e+001
1.354796e+003,9.495927e+001
1.355760e+003,9.556681e+001
1.356725e+003,9.624014e+001
1.357689e+003,9.679507e+001
1.358653e+003,9.613285e+001
1.359617e+003,9.335221e+001
1.360582e+003,9.196155e+001
1.361546e+003,9.311537e+001
1.362510e+003,9.452655e+001
1.363474e+003,9.577327e+001
1.364438e+003,9.691528e+001
1.365403e+003,9.804541e+001
1.366367e+003,9.902378e+001
1.367331e+003,9.950970e+001
1.368295e+003,9.930352e+001
1.369260e+003,9.880062e+001
1.370224e+003,9.875845e+001
1.371188e+003,9.932518e+001
1.372152e+003,9.984355e+001
1.373117e+003,1.000065e+002
1.374081e+003,1.003601e+002
1.375045e+003,1.014407e+002
1.376009e+003,1.025892e+002
1.376974e+003,1.032159e+002
1.377938e+003,1.033342e+002
1.378902e+003,1.026414e+002
1.379866e+003,1.005075e+002
1.380830e+003,9.917088e+001
1.381795e+003,1.012249e+002
1.382759e+003,1.040555e+002
1.383723e+003,1.055279e+002
1.384687e+003,1.058362e+002
1.385652e+003,1.057074e+002
1.386616e+003,1.054274e+002
1.387580e+003,1.051261e+002
1.388544e+003,1.048313e+002
1.389509e+003,1.045738e+002
1.390473e+003,1.053293e+002
1.391437e+003,1.082399e+002
1.392401e+003,1.099246e+002
1.393365e+003,1.089126e+002
1.394330e+003,1.080089e+002
1.395294e+003,1.087557e+002
1.396258e+003,1.098963e+002
1.397222e+003,1.095599e+002
1.398187e+003,1.080010e+002
1.399151e+003,1.074942e+002
1.400115e+003,1.095438e+002
1.401079e+003,1.124643e+002
1.402044e+003,1.131716e+002
1.403008e+003,1.116167e+002
1.403972e+003,1.105743e+002
1.404936e+003,1.101959e+002
1.405901e+003,1.101606e+002
1.406865e+003,1.099937e+002
1.407829e+003,1.103309e+002
1.408793e+003,1.123329e+002
1.409757e+003,1.156024e+002
1.410722e+003,1.181196e+002
1.411686e+003,1.192111e+002
1.412650e+003,1.196124e+002
1.413614e+003,1.198787e+002
1.414579e+003,1.198790e+002
1.415543e+003,1.190726e+002
1.416507e+003,1.179650e+002
1.417471e+003,1.179320e+002
1.418436e+003,1.193180e+002
1.419400e+003,1.207089e+002
1.420364e+003,1.207898e+002
1.421328e+003,1.199187e+002
1.422292e+003,1.191430e+002
1.423257e+003,1.182626e+002
1.424221e+003,1.177559e+002
1.425185e+003,1.176339e+002
1.426149e+003,1.178420e+002
1.427114e+003,1.184332e+002
1.428078e+003,1.196991e+002
1.429042e+003,1.224375e+002
1.430006e+003,1.258409e+002
1.430971e+003,1.276605e+002
1.431935e+003,1.268866e+002
1.432899e+003,1.254467e+002
1.433863e+003,1.262308e+002
1.434828e+003,1.290797e+002
1.435792e+003,1.307166e+002
1.436756e+003,1.300085e+002
1.437720e+003,1.298072e+002
1.438684e+003,1.310867e+002
1.439649e+003,1.323610e+002
1.440613e+003,1.326329e+002
1.441577e+003,1.324175e+002
1.442541e+003,1.325395e+002
1.443506e+003,1.330268e+002
1.444470e+003,1.334462e+002
1.445434e+003,1.336701e+002
1.446398e+003,1.338234e+002
1.447363e+003,1.333347e+002
1.448327e+003,1.329107e+002
1.449291e+003,1.352340e+002
1.450255e+003,1.406418e+002
1.451219e+003,1.447330e+002
1.452184e+003,1.450534e+002
1.453148e+003,1.433171e+002
1.454112e+003,1.409507e+002
1.455076e+003,1.382611e+002
1.456041e+003,1.375602e+002
1.457005e+003,1.398178e+002
1.457969e+003,1.418930e+002
1.458933e+003,1.421921e+002
1.459898e+003,1.421261e+002
1.460862e+003,1.428400e+002
1.461826e+003,1.435399e+002
1.462790e+003,1.426719e+002
1.463755e+003,1.402820e+002
1.464719e+003,1.381868e+002
1.465683e+003,1.377119e+002
1.466647e+003,1.385616e+002
1.467611e+003,1.403105e+002
1.468576e+003,1.432863e+002
1.469540e+003,1.442472e+002
1.470504e+003,1.412915e+002
1.471468e+003,1.393884e+002
1.472433e+003,1.398124e+002
1.473397e+003,1.407396e+002
1.474361e+003,1.409215e+002
1.475325e+003,1.409174e+002
1.476290e+003,1.420363e+002
1.477254e+003,1.442845e+002
1.478218e+003,1.460539e+002
1.479182e+003,1.460839e+002
1.480146e+003,1.452904e+002
1.481111e+003,1.457494e+002
1.482075e+003,1.476512e+002
1.483039e+003,1.477820e+002
1.484003e+003,1.446172e+002
1.484968e+003,1.423671e+002
1.485932e+003,1.429218e+002
1.486896e+003,1.440705e+002
1.487860e+003,1.434287e+002
1.488825e+003,1.418019e+002
1.489789e+003,1.418225e+002
1.490753e+003,1.441057e+002
1.491717e+003,1.464747e+002
1.492682e+003,1.476706e+002
1.493646e+003,1.476984e+002
1.494610e+003,1.455061e+002
1.495574e+003,1.421309e+002
1.496538e+003,1.414273e+002
1.497503e+003,1.442136e+002
1.498467e+003,1.466903e+002
1.499431e+003,1.467859e+002
1.500395e+003,1.455533e+002
1.501360e+003,1.439852e+002
1.502324e+003,1.423864e+002
1.503288e+003,1.417576e+002
1.504252e+003,1.421542e+002
1.505217e+003,1.434858e+002
1.506181e+003,1.470638e+002
1.507145e+003,1.499897e+002
1.508109e+003,1.497816e+002
1.509073e+003,1.476105e+002
1.510038e+003,1.445318e+002
1.511002e+003,1.411879e+002
1.511966e+003,1.399710e+002
1.512930e+003,1.427939e+002
1.513895e+003,1.469813e+002
1.514859e+003,1.475726e+002
1.515823e+003,1.444972e+002
1.516787e+003,1.419505e+002
1.517752e+003,1.400328e+002
1.518716e+003,1.390556e+002
1.519680e+003,1.394770e+002
1.520644e+003,1.401749e+002
1.521609e+003,1.407178e+002
1.522573e+003,1.412366e+002
1.523537e+003,1.425926e+002
1.524501e+003,1.443574e+002
1.525465e+003,1.442405e+002
1.526430e+003,1.409876e+002
1.527394e+003,1.373739e+002
1.528358e+003,1.380544e+002
1.529322e+003,1.427088e+002
1.530287e+003,1.445124e+002
1.531251e+003,1.421506e+002
1.532215e+003,1.395986e+002
1.533179e+003,1.356764e+002
1.534144e+003,1.330647e+002
1.535108e+003,1.336667e+002
1.536072e+003,1.354038e+002
1.537036e+003,1.364502e+002
1.538000e+003,1.365153e+002
1.538965e+003,1.357253e+002
1.539929e+003,1.341840e+002
1.540893e+003,1.324761e+002
1.541857e+003,1.313527e+002
1.542822e+003,1.307552e+002
1.543786e+003,1.298600e+002
1.544750e+003,1.281372e+002
1.545714e+003,1.276641e+002
1.546679e+003,1.298683e+002
1.547643e+003,1.312080e+002
1.548607e+003,1.302619e+002
1.549571e+003,1.284008e+002
1.550536e+003,1.262749e+002
1.551500e+003,1.242854e+002
1.552464e+003,1.231615e+002
1.553428e+003,1.232554e+002
1.554392e+003,1.249379e+002
1.555357e+003,1.288647e+002
1.556321e+003,1.330060e+002
1.557285e+003,1.330990e+002
1.558249e+003,1.293933e+002
1.559214e+003,1.268098e+002
1.560178e+003,1.260081e+002
1.561142e+003,1.247780e+002
1.562106e+003,1.215236e+002
1.563071e+003,1.181347e+002
1.564035e+003,1.166600e+002
1.564999e+003,1.164471e+002
1.565963e+003,1.153679e+002
1.566927e+003,1.131447e+002
1.567892e+003,1.120430e+002
1.568856e+003,1.133990e+002
1.569820e+003,1.156678e+002
1.570784e+003,1.177598e+002
1.571749e+003,1.191072e+002
1.572713e+003,1.178263e+002
1.573677e+003,1.141016e+002
1.574641e+003,1.121466e+002
1.575606e+003,1.141924e+002
1.576570e+003,1.162253e+002
1.577534e+003,1.148423e+002
1.578498e+003,1.115402e+002
1.579463e+003,1.087792e+002
1.580427e+003,1.066861e+002
1.581391e+003,1.055300e+002
1.582355e+003,1.056456e+002
1.583319e+003,1.057668e+002
1.584284e+003,1.050423e+002
1.585248e+003,1.040722e+002
1.586212e+003,1.034749e+002
1.587176e+003,1.029314e+002
1.588141e+003,1.018441e+002
1.589105e+003,1.002048e+002
1.590069e+003,9.900606e+001
1.591033e+003,9.914303e+001
1.591998e+003,9.956154e+001
1.592962e+003,9.834538e+001
1.593926e+003,9.594594e+001
1.594890e+003,9.530011e+001
1.595854e+003,9.718425e+001
1.596819e+003,9.799194e+001
1.597783e+003,9.546621e+001
1.598747e+003,9.271266e+001
1.599711e+003,9.290802e+001
1.600676e+003,9.366532e+001
1.601640e+003,9.172469e+001
1.602604e+003,8.757326e+001
1.603568e+003,8.411159e+001
1.604533e+003,8.238631e+001
1.605497e+003,8.159605e+001
1.606461e+003,8.114053e+001
1.607425e+003,8.099294e+001
1.608390e+003,8.139531e+001
1.609354e+003,8.246841e+001
1.610318e+003,8.210609e+001
1.611282e+003,7.912339e+001
1.612246e+003,7.640690e+001
1.613211e+003,7.581368e+001
1.614175e+003,7.544289e+001
1.615139e+003,7.406966e+001
1.616103e+003,7.213969e+001
1.617068e+003,7.017361e+001
1.618032e+003,6.837569e+001
1.618996e+003,6.713678e+001
1.619960e+003,6.664539e+001
1.620925e+003,6.664761e+001
1.621889e+003,6.720378e+001
1.622853e+003,6.811452e+001
1.623817e+003,6.779690e+001
1.624781e+003,6.606042e+001
1.625746e+003,6.468915e+001
1.626710e+003,6.397600e+001
1.627674e+003,6.359087e+001
1.628638e+003,6.359307e+001
1.629603e+003,6.348833e+001
1.630567e+003,6.326195e+001
1.631531e+003,6.260375e+001
1.632495e+003,6.038024e+001
1.633460e+003,5.670422e+001
1.634424e+003,5.439513e+001
1.635388e+003,5.582032e+001
1.636352e+003,5.846989e+001
1.637317e+003,5.744520e+001
1.638281e+003,5.304951e+001
1.639245e+003,5.027126e+001
1.640209e+003,4.942885e+001
1.641173e+003,4.938967e+001
1.642138e+003,5.089780e+001
1.643102e+003,5.182833e+001
1.644066e+003,5.080286e+001
1.645030e+003,4.899678e+001
1.645995e+003,4.734760e+001
1.646959e+003,4.594384e+001
1.647923e+003,4.453612e+001
1.648887e+003,4.310704e+001
1.649852e+003,4.237688e+001
1.650816e+003,4.317207e+001
1.651780e+003,4.450853e+001
1.652744e+003,4.411841e+001
1.653708e+003,4.207543e+001
1.654673e+003,4.076255e+001
1.655637e+003,4.047474e+001
1.656601e+003,4.025285e+001
1.657565e+003,3.977748e+001
1.658530e+003,3.942558e+001
1.659494e+003,3.985593e+001
1.660458e+003,4.013694e+001
1.661422e+003,3.895416e+001
1.662387e+003,3.674371e+001
1.663351e+003,3.504501e+001
1.664315e+003,3.438150e+001
1.665279e+003,3.398270e+001
1.666244e+003,3.317323e+001
1.667208e+003,3.228642e+001
1.668172e+003,3.232512e+001
1.669136e+003,3.311322e+001
1.670100e+003,3.205363e+001
1.671065e+003,2.832718e+001
1.672029e+003,2.541703e+001
1.672993e+003,2.478494e+001
1.673957e+003,2.489766e+001
1.674922e+003,2.492889e+001
1.675886e+003,2.491656e+001
1.676850e+003,2.490208e+001
1.677814e+003,2.489827e+001
1.678779e+003,2.495758e+001
1.679743e+003,2.510392e+001
1.680707e+003,2.515449e+001
1.681671e+003,2.488472e+001
1.682635e+003,2.449318e+001
1.683600e+003,2.466308e+001
1.684564e+003,2.517512e+001
1.685528e+003,2.423550e+001
1.686492e+003,2.142454e+001
1.687457e+003,1.857624e+001
1.688421e+003,1.583681e+001
1.689385e+003,1.426797e+001
1.690349e+003,1.543643e+001
1.691314e+003,1.782970e+001
1.692278e+003,2.049194e+001
1.693242e+003,2.281948e+001
1.694206e+003,2.279357e+001
1.695171e+003,1.977297e+001
1.696135e+003,1.631918e+001
1.697099e+003,1.331036e+001
1.698063e+003,1.144425e+001
1.699027e+003,1.246049e+001
1.699992e+003,1.524406e+001
1.700956e+003,1.603866e+001
1.701920e+003,1.450414e+001
1.702884e+003,1.352697e+001
1.703849e+003,1.431112e+001
1.704813e+003,1.494907e+001
1.705777e+003,1.356810e+001
1.706741e+003,1.160320e+001
1.707706e+003,1.184736e+001
1.708670e+003,1.361027e+001
1.709634e+003,1.390086e+001
1.710598e+003,1.202076e+001
1.711563e+003,1.069998e+001
1.712527e+003,1.175716e+001
1.713491e+003,1.304910e+001
1.714455e+003,1.269309e+001
1.715419e+003,1.149918e+001
1.716384e+003,1.081244e+001
1.717348e+003,1.066053e+001
1.718312e+003,1.046647e+001
1.719276e+003,1.004204e+001
1.720241e+003,9.670965e+000
1.721205e+003,9.540915e+000
1.722169e+003,9.659122e+000
1.723133e+003,1.021309e+001
1.724098e+003,1.110297e+001
1.725062e+003,1.120549e+001
1.726026e+003,1.030266e+001
1.726990e+003,9.395709e+000
1.727954e+003,8.538809e+000
1.728919e+003,7.837439e+000
1.729883e+003,7.611020e+000
1.730847e+003,7.350983e+000
1.731811e+003,6.272128e+000
1.732776e+003,4.818915e+000
1.733740e+003,3.972247e+000
1.734704e+003,3.959885e+000
1.735668e+003,4.608600e+000
1.736633e+003,5.801572e+000
1.737597e+003,7.017691e+000
1.738561e+003,7.625650e+000
1.739525e+003,7.643967e+000
1.740490e+003,6.980887e+000
1.741454e+003,5.295862e+000
1.742418e+003,4.082559e+000
1.743382e+003,3.178122e+000
1.744346e+003,2.944516e+000
1.745311e+003,4.511099e+000
1.746275e+003,5.563251e+000
1.747239e+003,4.041754e+000
1.748203e+003,1.746292e+000
1.749168e+003,8.430176e-001
1.750132e+003,1.411554e+000
1.751096e+003,2.735831e+000
1.752060e+003,4.341428e+000
1.753025e+003,5.551648e+000
1.753989e+003,5.727572e+000
1.754953e+003,5.326684e+000
1.755917e+003,5.523471e+000
1.756881e+003,6.347022e+000
1.757846e+003,5.568384e+000
1.758810e+003,2.355734e+000
1.759774e+003,9.301757e-003
1.760738e+003,-9.832062e-001
1.761703e+003,-1.128885e+000
1.762667e+003,3.612335e-001
1.763631e+003,1.687091e+000
1.764595e+003,1.052979e+000
1.765560e+003,-5.920135e-001
1.766524e+003,-1.539563e+000
1.767488e+003,-1.512216e+000
1.768452e+003,-1.053531e+000
1.769417e+003,-3.831268e-001
1.770381e+003,3.035614e-001
1.771345e+003,8.888642e-001
1.772309e+003,1.244348e+000
1.773273e+003,9.043579e-001
1.774238e+003,-7.033996e-002
1.775202e+003,-7.466186e-001
1.776166e+003,-9.541962e-001
1.777130e+003,-1.108728e+000
1.778095e+003,-1.479874e+000
1.779059e+003,-1.553198e+000
1.780023e+003,-5.599945e-001
1.780987e+003,7.529602e-001
1.781952e+003,1.088852e+000
1.782916e+003,5.694367e-001
1.783880e+003,-4.226074e-002
1.784844e+003,-6.865937e-001
1.785808e+003,-9.496430e-001
1.786773e+003,-3.031921e-001
1.787737e+003,3.783478e-001
1.788701e+003,4.052490e-001
1.789665e+003,3.257141e-002
1.790630e+003,-3.336456e-001
1.791594e+003,-7.242218e-001
1.792558e+003,-1.596091e+000
1.793522e+003,-2.972247e+000
1.794487e+003,-3.881464e+000
1.795451e+003,-3.710083e+000
1.796415e+003,-2.628143e+000
1.797379e+003,-7.010620e-001
1.798344e+003,1.678909e+000
1.799308e+003,2.665259e+000
1.800272e+003,1.820059e+000
1.801236e+003,1.126175e+000
1.802201e+003,9.808747e-001
1.803165e+003,4.798401e-001
1.804129e+003,-1.327551e+000
1.805093e+003,-2.558835e+000
1.806057e+003,-1.695889e+000
1.807022e+003,-1.366272e-001
1.807986e+003,5.984405e-001
1.808950e+003,5.883789e-001
1.809914e+003,6.322113e-001
1.810879e+003,9.324096e-001
1.811843e+003,9.920014e-001
1.812807e+003,4.286041e-001
1.813771e+003,-4.053436e-001
1.814736e+003,-9.700317e-001
1.815700e+003,-1.256815e+000
1.816664e+003,-1.224512e+000
1.817628e+003,-8.232330e-001
1.818593e+003,-8.351318e-001
1.819557e+003,-1.670557e+000
1.820521e+003,-1.805389e+000
1.821485e+003,1.330322e-001
1.822449e+003,1.820178e+000
1.823414e+003,8.563232e-001
1.824378e+003,-9.569947e-001
1.825342e+003,-1.156213e+000
1.826306e+003,-2.802124e-002
1.827271e+003,7.511841e-001
1.828235e+003,8.048340e-001
1.829199e+003,6.100250e-001
1.830163e+003,3.262726e-001
1.831128e+003,2.057800e-002
1.832092e+003,-5.702301e-001
1.833056e+003,-9.677490e-001
1.834020e+003,-1.682068e-001
1.834984e+003,1.476804e+000
1.835949e+003,2.848105e+000
1.836913e+003,3.671960e+000
1.837877e+003,3.816873e+000
1.838841e+003,3.148447e+000
1.839806e+003,2.438370e+000
1.840770e+003,2.595783e+000
1.841734e+003,3.260309e+000
1.842698e+003,3.392602e+000
1.843663e+003,2.985547e+000
1.844627e+003,2.519495e+000
1.845591e+003,1.672000e+000
1.846555e+003,1.235507e+000
1.847520e+003,1.470184e+000
1.848484e+003,1.720819e+000
1.849448e+003,1.738412e+000
1.850412e+003,1.770636e+000
1.851376e+003,2.164517e+000
1.852341e+003,2.632144e+000
1.853305e+003,2.601245e+000
1.854269e+003,2.076001e+000
1.855233e+003,1.517725e+000
1.856198e+003,1.183868e+000
1.857162e+003,1.233609e+000
1.858126e+003,1.908966e+000
1.859090e+003,2.924701e+000
1.860055e+003,3.769998e+000
1.861019e+003,4.372403e+000
1.861983e+003,4.482605e+000
1.862947e+003,4.097992e+000
1.863911e+003,3.453681e+000
1.864876e+003,2.516361e+000
1.865840e+003,1.893304e+000
1.866804e+003,2.043436e+000
1.867768e+003,2.375629e+000
1.868733e+003,1.989737e+000
1.869697e+003,1.317127e+000
1.870661e+003,1.764050e+000
1.871625e+003,3.333615e+000
1.872590e+003,4.732550e+000
1.873554e+003,6.105334e+000
1.874518e+003,6.758044e+000
1.875482e+003,5.905045e+000
1.876447e+003,5.019177e+000
1.877411e+003,5.436862e+000
1.878375e+003,5.954535e+000
1.879339e+003,4.657996e+000
1.880303e+003,2.409964e+000
1.881268e+003,1.311151e+000
1.882232e+003,1.757053e+000
1.883196e+003,2.992618e+000
1.884160e+003,4.520337e+000
1.885125e+003,5.514191e+000
1.886089e+003,4.915067e+000
1.887053e+003,3.436133e+000
1.888017e+003,3.101654e+000
1.888982e+003,3.934955e+000
1.889946e+003,5.241705e+000
1.890910e+003,7.346063e+000
1.891874e+003,8.237940e+000
1.892839e+003,7.066241e+000
1.893803e+003,5.660998e+000
1.894767e+003,4.545691e+000
1.895731e+003,3.955395e+000
1.896695e+003,4.359888e+000
1.897660e+003,5.260382e+000
1.898624e+003,5.895746e+000
1.899588e+003,6.241147e+000
1.900552e+003,6.377795e+000
1.901517e+003,6.122321e+000
1.902481e+003,6.294922e+000
1.903445e+003,8.016581e+000
1.904409e+003,9.364639e+000
1.905374e+003,8.848938e+000
1.906338e+003,7.516980e+000
1.907302e+003,6.335132e+000
1.908266e+003,5.351309e+000
1.909230e+003,4.170566e+000
1.910195e+003,3.030304e+000
1.911159e+003,3.303043e+000
1.912123e+003,5.443402e+000
1.913087e+003,7.553439e+000
1.914052e+003,7.806323e+000
1.915016e+003,6.816247e+000
1.915980e+003,5.775052e+000
1.916944e+003,4.718863e+000
1.917909e+003,4.140393e+000
1.918873e+003,4.171808e+000
1.919837e+003,3.934174e+000
1.920801e+003,2.953989e+000
1.921766e+003,2.746692e+000
1.922730e+003,4.452506e+000
1.923694e+003,6.092248e+000
1.924658e+003,5.998456e+000
1.925622e+003,5.285440e+000
1.926587e+003,5.230103e+000
1.927551e+003,5.726218e+000
1.928515e+003,6.360663e+000
1.929479e+003,7.135556e+000
1.930444e+003,7.523096e+000
1.931408e+003,7.275495e+000
1.932372e+003,6.698443e+000
1.933336e+003,5.610101e+000
1.934301e+003,4.605222e+000
1.935265e+003,4.129883e+000
1.936229e+003,4.102533e+000
1.937193e+003,4.454272e+000
1.938157e+003,5.048642e+000
1.939122e+003,5.812997e+000
1.940086e+003,6.617377e+000
1.941050e+003,6.930423e+000
1.942014e+003,6.442624e+000
1.942979e+003,5.820917e+000
1.943943e+003,5.938241e+000
1.944907e+003,6.486145e+000
1.945871e+003,6.268567e+000
1.946836e+003,5.418094e+000
1.947800e+003,6.841815e+000
1.948764e+003,1.103524e+001
1.949728e+003,1.263627e+001
1.950693e+003,9.867658e+000
1.951657e+003,6.965201e+000
1.952621e+003,5.823672e+000
1.953585e+003,5.723459e+000
1.954549e+003,6.457458e+000
1.955514e+003,7.405499e+000
1.956478e+003,6.674994e+000
1.957442e+003,4.490579e+000
1.958406e+003,4.768857e+000
1.959371e+003,9.078485e+000
1.960335e+003,1.162657e+001
1.961299e+003,1.004122e+001
1.962263e+003,8.865338e+000
1.963228e+003,1.051867e+001
1.964192e+003,1.212692e+001
1.965156e+003,1.131085e+001
1.966120e+003,9.493231e+000
1.967084e+003,8.257672e+000
1.968049e+003,7.922540e+000
1.969013e+003,8.644809e+000
1.969977e+003,1.021001e+001
1.970941e+003,1.167457e+001
1.971906e+003,1.255081e+001
1.972870e+003,1.260219e+001
1.973834e+003,1.107874e+001
1.974798e+003,9.059878e+000
1.975763e+003,8.724390e+000
1.976727e+003,9.327106e+000
1.977691e+003,8.182330e+000
1.978655e+003,5.585752e+000
1.979620e+003,5.129236e+000
1.980584e+003,7.563150e+000
1.981548e+003,9.378070e+000
1.982512e+003,8.647479e+000
1.983476e+003,7.428040e+000
1.984441e+003,7.914950e+000
1.985405e+003,9.248563e+000
1.986369e+003,9.324881e+000
1.987333e+003,8.211618e+000
1.988298e+003,7.977487e+000
1.989262e+003,9.207395e+000
1.990226e+003,9.382858e+000
1.991190e+003,7.308133e+000
1.992155e+003,6.294568e+000
1.993119e+003,8.311041e+000
1.994083e+003,1.018797e+001
1.995047e+003,1.005386e+001
1.996011e+003,9.131155e+000
1.996976e+003,8.550714e+000
1.997940e+003,8.273740e+000
1.998904e+003,7.900458e+000
1.999868e+003,7.438547e+000
2.000833e+003,7.839938e+000
2.001797e+003,9.826480e+000
2.002761e+003,1.134804e+001
2.003725e+003,1.126416e+001
2.004690e+003,1.088618e+001
2.005654e+003,1.078691e+001
2.006618e+003,1.104887e+001
2.007582e+003,1.227457e+001
2.008547e+003,1.361373e+001
2.009511e+003,1.336520e+001
2.010475e+003,1.183283e+001
2.011439e+003,1.090027e+001
2.012403e+003,1.114948e+001
2.013368e+003,1.136416e+001
2.014332e+003,1.065173e+001
2.015296e+003,9.821747e+000
2.016260e+003,1.010956e+001
2.017225e+003,1.096998e+001
2.018189e+003,1.082575e+001
2.019153e+003,1.009548e+001
2.020117e+003,1.091644e+001
2.021082e+003,1.317988e+001
2.022046e+003,1.417062e+001
2.023010e+003,1.324497e+001
2.023974e+003,1.199103e+001
2.024938e+003,1.119946e+001
2.025903e+003,1.093687e+001
2.026867e+003,1.135852e+001
2.027831e+003,1.210880e+001
2.028795e+003,1.241527e+001
2.029760e+003,1.230592e+001
2.030724e+003,1.132017e+001
2.031688e+003,8.811213e+000
2.032652e+003,7.574081e+000
2.033617e+003,8.286832e+000
2.034581e+003,9.014364e+000
2.035545e+003,9.221832e+000
2.036509e+003,9.586639e+000
2.037474e+003,1.074706e+001
2.038438e+003,1.183567e+001
2.039402e+003,1.153095e+001
2.040366e+003,1.067791e+001
2.041330e+003,1.155660e+001
2.042295e+003,1.412958e+001
2.043259e+003,1.511354e+001
2.044223e+003,1.349141e+001
2.045187e+003,1.200634e+001
2.046152e+003,1.097936e+001
2.047116e+003,1.042977e+001
2.048080e+003,1.076141e+001
2.049044e+003,1.107880e+001
2.050009e+003,1.080697e+001
2.050973e+003,1.019473e+001
2.051937e+003,9.282507e+000
2.052901e+003,8.434616e+000
2.053865e+003,8.510187e+000
2.054830e+003,9.416809e+000
2.055794e+003,9.656942e+000
2.056758e+003,8.481351e+000
2.057722e+003,7.597760e+000
2.058687e+003,8.399429e+000
2.059651e+003,9.931912e+000
2.060615e+003,1.182841e+001
2.061579e+003,1.336386e+001
2.062544e+003,1.338881e+001
2.063508e+003,1.244763e+001
2.064472e+003,1.142913e+001
2.065436e+003,1.064524e+001
2.066401e+003,1.069783e+001
2.067365e+003,1.152765e+001
2.068329e+003,1.155908e+001
2.069293e+003,9.840070e+000
2.070258e+003,8.323904e+000
2.071222e+003,9.534388e+000
2.072186e+003,1.202653e+001
2.073150e+003,1.253898e+001
2.074115e+003,1.155340e+001
2.075079e+003,1.110027e+001
2.076043e+003,1.115713e+001
2.077007e+003,1.127280e+001
2.077971e+003,1.140273e+001
2.078936e+003,1.155795e+001
2.079900e+003,1.173040e+001
2.080864e+003,1.159999e+001
2.081828e+003,1.091489e+001
2.082792e+003,1.008271e+001
2.083757e+003,9.664294e+000
2.084721e+003,9.580399e+000
2.085685e+003,9.563678e+000
2.086649e+003,9.617203e+000
2.087614e+003,1.023672e+001
2.088578e+003,1.168572e+001
2.089542e+003,1.232268e+001
2.090506e+003,1.156931e+001
2.091471e+003,1.120228e+001
2.092435e+003,1.212683e+001
2.093399e+003,1.294010e+001
2.094363e+003,1.267657e+001
2.095328e+003,1.185698e+001
2.096292e+003,1.091800e+001
2.097256e+003,1.001728e+001
2.098220e+003,9.855975e+000
2.099185e+003,1.054019e+001
2.100149e+003,1.141548e+001
2.101113e+003,1.297177e+001
2.102077e+003,1.371591e+001
2.103042e+003,1.319197e+001
2.104006e+003,1.244753e+001
2.104970e+003,1.141263e+001
2.105934e+003,1.059681e+001
2.106898e+003,1.022181e+001
2.107863e+003,1.020568e+001
2.108827e+003,1.059371e+001
2.109791e+003,1.126961e+001
2.110755e+003,1.195795e+001
2.111719e+003,1.262323e+001
2.112684e+003,1.346401e+001
2.113648e+003,1.490017e+001
2.114612e+003,1.544562e+001
2.115576e+003,1.370863e+001
2.116541e+003,1.249597e+001
2.117505e+003,1.381727e+001
2.118469e+003,1.481495e+001
2.119433e+003,1.284186e+001
2.120398e+003,1.039998e+001
2.121362e+003,1.049805e+001
2.122326e+003,1.194017e+001
2.123290e+003,1.200383e+001
2.124255e+003,1.070456e+001
2.125219e+003,1.011350e+001
2.126183e+003,1.085340e+001
2.127147e+003,1.156432e+001
2.128112e+003,1.134493e+001
2.129076e+003,1.145238e+001
2.130040e+003,1.334123e+001
2.131004e+003,1.491835e+001
2.131969e+003,1.389537e+001
2.132933e+003,1.212632e+001
2.133897e+003,1.196969e+001
2.134861e+003,1.279742e+001
2.135825e+003,1.298672e+001
2.136790e+003,1.245112e+001
2.137754e+003,1.208024e+001
2.138718e+003,1.217930e+001
2.139682e+003,1.245362e+001
2.140646e+003,1.272202e+001
2.141611e+003,1.320082e+001
2.142575e+003,1.438074e+001
2.143539e+003,1.543850e+001
2.144503e+003,1.543494e+001
2.145468e+003,1.498475e+001
2.146432e+003,1.506028e+001
2.147396e+003,1.523618e+001
2.148360e+003,1.426648e+001
2.149325e+003,1.248185e+001
2.150289e+003,1.141010e+001
2.151253e+003,1.146972e+001
2.152217e+003,1.195233e+001
2.153182e+003,1.248679e+001
2.154146e+003,1.313337e+001
2.155110e+003,1.417247e+001
2.156074e+003,1.499576e+001
2.157039e+003,1.439270e+001
2.158003e+003,1.326879e+001
2.158967e+003,1.325849e+001
2.159931e+003,1.396671e+001
2.160896e+003,1.440733e+001
2.161860e+003,1.447263e+001
2.162824e+003,1.415549e+001
2.163788e+003,1.366401e+001
2.164752e+003,1.406881e+001
2.165717e+003,1.577464e+001
2.166681e+003,1.688157e+001
2.167645e+003,1.551010e+001
2.168609e+003,1.373986e+001
2.169573e+003,1.497792e+001
2.170538e+003,1.754715e+001
2.171502e+003,1.849049e+001
2.172466e+003,1.793411e+001
2.173430e+003,1.550501e+001
2.174395e+003,1.215618e+001
2.175359e+003,1.109178e+001
2.176323e+003,1.239277e+001
2.177287e+003,1.309221e+001
2.178252e+003,1.208357e+001
2.179216e+003,1.094424e+001
2.180180e+003,1.082347e+001
2.181144e+003,1.148651e+001
2.182109e+003,1.294722e+001
2.183073e+003,1.439264e+001
2.184037e+003,1.401955e+001
2.185001e+003,1.252103e+001
2.185966e+003,1.153979e+001
2.186930e+003,1.110867e+001
2.187894e+003,1.097280e+001
2.188858e+003,1.104789e+001
2.189823e+003,1.104728e+001
2.190787e+003,1.096896e+001
2.191751e+003,1.179539e+001
2.192715e+003,1.399857e+001
2.193679e+003,1.568712e+001
2.194644e+003,1.489627e+001
2.195608e+003,1.331015e+001
2.196572e+003,1.398003e+001
2.197536e+003,1.574680e+001
2.198500e+003,1.570543e+001
2.199465e+003,1.440096e+001
2.200429e+003,1.312796e+001
2.201393e+003,1.215283e+001
2.202357e+003,1.222237e+001
2.203322e+003,1.315481e+001
2.204286e+003,1.314036e+001
2.205250e+003,1.167792e+001
2.206214e+003,1.068983e+001
2.207179e+003,1.149316e+001
2.208143e+003,1.306218e+001
2.209107e+003,1.431503e+001
2.210071e+003,1.524777e+001
2.211036e+003,1.590198e+001
2.212000e+003,1.621785e+001
2.212964e+003,1.586976e+001
2.213928e+003,1.507098e+001
2.214893e+003,1.433472e+001
2.215857e+003,1.390073e+001
2.216821e+003,1.429138e+001
2.217785e+003,1.545782e+001
2.218750e+003,1.666710e+001
2.219714e+003,1.752538e+001
2.220678e+003,1.769236e+001
2.221642e+003,1.678845e+001
2.222606e+003,1.628913e+001
2.223571e+003,1.878397e+001
2.224535e+003,2.227371e+001
2.225499e+003,2.303549e+001
2.226463e+003,2.218713e+001
2.227427e+003,2.166725e+001
2.228392e+003,2.172073e+001
2.229356e+003,2.241833e+001
2.230320e+003,2.382570e+001
2.231284e+003,2.658266e+001
2.232249e+003,3.037780e+001
2.233213e+003,3.291872e+001
2.234177e+003,3.307401e+001
2.235141e+003,3.241003e+001
2.236106e+003,3.193870e+001
2.237070e+003,3.231976e+001
2.238034e+003,3.478006e+001
2.238998e+003,3.811536e+001
2.239963e+003,4.094640e+001
2.240927e+003,4.332505e+001
2.241891e+003,4.526339e+001
2.242855e+003,4.699191e+001
2.243820e+003,4.875639e+001
2.244784e+003,5.071112e+001
2.245748e+003,5.336074e+001
2.246712e+003,5.660366e+001
2.247677e+003,5.898675e+001
2.248641e+003,5.974879e+001
2.249605e+003,6.036806e+001
2.250569e+003,6.204248e+001
2.251533e+003,6.390971e+001
2.252498e+003,6.536194e+001
2.253462e+003,6.638096e+001
2.254426e+003,6.729812e+001
2.255390e+003,6.754624e+001
2.256354e+003,6.599669e+001
2.257319e+003,6.333578e+001
2.258283e+003,6.099505e+001
2.259247e+003,5.900006e+001
2.260211e+003,5.640879e+001
2.261176e+003,5.300902e+001
2.262140e+003,4.940693e+001
2.263104e+003,4.564649e+001
2.264068e+003,4.246605e+001
2.265033e+003,4.073433e+001
2.265997e+003,3.910378e+001
2.266961e+003,3.671766e+001
2.267925e+003,3.415482e+001
2.268890e+003,3.164706e+001
2.269854e+003,2.941488e+001
2.270818e+003,2.800773e+001
2.271782e+003,2.686262e+001
2.272747e+003,2.480125e+001
2.273711e+003,2.209207e+001
2.274675e+003,2.016375e+001
2.275639e+003,1.929422e+001
2.276604e+003,1.862849e+001
2.277568e+003,1.788892e+001
2.278532e+003,1.748351e+001
2.279496e+003,1.800528e+001
2.280460e+003,1.805869e+001
2.281425e+003,1.675156e+001
2.282389e+003,1.532028e+001
2.283353e+003,1.485179e+001
2.284317e+003,1.434920e+001
2.285281e+003,1.237651e+001
2.286246e+003,9.942090e+000
2.287210e+003,8.713898e+000
2.288174e+003,8.654139e+000
2.289138e+003,9.596670e+000
2.290103e+003,1.215601e+001
2.291067e+003,1.231534e+001
2.292031e+003,7.918963e+000
2.292995e+003,5.318561e+000
2.293960e+003,5.435199e+000
2.294924e+003,6.064837e+000
2.295888e+003,7.246310e+000
2.296852e+003,7.828665e+000
2.297817e+003,6.908990e+000
2.298781e+003,5.791532e+000
2.299745e+003,5.584421e+000
2.300709e+003,6.101773e+000
2.301674e+003,7.209708e+000
2.302638e+003,8.540530e+000
2.303602e+003,8.190725e+000
2.304566e+003,5.940280e+000
2.305531e+003,5.024503e+000
2.306495e+003,5.685767e+000
2.307459e+003,6.255722e+000
2.308423e+003,6.611807e+000
2.309387e+003,6.106799e+000
2.310352e+003,4.447385e+000
2.311316e+003,3.673550e+000
2.312280e+003,4.867703e+000
2.313244e+003,6.104233e+000
2.314208e+003,5.701529e+000
2.315173e+003,4.791870e+000
2.316137e+003,5.159683e+000
2.317101e+003,6.096054e+000
2.318065e+003,5.297681e+000
2.319030e+003,3.485321e+000
2.319994e+003,4.050265e+000
2.320958e+003,6.183542e+000
2.321922e+003,6.102042e+000
2.322887e+003,4.087134e+000
2.323851e+003,3.350381e+000
2.324815e+003,4.216327e+000
2.325779e+003,4.328360e+000
2.326744e+003,2.913712e+000
2.327708e+003,1.613928e+000
2.328672e+003,1.460364e+000
2.329636e+003,1.817419e+000
2.330601e+003,2.310052e+000
2.331565e+003,2.658115e+000
2.332529e+003,2.469516e+000
2.333493e+003,2.038825e+000
2.334458e+003,1.700308e+000
2.335422e+003,1.338245e+000
2.336386e+003,4.243378e-001
2.337350e+003,-4.044128e-001
2.338314e+003,6.091980e-001
2.339279e+003,2.573245e+000
2.340243e+003,2.095898e+000
2.341207e+003,-1.092050e+000
2.342171e+003,-2.886224e+000
2.343135e+003,-1.657398e+000
2.344100e+003,-6.056702e-001
2.345064e+003,-1.146326e+000
2.346028e+003,-1.733881e+000
2.346992e+003,-1.717502e+000
2.347957e+003,-1.740185e+000
2.348921e+003,-2.774307e+000
2.349885e+003,-3.262689e+000
2.350849e+003,-8.896087e-001
2.351814e+003,1.694147e+000
2.352778e+003,5.215729e-001
2.353742e+003,-2.667490e+000
2.354706e+003,-3.332736e+000
2.355671e+003,-1.692960e+000
2.356635e+003,-1.146924e+000
2.357599e+003,-2.062646e+000
2.358563e+003,-2.576608e+000
2.359528e+003,-2.650272e+000
2.360492e+003,-2.435278e+000
2.361456e+003,-1.764340e+000
2.362420e+003,-1.437314e+000
2.363385e+003,-1.710321e+000
2.364349e+003,-2.432904e+000
2.365313e+003,-3.655527e+000
2.366277e+003,-4.292666e+000
2.367241e+003,-3.244388e+000
2.368206e+003,-1.745941e+000
2.369170e+003,-1.824988e+000
2.370134e+003,-2.961545e+000
2.371098e+003,-3.790179e+000
2.372063e+003,-4.314987e+000
2.373027e+003,-4.570544e+000
2.373991e+003,-4.473349e+000
2.374955e+003,-3.387363e+000
2.375919e+003,-1.782471e+000
2.376884e+003,-1.607303e+000
2.377848e+003,-2.908618e+000
2.378812e+003,-4.042902e+000
2.379776e+003,-4.404630e+000
2.380741e+003,-4.484558e+000
2.381705e+003,-4.549167e+000
2.382669e+003,-4.336508e+000
2.383633e+003,-3.559265e+000
2.384598e+003,-2.601620e+000
2.385562e+003,-1.695947e+000
2.386526e+003,-8.890930e-001
2.387490e+003,4.204163e-001
2.388455e+003,1.055722e+000
2.389419e+003,-8.370178e-001
2.390383e+003,-3.531662e+000
2.391347e+003,-5.059042e+000
2.392312e+003,-5.368463e+000
2.393276e+003,-4.434873e+000
2.394240e+003,-2.571451e+000
2.395204e+003,-1.755307e+000
2.396168e+003,-2.388617e+000
2.397133e+003,-3.092581e+000
2.398097e+003,-4.737662e+000
2.399061e+003,-4.553427e+000
2.400025e+003,-8.531006e-001
2.400990e+003,1.235764e+000
2.401954e+003,-1.684357e-001
2.402918e+003,-1.563083e+000
2.403882e+003,-1.325018e+000
2.404846e+003,-5.737732e-001
2.405811e+003,-1.831665e-001
2.406775e+003,2.283936e-001
2.407739e+003,1.256088e+000
2.408703e+003,2.394669e+000
2.409668e+003,2.063202e+000
2.410632e+003,7.236084e-001
2.411596e+003,1.075330e+000
2.412560e+003,2.510159e+000
2.413525e+003,2.274036e+000
2.414489e+003,6.140076e-001
2.415453e+003,-9.500488e-001
2.416417e+003,-2.003143e+000
2.417382e+003,-2.329846e+000
2.418346e+003,-1.930954e+000
2.419310e+003,-7.735687e-001
2.420274e+003,1.038181e+000
2.421239e+003,1.844824e+000
2.422203e+003,2.340454e-001
2.423167e+003,-1.370273e+000
2.424131e+003,-1.218585e+000
2.425095e+003,-4.991882e-001
2.426060e+003,3.411407e-001
2.427024e+003,1.063473e+000
2.427988e+003,1.320700e+000
2.428952e+003,1.542545e+000
2.429917e+003,2.485892e+000
2.430881e+003,3.491037e+000
2.431845e+003,3.260355e+000
2.432809e+003,2.167554e+000
2.433773e+003,1.862225e+000
2.434738e+003,2.363959e+000
2.435702e+003,2.420508e+000
2.436666e+003,1.807611e+000
2.437630e+003,1.625015e+000
2.438595e+003,1.983847e+000
2.439559e+003,2.087973e+000
2.440523e+003,1.740417e+000
2.441487e+003,2.271268e+000
2.442452e+003,4.111810e+000
2.443416e+003,5.645502e+000
2.444380e+003,6.055036e+000
2.445344e+003,5.524316e+000
2.446309e+003,4.143250e+000
2.447273e+003,3.212012e+000
2.448237e+003,4.540277e+000
2.449201e+003,7.028311e+000
2.450166e+003,9.988138e+000
2.451130e+003,1.199806e+001
2.452094e+003,9.417486e+000
2.453058e+003,5.243051e+000
2.454022e+003,4.220755e+000
2.454987e+003,5.230655e+000
2.455951e+003,5.595566e+000
2.456915e+003,5.396844e+000
2.457879e+003,6.247595e+000
2.458844e+003,8.070765e+000
2.459808e+003,8.664459e+000
2.460772e+003,7.296781e+000
2.461736e+003,6.536096e+000
2.462700e+003,7.324213e+000
2.463665e+003,7.967761e+000
2.464629e+003,8.558703e+000
2.465593e+003,8.683868e+000
2.466557e+003,7.808115e+000
2.467522e+003,7.302381e+000
2.468486e+003,7.829932e+000
2.469450e+003,8.701843e+000
2.470414e+003,9.607412e+000
2.471379e+003,9.860132e+000
2.472343e+003,8.425791e+000
2.473307e+003,6.624979e+000
2.474271e+003,7.540427e+000
2.475236e+003,9.976703e+000
2.476200e+003,9.583319e+000
2.477164e+003,7.600266e+000
2.478128e+003,7.994766e+000
2.479093e+003,9.904022e+000
2.480057e+003,1.072682e+001
2.481021e+003,1.045993e+001
2.481985e+003,9.935870e+000
2.482949e+003,9.479376e+000
2.483914e+003,9.411206e+000
2.484878e+003,9.709928e+000
2.485842e+003,9.506244e+000
2.486806e+003,8.238607e+000
2.487771e+003,7.929285e+000
2.488735e+003,1.028696e+001
2.489699e+003,1.214167e+001
2.490663e+003,1.213025e+001
2.491627e+003,1.219597e+001
2.492592e+003,1.350911e+001
2.493556e+003,1.432400e+001
2.494520e+003,1.354103e+001
2.495484e+003,1.244590e+001
2.496449e+003,1.191469e+001
2.497413e+003,1.204755e+001
2.498377e+003,1.311767e+001
2.499341e+003,1.470016e+001
2.500306e+003,1.580457e+001
2.501270e+003,1.637325e+001
2.502234e+003,1.559890e+001
2.503198e+003,1.408251e+001
2.504163e+003,1.410320e+001
2.505127e+003,1.526453e+001
2.506091e+003,1.627340e+001
2.507055e+003,1.690253e+001
2.508020e+003,1.718444e+001
2.508984e+003,1.719419e+001
2.509948e+003,1.687632e+001
2.510912e+003,1.628859e+001
2.511876e+003,1.639573e+001
2.512841e+003,1.780317e+001
2.513805e+003,1.900604e+001
2.514769e+003,1.910366e+001
2.515733e+003,1.953856e+001
2.516698e+003,2.143890e+001
2.517662e+003,2.247307e+001
2.518626e+003,2.109439e+001
2.519590e+003,2.045815e+001
2.520554e+003,2.232845e+001
2.521519e+003,2.509987e+001
2.522483e+003,2.762250e+001
2.523447e+003,2.931766e+001
2.524411e+003,2.920226e+001
2.525376e+003,2.837292e+001
2.526340e+003,2.962250e+001
2.527304e+003,3.219958e+001
2.528268e+003,3.409188e+001
2.529233e+003,3.530119e+001
2.530197e+003,3.521174e+001
2.531161e+003,3.472132e+001
2.532125e+003,3.590798e+001
2.533090e+003,3.827332e+001
2.534054e+003,4.028153e+001
2.535018e+003,4.164701e+001
2.535982e+003,4.234058e+001
2.536947e+003,4.244402e+001
2.537911e+003,4.359241e+001
2.538875e+003,4.682040e+001
2.539839e+003,4.911772e+001
2.540803e+003,4.923767e+001
2.541768e+003,4.990911e+001
2.542732e+003,5.188099e+001
2.543696e+003,5.281295e+001
2.544660e+003,5.164214e+001
2.545625e+003,5.194901e+001
2.546589e+003,5.563856e+001
2.547553e+003,5.872484e+001
2.548517e+003,5.807124e+001
2.549482e+003,5.588503e+001
2.550446e+003,5.460490e+001
2.551410e+003,5.412235e+001
2.552374e+003,5.469302e+001
2.553339e+003,5.545657e+001
2.554303e+003,5.529652e+001
2.555267e+003,5.451516e+001
2.556231e+003,5.305115e+001
2.557196e+003,5.156443e+001
2.558160e+003,5.089594e+001
2.559124e+003,5.077797e+001
2.560088e+003,5.108876e+001
2.561052e+003,5.142492e+001
2.562017e+003,5.022876e+001
2.562981e+003,4.748479e+001
2.563945e+003,4.605611e+001
2.564909e+003,4.640038e+001
2.565874e+003,4.527950e+001
2.566838e+003,4.241467e+001
2.567802e+003,4.091485e+001
2.568766e+003,4.105682e+001
2.569730e+003,3.964645e+001
2.570695e+003,3.622676e+001
2.571659e+003,3.343659e+001
2.572623e+003,3.215529e+001
2.573587e+003,3.160915e+001
2.574552e+003,3.138851e+001
2.575516e+003,3.080688e+001
2.576480e+003,2.937174e+001
2.577444e+003,2.755137e+001
2.578409e+003,2.469490e+001
2.579373e+003,2.266739e+001
2.580337e+003,2.356030e+001
2.581301e+003,2.435497e+001
2.582266e+003,2.284841e+001
2.583230e+003,2.129669e+001
2.584194e+003,2.144255e+001
2.585158e+003,2.184105e+001
2.586123e+003,2.115429e+001
2.587087e+003,1.976722e+001
2.588051e+003,1.818284e+001
2.589015e+003,1.663904e+001
2.589979e+003,1.589907e+001
2.590944e+003,1.579434e+001
2.591908e+003,1.605292e+001
2.592872e+003,1.621716e+001
2.593836e+003,1.453285e+001
2.594801e+003,1.215007e+001
2.595765e+003,1.228185e+001
2.596729e+003,1.372324e+001
2.597693e+003,1.233580e+001
2.598657e+003,8.640192e+000
2.599622e+003,7.244592e+000
2.600586e+003,8.938034e+000
2.601550e+003,9.650167e+000
2.602514e+003,8.367673e+000
2.603479e+003,7.157834e+000
2.604443e+003,5.619342e+000
2.605407e+003,5.662519e+000
2.606371e+003,7.936493e+000
2.607336e+003,8.811206e+000
2.608300e+003,7.455768e+000
2.609264e+003,6.036386e+000
2.610228e+003,5.383466e+000
2.611193e+003,5.144516e+000
2.612157e+003,5.117792e+000
2.613121e+003,5.219937e+000
2.614085e+003,5.392484e+000
2.615050e+003,5.586017e+000
2.616014e+003,5.748886e+000
2.616978e+003,5.897260e+000
2.617942e+003,6.226416e+000
2.618906e+003,6.386237e+000
2.619871e+003,6.460391e+000
2.620835e+003,5.873694e+000
2.621799e+003,3.399710e+000
2.622763e+003,1.242365e+000
2.623728e+003,1.652884e+000
2.624692e+003,3.192352e+000
2.625656e+003,3.588962e+000
2.626620e+003,3.306390e+000
2.627584e+003,3.680524e+000
2.628549e+003,4.380725e+000
2.629513e+003,4.118521e+000
2.630477e+003,3.438892e+000
2.631441e+003,3.617667e+000
2.632406e+003,4.244406e+000
2.633370e+003,4.575894e+000
2.634334e+003,4.571280e+000
2.635298e+003,4.210693e+000
2.636263e+003,3.627847e+000
2.637227e+003,3.187268e+000
2.638191e+003,2.960037e+000
2.639155e+003,2.970291e+000
2.640120e+003,3.304010e+000
2.641084e+003,3.259314e+000
2.642048e+003,2.636969e+000
2.643012e+003,2.854935e+000
2.643977e+003,4.032794e+000
2.644941e+003,3.479050e+000
2.645905e+003,1.086365e+000
2.646869e+003,-2.104431e-001
2.647833e+003,2.918030e-001
2.648798e+003,1.348163e+000
2.649762e+003,2.377927e+000
2.650726e+003,3.134482e+000
2.651690e+003,3.455130e+000
2.652655e+003,3.597775e+000
2.653619e+003,3.958087e+000
2.654583e+003,3.765689e+000
2.655547e+003,2.079523e+000
2.656511e+003,9.922028e-001
2.657476e+003,1.231750e+000
2.658440e+003,1.602634e+000
2.659404e+003,1.729868e+000
2.660368e+003,1.137604e+000
2.661333e+003,-5.574829e-001
2.662297e+003,-1.473065e+000
2.663261e+003,3.706512e-001
2.664225e+003,2.540155e+000
2.665190e+003,1.637653e+000
2.666154e+003,-2.166229e-001
2.667118e+003,-9.960144e-001
2.668082e+003,-1.000369e+000
2.669047e+003,2.329468e-001
2.670011e+003,1.242834e+000
2.670975e+003,-7.793884e-002
2.671939e+003,-1.533511e+000
2.672904e+003,-3.396026e-001
2.673868e+003,1.983215e+000
2.674832e+003,3.576111e+000
2.675796e+003,4.096713e+000
2.676760e+003,2.343774e+000
2.677725e+003,-8.534424e-001
2.678689e+003,-2.214056e+000
2.679653e+003,-2.053320e+000
2.680617e+003,-7.628632e-001
2.681582e+003,8.719605e-001
2.682546e+003,1.334335e+000
2.683510e+003,1.069943e+000
2.684474e+003,1.000613e+000
2.685438e+003,1.210379e+000
2.686403e+003,1.754895e+000
2.687367e+003,2.448642e+000
2.688331e+003,2.112527e+000
2.689295e+003,7.255737e-001
2.690260e+003,5.232574e-001
2.691224e+003,1.705774e+000
2.692188e+003,2.059259e+000
2.693152e+003,1.561816e+000
2.694117e+003,1.236148e+000
2.695081e+003,1.154944e+000
2.696045e+003,8.152801e-001
2.697009e+003,2.953369e-001
2.697974e+003,3.662781e-001
2.698938e+003,1.085049e+000
2.699902e+003,1.572949e+000
2.700866e+003,1.545102e+000
2.701831e+003,1.219095e+000
2.702795e+003,5.044128e-001
2.703759e+003,-3.047150e-001
2.704723e+003,-1.788791e+000
2.705688e+003,-1.253394e+000
2.706652e+003,2.164850e+000
2.707616e+003,3.366306e+000
2.708580e+003,1.146597e+000
2.709544e+003,-9.518188e-001
2.710509e+003,-1.445697e+000
2.711473e+003,-9.900787e-001
2.712437e+003,1.373901e-002
2.713401e+003,7.214386e-001
2.714365e+003,4.580078e-001
2.715330e+003,1.776703e-001
2.716294e+003,4.509796e-001
2.717258e+003,6.816223e-001
2.718222e+003,7.481079e-001
2.719187e+003,5.122253e-001
2.720151e+003,-4.276367e-001
2.721115e+003,-4.581451e-001
2.722079e+003,1.389560e+000
2.723044e+003,2.605261e+000
2.724008e+003,1.279044e+000
2.724972e+003,-2.806946e-001
2.725936e+003,4.295685e-001
2.726901e+003,1.433008e+000
2.727865e+003,2.126007e-001
2.728829e+003,-1.242908e+000
2.729793e+003,-1.417673e+000
2.730758e+003,-1.111954e+000
2.731722e+003,-5.245789e-001
2.732686e+003,-1.829071e-001
2.733650e+003,-7.983307e-001
2.734615e+003,-9.346496e-001
2.735579e+003,9.825256e-001
2.736543e+003,2.538913e+000
2.737507e+003,2.341766e-001
2.738471e+003,-3.345258e+000
2.739436e+003,-3.459021e+000
2.740400e+003,-1.468756e+000
2.741364e+003,1.558810e+000
2.742328e+003,4.068753e+000
2.743292e+003,3.991477e+000
2.744257e+003,2.641650e+000
2.745221e+003,6.611725e-001
2.746185e+003,-9.153473e-001
2.747149e+003,-7.447388e-001
2.748114e+003,3.446503e-001
2.749078e+003,1.288278e+000
2.750042e+003,1.995761e+000
2.751006e+003,2.129965e+000
2.751971e+003,1.840439e+000
2.752935e+003,1.694888e+000
2.753899e+003,1.526437e+000
2.754863e+003,8.307434e-001
2.755828e+003,5.020142e-003
2.756792e+003,-3.888825e-001
2.757756e+003,-4.095001e-001
2.758720e+003,-1.620178e-001
2.759685e+003,2.676239e-001
2.760649e+003,1.033798e+000
2.761613e+003,1.734344e+000
2.762577e+003,8.257721e-001
2.763542e+003,-1.256342e+000
2.764506e+003,-5.512451e-001
2.765470e+003,2.142258e+000
2.766434e+003,2.499579e+000
2.767398e+003,1.197885e+000
2.768363e+003,-1.688354e-001
2.769327e+003,-1.293262e+000
2.770291e+003,-2.104684e+000
2.771255e+003,-2.419199e+000
2.772219e+003,-1.622177e+000
2.773184e+003,-4.245605e-002
2.774148e+003,5.859528e-001
2.775112e+003,3.069977e-001
2.776076e+003,4.946411e-001
2.777041e+003,1.172900e+000
2.778005e+003,1.054343e+000
2.778969e+003,2.952881e-001
2.779933e+003,-4.101288e-001
2.780898e+003,-8.802246e-001
2.781862e+003,-6.987671e-001
2.782826e+003,-1.010040e-001
2.783790e+003,2.838531e-001
2.784755e+003,3.726624e-001
2.785719e+003,3.136566e-001
2.786683e+003,1.434937e-001
2.787647e+003,1.321777e-001
2.788612e+003,3.431519e-001
2.789576e+003,-2.634003e-001
2.790540e+003,-1.613312e+000
2.791504e+003,-1.782990e+000
2.792469e+003,-8.757569e-001
2.793433e+003,1.901703e-001
2.794397e+003,1.043604e+000
2.795361e+003,8.729889e-001
2.796325e+003,6.061096e-002
2.797290e+003,6.557220e-001
2.798254e+003,2.913101e+000
2.799218e+003,3.957077e+000
2.800182e+003,3.415567e+000
2.801146e+003,2.187201e+000
2.802111e+003,6.552124e-002
2.803075e+003,7.824860e-001
2.804039e+003,3.983551e+000
2.805003e+003,5.101416e+000
2.805968e+003,3.896014e+000
2.806932e+003,1.721320e+000
2.807896e+003,-3.905151e-001
2.808860e+003,-3.727112e-001
2.809825e+003,1.802112e+000
2.810789e+003,2.799689e+000
2.811753e+003,1.741638e+000
2.812717e+003,8.066498e-001
2.813682e+003,-7.456665e-002
2.814646e+003,-1.798706e-001
2.815610e+003,4.751984e-001
2.816574e+003,2.605499e-001
2.817539e+003,-7.460663e-001
2.818503e+003,-1.269446e+000
2.819467e+003,-1.185590e+000
2.820431e+003,-1.007483e+000
2.821396e+003,-8.277801e-001
2.822360e+003,-5.766785e-001
2.823324e+003,-2.867309e-001
2.824288e+003,8.998138e-001
2.825252e+003,3.743783e+000
2.826217e+003,4.000162e+000
2.827181e+003,1.576822e+000
2.828145e+003,1.665064e+000
2.829109e+003,4.010013e+000
2.830073e+003,4.261230e+000
2.831038e+003,2.324759e+000
2.832002e+003,6.036896e-001
2.832966e+003,-2.280518e-001
2.833930e+003,-2.167786e-001
2.834895e+003,6.103668e-001
2.835859e+003,1.397907e+000
2.836823e+003,2.135544e+000
2.837787e+003,2.469211e+000
2.838752e+003,2.383765e+000
2.839716e+003,2.481400e+000
2.840680e+003,2.649799e+000
2.841644e+003,1.588339e+000
2.842609e+003,-3.383057e-001
2.843573e+003,-1.274869e+000
2.844537e+003,-1.026581e+000
2.845501e+003,-3.493622e-001
2.846466e+003,4.803497e-001
2.847430e+003,5.515930e-001
2.848394e+003,-2.625794e-001
2.849358e+003,-1.468912e+000
2.850323e+003,-3.193118e+000
2.851287e+003,-1.766385e+000
2.852251e+003,2.056125e+000
2.853215e+003,2.302856e+000
2.854179e+003,-1.331085e-001
2.855144e+003,2.398590e-001
2.856108e+003,2.899869e+000
2.857072e+003,2.874487e+000
2.858036e+003,-1.318512e-001
2.859000e+003,-1.705359e+000
2.859965e+003,-1.553485e+000
2.860929e+003,-4.996033e-001
2.861893e+003,1.473547e+000
2.862857e+003,1.688599e+000
2.863822e+003,6.143402e-001
2.864786e+003,3.352112e-001
2.865750e+003,9.653473e-001
2.866714e+003,3.084262e+000
2.867679e+003,5.335718e+000
2.868643e+003,3.946313e+000
2.869607e+003,-2.757599e-001
2.870571e+003,-1.689719e+000
2.871536e+003,-5.104553e-001
2.872500e+003,-1.810638e-001
2.873464e+003,-6.809357e-001
2.874428e+003,-5.251709e-001
2.875393e+003,7.125549e-002
2.876357e+003,4.644012e-001
2.877321e+003,5.637054e-001
2.878285e+003,-3.639893e-001
2.879250e+003,-1.297168e+000
2.880214e+003,6.088623e-001
2.881178e+003,3.909936e+000
2.882142e+003,3.992603e+000
2.883106e+003,1.622604e+000
2.884071e+003,-5.039276e-001
2.885035e+003,-2.054981e+000
2.885999e+003,-3.015991e-001
2.886963e+003,2.888016e+000
2.887927e+003,2.381671e+000
2.888892e+003,5.791565e-001
2.889856e+003,1.843805e+000
2.890820e+003,4.444043e+000
2.891784e+003,5.639758e+000
2.892749e+003,5.407776e+000
2.893713e+003,3.871457e+000
2.894677e+003,1.921710e+000
2.895641e+003,1.620102e+000
2.896606e+003,2.367050e+000
2.897570e+003,2.630734e+000
2.898534e+003,2.706937e+000
2.899498e+003,3.294275e+000
2.900463e+003,3.702826e+000
2.901427e+003,2.803888e+000
2.902391e+003,1.661646e+000
2.903355e+003,1.379526e+000
2.904320e+003,1.602261e+000
2.905284e+003,2.116833e+000
2.906248e+003,2.262250e+000
2.907212e+003,8.582184e-001
2.908177e+003,-6.891785e-001
2.909141e+003,3.461151e-001
2.910105e+003,1.935294e+000
2.911069e+003,2.331241e+000
2.912033e+003,1.791602e+000
2.912998e+003,-5.808533e-001
2.913962e+003,-2.145938e+000
2.914926e+003,-1.123196e+000
2.915890e+003,2.162018e-001
2.916854e+003,2.054749e-001
2.917819e+003,1.744598e-001
2.918783e+003,1.579254e+000
2.919747e+003,2.762082e+000
2.920711e+003,1.552057e+000
2.921676e+003,1.323761e-001
2.922640e+003,-3.510407e-001
2.923604e+003,-2.958588e-001
2.924568e+003,3.999420e-001
2.925533e+003,9.319153e-001
2.926497e+003,9.664367e-001
2.927461e+003,7.295135e-001
2.928425e+003,5.884522e-001
2.929390e+003,4.013092e-001
2.930354e+003,-5.090393e-001
2.931318e+003,-9.748443e-001
2.932282e+003,4.553528e-001
2.933247e+003,1.358685e+000
2.934211e+003,2.144367e+000
2.935175e+003,1.795056e+000
2.936139e+003,-7.546082e-001
2.937104e+003,-7.542572e-001
2.938068e+003,2.596179e+000
2.939032e+003,4.028397e+000
2.939996e+003,2.183048e+000
2.940960e+003,9.021026e-001
2.941925e+003,1.657007e+000
2.942889e+003,2.222699e+000
2.943853e+003,1.986688e+000
2.944817e+003,1.249655e+000
2.945781e+003,-2.028290e-001
2.946746e+003,-8.247833e-001
2.947710e+003,-5.398834e-001
2.948674e+003,9.579285e-001
2.949638e+003,3.142026e+000
2.950603e+003,4.074149e+000
2.951567e+003,3.672455e+000
2.952531e+003,3.059283e+000
2.953495e+003,2.494272e+000
2.954460e+003,2.253546e+000
2.955424e+003,2.350070e+000
2.956388e+003,1.111609e+000
2.957352e+003,-1.204098e+000
2.958317e+003,-2.056677e+000
2.959281e+003,-1.612927e+000
2.960245e+003,2.147705e-001
2.961209e+003,2.202264e+000
2.962174e+003,1.941360e+000
2.963138e+003,2.796478e-001
2.964102e+003,-6.530426e-001
2.965066e+003,-8.379028e-001
2.966031e+003,-2.993561e-001
2.966995e+003,6.703430e-001
2.967959e+003,1.216354e+000
2.968923e+003,1.385065e+000
2.969887e+003,1.126920e+000
2.970852e+003,7.302429e-001
2.971816e+003,4.566437e-001
2.972780e+003,3.393677e-001
2.973744e+003,3.323852e-001
2.974708e+003,6.553100e-001
2.975673e+003,1.672122e+000
2.976637e+003,2.228015e+000
2.977601e+003,7.055817e-001
2.978565e+003,-7.831726e-001
2.979530e+003,1.422012e+000
2.980494e+003,3.813382e+000
2.981458e+003,3.809345e+000
2.982422e+003,2.689014e+000
2.983387e+003,1.323151e-001
2.984351e+003,-1.459934e+000
2.985315e+003,-1.146906e+000
2.986279e+003,-5.292053e-001
2.987244e+003,-4.118775e-001
2.988208e+003,3.644318e-001
2.989172e+003,2.615231e+000
2.990136e+003,4.067483e+000
2.991101e+003,3.219186e+000
2.992065e+003,1.725992e+000
2.993029e+003,-8.627625e-001
2.993993e+003,-1.729334e+000
2.994958e+003,-5.119507e-001
2.995922e+003,4.785400e-001
2.996886e+003,7.981293e-001
2.997850e+003,7.766632e-001
2.998814e+003,6.793182e-001
2.999779e+003,1.224622e+000
3.000743e+003,2.581949e+000
3.001707e+003,3.688562e+000
3.002671e+003,4.609296e+000
3.003635e+003,3.811761e+000
3.004600e+003,1.486615e+000
3.005564e+003,1.355444e+000
3.006528e+003,2.779874e+000
3.007492e+003,3.333557e+000
3.008457e+003,3.143393e+000
3.009421e+003,3.145914e+000
3.010385e+003,3.306476e+000
3.011349e+003,3.312994e+000
3.012314e+003,3.023328e+000
3.013278e+003,1.952054e+000
3.014242e+003,3.878937e-001
3.015206e+003,-1.142102e+000
3.016171e+003,-2.057059e+000
3.017135e+003,-4.970001e-001
3.018099e+003,1.329523e+000
3.019063e+003,5.707153e-001
3.020028e+003,-4.589416e-001
3.020992e+003,4.717529e-001
3.021956e+003,1.349225e+000
3.022920e+003,3.825501e-001
3.023885e+003,-1.208212e+000
3.024849e+003,-2.288528e+000
3.025813e+003,-2.499359e+000
3.026777e+003,-3.664917e-001
3.027741e+003,9.670410e-001
3.028706e+003,-1.360876e+000
3.029670e+003,-2.407617e+000
3.030634e+003,-7.250611e-001
3.031598e+003,7.026642e-001
3.032563e+003,8.707215e-001
3.033527e+003,5.775818e-001
3.034491e+003,2.883118e-001
3.035455e+003,6.850189e-001
3.036420e+003,2.208023e+000
3.037384e+003,3.520798e+000
3.038348e+003,4.666574e+000
3.039312e+003,4.262546e+000
3.040277e+003,2.315320e+000
3.041241e+003,1.789343e+000
3.042205e+003,2.414746e+000
3.043169e+003,1.655127e+000
3.044134e+003,-1.474335e-001
3.045098e+003,-9.981842e-001
3.046062e+003,-6.358215e-001
3.047026e+003,7.434937e-001
3.047990e+003,2.608307e+000
3.048955e+003,1.977728e+000
3.049919e+003,-3.952850e-001
3.050883e+003,-1.416092e+000
3.051847e+003,-1.591196e+000
3.052812e+003,-1.418063e+000
3.053776e+003,-1.257651e+000
3.054740e+003,-1.933990e+000
3.055704e+003,-2.255933e+000
3.056668e+003,-9.755676e-001
3.057633e+003,7.881805e-001
3.058597e+003,1.874689e+000
3.059561e+003,2.201422e+000
3.060525e+003,1.386502e+000
3.061490e+003,2.151184e-001
3.062454e+003,-1.527148e+000
3.063418e+003,-1.970224e+000
3.064382e+003,3.329254e-001
3.065347e+003,1.688922e+000
3.066311e+003,1.091684e+000
3.067275e+003,2.341309e-001
3.068239e+003,-1.484863e-001
3.069204e+003,-5.899658e-002
3.070168e+003,4.697388e-001
3.071132e+003,1.013507e+000
3.072096e+003,1.512906e+000
3.073061e+003,1.832050e+000
3.074025e+003,1.971426e+000
3.074989e+003,2.381067e+000
3.075953e+003,2.891965e+000
3.076917e+003,2.534518e+000
3.077882e+003,1.628232e+000
3.078846e+003,1.532892e+000
3.079810e+003,1.912616e+000
3.080774e+003,6.532837e-001
3.081739e+003,-1.233188e+000
3.082703e+003,-2.066864e-001
3.083667e+003,2.392157e+000
3.084631e+003,1.901401e+000
3.085595e+003,9.926148e-002
3.086560e+003,-6.214111e-001
3.087524e+003,-5.468963e-001
3.088488e+003,5.424469e-001
3.089452e+003,1.372769e+000
3.090417e+003,1.100272e+000
3.091381e+003,5.248596e-001
3.092345e+003,2.580505e-001
3.093309e+003,6.614991e-002
3.094274e+003,-3.909668e-001
3.095238e+003,-4.182251e-001
3.096202e+003,9.252106e-001
3.097166e+003,1.936542e+000
3.098131e+003,2.313327e+000
3.099095e+003,2.392188e+000
3.100059e+003,2.205771e+000
3.101023e+003,1.052188e+000
3.101988e+003,-7.237793e-001
3.102952e+003,-4.596527e-001
3.103916e+003,2.161826e+000
3.104880e+003,3.035919e+000
3.105844e+003,1.658350e+000
3.106809e+003,1.040466e-001
3.107773e+003,-1.561527e+000
3.108737e+003,-2.685794e+000
3.109701e+003,-3.206573e+000
3.110666e+003,-2.619498e+000
3.111630e+003,-1.585562e+000
3.112594e+003,-8.328491e-001
3.113558e+003,-7.611267e-001
3.114522e+003,-1.942685e+000
3.115487e+003,-3.177811e+000
3.116451e+003,-2.635998e+000
3.117415e+003,-1.546802e+000
3.118379e+003,-1.854599e+000
3.119344e+003,-2.187247e+000
3.120308e+003,-1.062833e+000
3.121272e+003,-4.789337e-001
3.122236e+003,-1.316214e+000
3.123201e+003,-1.882278e+000
3.124165e+003,-1.642389e+000
3.125129e+003,-1.060141e+000
3.126093e+003,-4.402252e-001
3.127058e+003,-6.237823e-001
3.128022e+003,-2.164481e+000
3.128986e+003,-2.377637e+000
3.129950e+003,-2.702576e-001
3.130915e+003,1.848480e-001
3.131879e+003,-8.319947e-001
3.132843e+003,-1.523486e+000
3.133807e+003,-1.810355e+000
3.134771e+003,-2.069653e+000
3.135736e+003,-2.090149e+000
3.136700e+003,-5.681244e-001
3.137664e+003,9.476349e-001
3.138628e+003,-8.060364e-001
3.139593e+003,-3.868161e+000
3.140557e+003,-3.696289e+000
3.141521e+003,-1.947818e+000
3.142485e+003,-8.458252e-002
3.143449e+003,7.888031e-001
3.144414e+003,-1.267749e+000
3.145378e+003,-2.899826e+000
3.146342e+003,-2.745776e+000
3.147306e+003,-1.845264e+000
3.148271e+003,-7.682068e-001
3.149235e+003,-2.500733e-001
3.150199e+003,-7.245728e-001
3.151163e+003,-1.374948e+000
3.152128e+003,-1.947687e+000
3.153092e+003,-2.289264e+000
3.154056e+003,-2.396890e+000
3.155020e+003,-2.651054e+000
3.155985e+003,-2.908624e+000
3.156949e+003,-1.920261e+000
3.157913e+003,-3.529266e-001
3.158877e+003,-4.419739e-001
3.159842e+003,-1.757928e+000
3.160806e+003,-2.205261e+000
3.161770e+003,-2.017801e+000
3.162734e+003,-1.890732e+000
3.163698e+003,-1.679205e+000
3.164663e+003,-7.937927e-001
3.165627e+003,-4.389343e-002
3.166591e+003,-7.548157e-001
3.167555e+003,-1.077008e+000
3.168520e+003,4.545074e-001
3.169484e+003,7.421692e-001
3.170448e+003,-1.659003e+000
3.171412e+003,-2.703891e+000
3.172376e+003,-2.830505e-002
3.173341e+003,2.175681e+000
3.174305e+003,1.697366e+000
3.175269e+003,4.756348e-001
3.176233e+003,-1.535327e+000
3.177198e+003,-2.055028e+000
3.178162e+003,-1.304279e+000
3.179126e+003,-1.770093e+000
3.180090e+003,-2.961885e+000
3.181055e+003,-2.593606e+000
3.182019e+003,-1.065302e+000
3.182983e+003,-2.599396e-001
3.183947e+003,-7.177734e-003
3.184912e+003,1.676514e-001
3.185876e+003,3.741058e-001
3.186840e+003,1.312933e+000
3.187804e+003,1.817548e+000
3.188769e+003,6.038513e-002
3.189733e+003,-1.709808e+000
3.190697e+003,-2.321425e+000
3.191661e+003,-2.524434e+000
3.192625e+003,-2.627261e+000
3.193590e+003,-2.341876e+000
3.194554e+003,-1.565669e+000
3.195518e+003,-1.636372e+000
3.196482e+003,-3.870354e+000
3.197447e+003,-3.617149e+000
3.198411e+003,8.474121e-002
3.199375e+003,7.044067e-001
3.200339e+003,-1.121722e+000
3.201303e+003,-1.537048e-001
3.202268e+003,2.426446e+000
3.203232e+003,2.589838e+000
3.204196e+003,1.029117e+000
3.205160e+003,1.134796e-001
3.206125e+003,-2.329712e-002
3.207089e+003,1.051975e+000
3.208053e+003,2.172949e+000
3.209017e+003,7.119812e-001
3.209982e+003,-8.414520e-001
3.210946e+003,-2.837830e-002
3.211910e+003,7.017120e-001
3.212874e+003,3.412445e-001
3.213839e+003,4.917969e-001
3.214803e+003,1.556207e+000
3.215767e+003,1.583893e+000
3.216731e+003,-7.431946e-002
3.217696e+003,-1.585957e+000
3.218660e+003,-2.405414e+000
3.219624e+003,-2.456145e+000
3.220588e+003,-1.718895e+000
3.221552e+003,-1.546451e+000
3.222517e+003,-1.716467e+000
3.223481e+003,-1.431708e+000
3.224445e+003,-1.071638e+000
3.225409e+003,-1.427135e+000
3.226374e+003,-2.042694e+000
3.227338e+003,-2.501190e+000
3.228302e+003,-2.270819e+000
3.229266e+003,-4.178009e-001
3.230230e+003,1.166800e+000
3.231195e+003,-8.013306e-002
3.232159e+003,-1.402252e+000
3.233123e+003,-1.945291e+000
3.234087e+003,-1.202556e+000
3.235052e+003,9.366272e-001
3.236016e+003,1.296289e+000
3.236980e+003,-4.059479e-001
3.237944e+003,-1.705756e+000
3.238909e+003,-1.950359e+000
3.239873e+003,-1.455992e+000
3.240837e+003,-5.253555e-001
3.241801e+003,-1.133182e+000
3.242766e+003,-2.640479e+000
3.243730e+003,-2.126170e+000
3.244694e+003,-1.037883e+000
3.245658e+003,-1.452301e+000
3.246623e+003,-2.504962e+000
3.247587e+003,-3.633322e+000
3.248551e+003,-4.036815e+000
3.249515e+003,-3.194566e+000
3.250479e+003,-1.953540e+000
3.251444e+003,-8.119339e-001
3.252408e+003,-5.225815e-001
3.253372e+003,-2.312822e+000
3.254336e+003,-3.294930e+000
3.255301e+003,-3.284599e+000
3.256265e+003,-2.703656e+000
3.257229e+003,-1.810889e+000
3.258193e+003,-1.427664e+000
3.259157e+003,-1.479961e+000
3.260122e+003,-1.664893e+000
3.261086e+003,-1.491721e+000
3.262050e+003,1.700027e-001
3.263014e+003,1.964008e+000
3.263979e+003,1.566147e-001
3.264943e+003,-2.473486e+000
3.265907e+003,-2.500044e+000
3.266871e+003,-2.106719e+000
3.267836e+003,-2.768307e+000
3.268800e+003,-2.295213e+000
3.269764e+003,-8.493805e-002
3.270728e+003,6.130676e-001
3.271693e+003,-1.113689e+000
3.272657e+003,-2.138466e+000
3.273621e+003,-1.347180e+000
3.274585e+003,-7.919052e-001
3.275550e+003,-5.851776e-001
3.276514e+003,-3.846558e-001
3.277478e+003,-1.164505e-001
3.278442e+003,6.769562e-001
3.279406e+003,1.423944e+000
3.280371e+003,1.078354e+000
3.281335e+003,4.590683e-001
3.282299e+003,3.216492e-001
3.283263e+003,2.655899e-001
3.284228e+003,-1.128098e-001
3.285192e+003,-3.439697e-001
3.286156e+003,5.593109e-002
3.287120e+003,5.432831e-001
3.288084e+003,1.036105e+000
3.289049e+003,1.411893e+000
3.290013e+003,1.629996e+000
3.290977e+003,1.234341e+000
3.291941e+003,4.774124e-001
3.292906e+003,2.813019e-001
3.293870e+003,6.829117e-001
3.294834e+003,1.356439e+000
3.295798e+003,1.859131e+000
3.296763e+003,4.976395e-001
3.297727e+003,-1.140704e+000
3.298691e+003,1.530701e-001
3.299655e+003,1.673117e+000
3.300620e+003,1.072234e+000
3.301584e+003,6.751267e-001
3.302548e+003,1.136591e+000
3.303512e+003,1.378459e+000
3.304477e+003,1.137555e+000
3.305441e+003,1.903458e+000
3.306405e+003,4.219684e+000
3.307369e+003,4.410986e+000
3.308333e+003,2.190610e+000
3.309298e+003,2.813452e+000
3.310262e+003,5.007514e+000
3.311226e+003,4.838858e+000
3.312190e+003,3.614002e+000
3.313155e+003,3.466782e+000
3.314119e+003,3.240649e+000
3.315083e+003,1.750557e+000
3.316047e+003,1.165193e+000
3.317011e+003,3.399396e+000
3.317976e+003,5.333411e+000
3.318940e+003,4.020032e+000
3.319904e+003,3.458710e+000
3.320868e+003,4.594620e+000
3.321833e+003,4.757141e+000
3.322797e+003,4.049533e+000
3.323761e+003,4.589752e+000
3.324725e+003,5.796201e+000
3.325690e+003,5.402814e+000
3.326654e+003,3.780725e+000
3.327618e+003,2.162320e+000
3.328582e+003,1.109508e+000
3.329547e+003,2.082916e+000
3.330511e+003,3.598029e+000
3.331475e+003,4.030740e+000
3.332439e+003,4.235388e+000
3.333404e+003,4.776346e+000
3.334368e+003,4.172562e+000
3.335332e+003,2.309808e+000
3.336296e+003,1.916403e+000
3.337260e+003,3.244824e+000
3.338225e+003,2.990155e+000
3.339189e+003,7.718841e-001
3.340153e+003,6.797196e-001
3.341117e+003,2.241013e+000
3.342082e+003,3.131921e+000
3.343046e+003,3.377600e+000
3.344010e+003,2.659241e+000
3.344974e+003,1.843619e+000
3.345938e+003,1.461403e+000
3.346903e+003,1.548799e+000
3.347867e+003,2.110471e+000
3.348831e+003,2.973895e+000
3.349795e+003,4.072156e+000
3.350760e+003,3.697723e+000
3.351724e+003,3.153564e-001
3.352688e+003,-6.914719e-001
3.353652e+003,4.413803e-001
3.354617e+003,1.408482e+000
3.355581e+003,2.094997e+000
3.356545e+003,2.460440e+000
3.357509e+003,2.787288e+000
3.358474e+003,3.608499e+000
3.359438e+003,3.965152e+000
3.360402e+003,2.826465e+000
3.361366e+003,2.094809e+000
3.362331e+003,4.188617e+000
3.363295e+003,5.552060e+000
3.364259e+003,4.525226e+000
3.365223e+003,3.741626e+000
3.366188e+003,3.369653e+000
3.367152e+003,2.516324e+000
3.368116e+003,1.389229e+000
3.369080e+003,1.077251e+000
3.370044e+003,1.290895e+000
3.371009e+003,8.721695e-001
3.371973e+003,4.165009e-001
3.372937e+003,1.286752e+000
3.373901e+003,2.279187e+000
3.374865e+003,1.590247e+000
3.375830e+003,1.106641e+000
3.376794e+003,1.720192e+000
3.377758e+003,2.052331e+000
3.378722e+003,1.867761e+000
3.379687e+003,1.717949e+000
3.380651e+003,1.883757e+000
3.381615e+003,3.148613e+000
3.382579e+003,5.117651e+000
3.383544e+003,4.945554e+000
3.384508e+003,3.368547e+000
3.385472e+003,2.976636e+000
3.386436e+003,2.886978e+000
3.387401e+003,1.521779e+000
3.388365e+003,8.657700e-001
3.389329e+003,1.972859e+000
3.390293e+003,3.103479e+000
3.391258e+003,3.557176e+000
3.392222e+003,3.771495e+000
3.393186e+003,3.948962e+000
3.394150e+003,5.041727e+000
3.395115e+003,7.120636e+000
3.396079e+003,8.089755e+000
3.397043e+003,8.233020e+000
3.398007e+003,7.847647e+000
3.398971e+003,7.923666e+000
3.399936e+003,1.069731e+001
3.400900e+003,1.275089e+001
3.401864e+003,1.188358e+001
3.402828e+003,1.125051e+001
3.403792e+003,1.307362e+001
3.404757e+003,1.382232e+001
3.405721e+003,1.054333e+001
3.406685e+003,9.286875e+000
3.407649e+003,1.024419e+001
3.408614e+003,1.270741e+001
3.409578e+003,1.568231e+001
3.410542e+003,1.676923e+001
3.411506e+003,1.672569e+001
3.412471e+003,1.674921e+001
3.413435e+003,1.742672e+001
3.414399e+003,1.939989e+001
3.415363e+003,2.135534e+001
3.416328e+003,2.186753e+001
3.417292e+003,2.228955e+001
3.418256e+003,2.308947e+001
3.419220e+003,2.399809e+001
3.420185e+003,2.482372e+001
3.421149e+003,2.339131e+001
3.422113e+003,2.097777e+001
3.423077e+003,2.185550e+001
3.424042e+003,2.457085e+001
3.425006e+003,2.601133e+001
3.425970e+003,2.604419e+001
3.426934e+003,2.390309e+001
