7.140112e+001,9.291960e+001
7.236536e+001,9.191412e+001
7.332959e+001,9.318462e+001
7.429382e+001,9.462901e+001
7.525806e+001,9.685243e+001
7.622229e+001,9.633476e+001
7.718652e+001,9.012668e+001
7.815076e+001,7.483500e+001
7.911499e+001,6.470012e+001
8.007922e+001,5.737248e+001
8.104346e+001,5.462363e+001
8.200769e+001,5.893433e+001
8.297192e+001,7.693785e+001
8.393616e+001,9.356898e+001
8.490039e+001,1.078537e+002
8.586462e+001,1.179158e+002
8.682886e+001,1.212381e+002
8.779310e+001,1.088854e+002
8.875733e+001,9.166273e+001
8.972157e+001,7.476208e+001
9.068580e+001,6.041557e+001
9.165003e+001,4.899038e+001
9.261427e+001,4.429652e+001
9.357850e+001,4.419355e+001
9.454273e+001,4.599210e+001
9.550697e+001,4.816712e+001
9.647120e+001,5.164205e+001
9.743543e+001,5.178613e+001
9.839967e+001,4.693018e+001
9.936390e+001,4.018566e+001
1.003281e+002,3.518313e+001
1.012924e+002,3.334064e+001
1.022566e+002,3.203538e+001
1.032208e+002,3.096265e+001
1.041851e+002,3.020075e+001
1.051493e+002,3.001230e+001
1.061135e+002,3.196706e+001
1.070778e+002,3.352678e+001
1.080420e+002,3.340302e+001
1.090062e+002,3.128275e+001
1.099705e+002,2.790768e+001
1.109347e+002,2.408959e+001
1.118989e+002,2.043915e+001
1.128632e+002,1.862411e+001
1.138274e+002,1.989680e+001
1.147916e+002,2.495162e+001
1.157559e+002,2.784159e+001
1.167201e+002,2.822194e+001
1.176843e+002,2.752901e+001
1.186486e+002,2.751331e+001
1.196128e+002,2.895441e+001
1.205770e+002,2.987250e+001
1.215413e+002,3.067528e+001
1.225055e+002,3.091547e+001
1.234697e+002,2.968964e+001
1.244340e+002,2.438658e+001
1.253982e+002,1.889810e+001
1.263624e+002,1.345883e+001
1.273267e+002,8.716187e+000
1.282909e+002,5.984283e+000
1.292551e+002,1.093703e+001
1.302194e+002,1.841827e+001
1.311836e+002,2.399871e+001
1.321478e+002,2.483436e+001
1.331121e+002,2.075847e+001
1.340763e+002,1.631210e+001
1.350405e+002,1.122014e+001
1.360048e+002,7.017297e+000
1.369690e+002,5.353461e+000
1.379332e+002,7.801520e+000
1.388975e+002,1.104212e+001
1.398617e+002,1.617059e+001
1.408259e+002,2.159987e+001
1.417902e+002,2.487000e+001
1.427544e+002,2.382249e+001
1.437186e+002,2.145036e+001
1.446829e+002,1.773845e+001
1.456471e+002,1.324339e+001
1.466113e+002,8.958435e+000
1.475756e+002,4.796472e+000
1.485398e+002,2.462292e+000
1.495040e+002,5.072180e+000
1.504683e+002,1.317857e+001
1.514325e+002,2.468936e+001
1.523967e+002,2.682576e+001
1.533610e+002,2.180770e+001
1.543252e+002,1.543491e+001
1.552894e+002,1.185101e+001
1.562537e+002,1.234697e+001
1.572179e+002,1.174945e+001
1.581821e+002,8.317273e+000
1.591464e+002,5.066974e+000
1.601106e+002,5.651202e+000
1.610748e+002,1.522207e+001
1.620391e+002,2.091710e+001
1.630033e+002,1.780396e+001
1.639676e+002,9.696930e+000
1.649318e+002,2.593512e+000
1.658960e+002,3.252795e+000
1.668603e+002,6.040863e+000
1.678245e+002,7.519684e+000
1.687887e+002,7.318377e+000
1.697530e+002,6.249225e+000
1.707172e+002,6.398145e+000
1.716814e+002,7.315887e+000
1.726457e+002,8.081592e+000
1.736099e+002,8.377960e+000
1.745741e+002,8.198871e+000
1.755384e+002,7.192407e+000
1.765026e+002,4.499817e+000
1.774668e+002,2.142188e+000
1.784311e+002,1.485937e+000
1.793953e+002,3.461829e+000
1.803595e+002,4.455310e+000
1.813238e+002,2.890259e+000
1.822880e+002,8.364075e-001
1.832522e+002,2.340698e-001
1.842165e+002,3.088458e+000
1.851807e+002,5.430402e+000
1.861449e+002,3.620990e+000
1.871092e+002,-3.340637e-001
1.880734e+002,-3.770660e+000
1.890376e+002,-2.838684e+000
1.900019e+002,1.108722e+000
1.909661e+002,3.857550e+000
1.919303e+002,5.115753e+000
1.928946e+002,5.201483e+000
1.938588e+002,5.006714e+000
1.948230e+002,3.748737e+000
1.957873e+002,4.017639e+000
1.967515e+002,6.449420e+000
1.977157e+002,1.105832e+001
1.986800e+002,1.683386e+001
1.996442e+002,2.275211e+001
2.006084e+002,3.028869e+001
2.015727e+002,4.274836e+001
2.025369e+002,6.084293e+001
2.035011e+002,7.350836e+001
2.044654e+002,7.075233e+001
2.054296e+002,6.187925e+001
2.063938e+002,5.044542e+001
2.073581e+002,3.898420e+001
2.083223e+002,2.949916e+001
2.092865e+002,2.583215e+001
2.102508e+002,2.676480e+001
2.112150e+002,3.176008e+001
2.121792e+002,4.043296e+001
2.131435e+002,5.438689e+001
2.141077e+002,6.135370e+001
2.150719e+002,5.883358e+001
2.160362e+002,5.183867e+001
2.170004e+002,4.765043e+001
2.179646e+002,4.792218e+001
2.189289e+002,4.936791e+001
2.198931e+002,5.056351e+001
2.208573e+002,5.258410e+001
2.218216e+002,5.774297e+001
2.227858e+002,7.147450e+001
2.237500e+002,8.483388e+001
2.247143e+002,9.747784e+001
2.256785e+002,1.071788e+002
2.266427e+002,1.101474e+002
2.276070e+002,9.288596e+001
2.285712e+002,6.630209e+001
2.295354e+002,4.432963e+001
2.304997e+002,3.104770e+001
2.314639e+002,2.531866e+001
2.324281e+002,2.006581e+001
2.333924e+002,1.524822e+001
2.343566e+002,1.103926e+001
2.353208e+002,7.484992e+000
2.362851e+002,4.590094e+000
2.372493e+002,2.404804e+000
2.382135e+002,1.211743e+000
2.391778e+002,2.192017e-001
2.401420e+002,-1.038300e+000
2.411062e+002,-2.792999e+000
2.420705e+002,-4.157892e+000
2.430347e+002,-4.372321e+000
2.439989e+002,-4.273950e+000
2.449632e+002,-4.527802e+000
2.459274e+002,-5.655273e+000
2.468916e+002,-7.045868e+000
2.478559e+002,-7.293256e+000
2.488201e+002,-6.800482e+000
2.497843e+002,-6.445978e+000
2.507486e+002,-7.285113e+000
2.517128e+002,-9.745173e+000
2.526770e+002,-9.983801e+000
2.536413e+002,-7.240161e+000
2.546055e+002,-3.155170e+000
2.555697e+002,-2.006409e-001
2.565340e+002,1.441479e+000
2.574982e+002,1.813892e+000
2.584625e+002,3.901245e-001
2.594267e+002,-1.997070e+000
2.603909e+002,-4.055987e+000
2.613552e+002,-5.168591e+000
2.623194e+002,-5.774493e+000
2.632836e+002,-5.903436e+000
2.642479e+002,-5.662726e+000
2.652121e+002,-5.160516e+000
2.661763e+002,-4.243201e+000
2.671406e+002,-3.421790e+000
2.681048e+002,-3.875159e+000
2.690690e+002,-5.710736e+000
2.700333e+002,-8.181616e+000
2.709975e+002,-7.990881e+000
2.719617e+002,-3.993976e+000
2.729260e+002,-1.148407e+000
2.738902e+002,-1.037848e+000
2.748544e+002,-3.629047e+000
2.758187e+002,-5.540253e+000
2.767829e+002,-6.315216e+000
2.777471e+002,-6.853253e+000
2.787114e+002,-7.161316e+000
2.796756e+002,-7.258081e+000
2.806398e+002,-7.538526e+000
2.816041e+002,-9.064410e+000
2.825683e+002,-1.045072e+001
2.835325e+002,-1.069689e+001
2.844968e+002,-9.457965e+000
2.854610e+002,-7.574914e+000
2.864252e+002,-7.297327e+000
2.873895e+002,-7.854901e+000
2.883537e+002,-7.981378e+000
2.893179e+002,-6.842517e+000
2.902822e+002,-4.280646e+000
2.912464e+002,-3.542981e+000
2.922106e+002,-4.685577e+000
2.931749e+002,-6.680579e+000
2.941391e+002,-9.312616e+000
2.951033e+002,-1.335970e+001
2.960676e+002,-1.553353e+001
2.970318e+002,-1.509790e+001
2.979960e+002,-1.351205e+001
2.989603e+002,-1.155436e+001
2.999245e+002,-9.432660e+000
3.008887e+002,-7.684613e+000
3.018530e+002,-6.597656e+000
3.028172e+002,-5.954590e+000
3.037814e+002,-5.630567e+000
3.047457e+002,-5.525293e+000
3.057099e+002,-5.509503e+000
3.066741e+002,-4.942963e+000
3.076384e+002,-4.073071e+000
3.086026e+002,-3.923877e+000
3.095668e+002,-5.722321e+000
3.105311e+002,-1.056508e+001
3.114953e+002,-1.289893e+001
3.124595e+002,-1.138775e+001
3.134238e+002,-8.561383e+000
3.143880e+002,-7.486926e+000
3.153522e+002,-9.853900e+000
3.163165e+002,-1.136552e+001
3.172807e+002,-1.145969e+001
3.182449e+002,-1.028008e+001
3.192092e+002,-7.756915e+000
3.201734e+002,-3.050354e+000
3.211376e+002,1.222089e+000
3.221019e+002,3.288983e+000
3.230661e+002,3.648358e+000
3.240303e+002,2.973401e+000
3.249946e+002,1.931610e+000
3.259588e+002,6.047668e-001
3.269230e+002,-2.888001e-001
3.278873e+002,-7.375610e-001
3.288515e+002,-9.852112e-001
3.298157e+002,-1.464123e+000
3.307800e+002,-2.586816e+000
3.317442e+002,-2.890210e+000
3.327084e+002,-2.606024e+000
3.336727e+002,-1.621845e+000
3.346369e+002,5.720276e-001
3.356011e+002,6.600287e+000
3.365654e+002,1.011839e+001
3.375296e+002,7.688739e+000
3.384938e+002,2.280627e+000
3.394581e+002,-1.480029e+000
3.404223e+002,9.250854e-001
3.413865e+002,6.037225e+000
3.423508e+002,1.073411e+001
3.433150e+002,1.492734e+001
3.442792e+002,1.884609e+001
3.452435e+002,2.269808e+001
3.462077e+002,2.673132e+001
3.471719e+002,3.267937e+001
3.481362e+002,4.049207e+001
3.491004e+002,5.033093e+001
3.500646e+002,6.255506e+001
3.510289e+002,7.417303e+001
3.519931e+002,9.403593e+001
3.529573e+002,1.238094e+002
3.539216e+002,1.613413e+002
3.548858e+002,2.049942e+002
3.558500e+002,2.706072e+002
3.568143e+002,3.176970e+002
3.577785e+002,3.326817e+002
3.587427e+002,3.203860e+002
3.597070e+002,2.889395e+002
3.606712e+002,2.381540e+002
3.616354e+002,1.818663e+002
3.625997e+002,1.369566e+002
3.635639e+002,1.041315e+002
3.645281e+002,8.112642e+001
3.654924e+002,6.391740e+001
3.664566e+002,5.414602e+001
3.674208e+002,4.576556e+001
3.683851e+002,3.917873e+001
3.693493e+002,3.375459e+001
3.703135e+002,2.815505e+001
3.712778e+002,2.133306e+001
3.722420e+002,1.632494e+001
3.732062e+002,1.394236e+001
3.741705e+002,1.326573e+001
3.751347e+002,1.291101e+001
3.760989e+002,1.221507e+001
3.770632e+002,1.174586e+001
3.780274e+002,1.197488e+001
3.789916e+002,1.248027e+001
3.799559e+002,1.254872e+001
3.809201e+002,1.122447e+001
3.818844e+002,9.371961e+000
3.828486e+002,9.470465e+000
3.838128e+002,1.134553e+001
3.847771e+002,1.351124e+001
3.857413e+002,1.370153e+001
3.867055e+002,1.066738e+001
3.876698e+002,9.025396e+000
3.886340e+002,8.980749e+000
3.895982e+002,9.989990e+000
3.905625e+002,1.152076e+001
3.915267e+002,1.432478e+001
3.924909e+002,1.628275e+001
3.934552e+002,1.684900e+001
3.944194e+002,1.661575e+001
3.953836e+002,1.620380e+001
3.963479e+002,1.596161e+001
3.973121e+002,1.556387e+001
3.982763e+002,1.449675e+001
3.992406e+002,1.324364e+001
4.002048e+002,1.242180e+001
4.011690e+002,1.260563e+001
4.021333e+002,1.373597e+001
4.030975e+002,1.503912e+001
4.040617e+002,1.653552e+001
4.050260e+002,1.816160e+001
4.059902e+002,1.969000e+001
4.069544e+002,2.052457e+001
4.079187e+002,2.322999e+001
4.088829e+002,2.885438e+001
4.098471e+002,3.497285e+001
4.108114e+002,3.895617e+001
4.117756e+002,3.898317e+001
4.127398e+002,4.268928e+001
4.137041e+002,5.779527e+001
4.146683e+002,7.378473e+001
4.156325e+002,8.283575e+001
4.165968e+002,8.085271e+001
4.175610e+002,7.273112e+001
4.185252e+002,6.546730e+001
4.194895e+002,5.889115e+001
4.204537e+002,5.257259e+001
4.214179e+002,4.632045e+001
4.223822e+002,4.031080e+001
4.233464e+002,3.817026e+001
4.243106e+002,3.979736e+001
4.252749e+002,4.233727e+001
4.262391e+002,4.401160e+001
4.272033e+002,4.457844e+001
4.281676e+002,4.832642e+001
4.291318e+002,5.483933e+001
4.300960e+002,6.485658e+001
4.310603e+002,7.890516e+001
4.320245e+002,9.681158e+001
4.329887e+002,1.178658e+002
4.339530e+002,1.430319e+002
4.349172e+002,1.703911e+002
4.358814e+002,2.031417e+002
4.368457e+002,2.392618e+002
4.378099e+002,2.722603e+002
4.387741e+002,2.889610e+002
4.397384e+002,2.907616e+002
4.407026e+002,2.801434e+002
4.416668e+002,2.563278e+002
4.426311e+002,2.236192e+002
4.435953e+002,1.964972e+002
4.445595e+002,1.777702e+002
4.455238e+002,1.621675e+002
4.464880e+002,1.502439e+002
4.474522e+002,1.413076e+002
4.484165e+002,1.343118e+002
4.493807e+002,1.314818e+002
4.503449e+002,1.275554e+002
4.513092e+002,1.208833e+002
4.522734e+002,1.120283e+002
4.532376e+002,1.016538e+002
4.542019e+002,8.969603e+001
4.551661e+002,7.797116e+001
4.561303e+002,6.863931e+001
4.570946e+002,6.130750e+001
4.580588e+002,5.488586e+001
4.590230e+002,4.812589e+001
4.599873e+002,4.112843e+001
4.609515e+002,3.744764e+001
4.619157e+002,3.737548e+001
4.628800e+002,3.898694e+001
4.638442e+002,4.066644e+001
4.648084e+002,4.228527e+001
4.657727e+002,4.444959e+001
4.667369e+002,4.672756e+001
4.677011e+002,4.989935e+001
4.686654e+002,5.534761e+001
4.696296e+002,6.360542e+001
4.705938e+002,7.007351e+001
4.715581e+002,7.136845e+001
4.725223e+002,6.960584e+001
4.734865e+002,6.512992e+001
4.744508e+002,5.854098e+001
4.754150e+002,5.095416e+001
4.763792e+002,4.468460e+001
4.773435e+002,3.956925e+001
4.783077e+002,3.599612e+001
4.792719e+002,3.431203e+001
4.802362e+002,3.412061e+001
4.812004e+002,3.307452e+001
4.821646e+002,3.030981e+001
4.831289e+002,2.756599e+001
4.840931e+002,2.478426e+001
4.850573e+002,2.202700e+001
4.860216e+002,1.950074e+001
4.869858e+002,1.753707e+001
4.879500e+002,1.595367e+001
4.889143e+002,1.453516e+001
4.898785e+002,1.339001e+001
4.908427e+002,1.280022e+001
4.918070e+002,1.316605e+001
4.927712e+002,1.377556e+001
4.937354e+002,1.347265e+001
4.946997e+002,1.251540e+001
4.956639e+002,1.138944e+001
4.966281e+002,1.055450e+001
4.975924e+002,1.003372e+001
4.985566e+002,1.101002e+001
4.995208e+002,1.386434e+001
5.004851e+002,1.709822e+001
5.014493e+002,1.945425e+001
5.024135e+002,2.051858e+001
5.033778e+002,2.287587e+001
5.043420e+002,2.824801e+001
5.053063e+002,3.364927e+001
5.062705e+002,3.805505e+001
5.072347e+002,4.104170e+001
5.081990e+002,4.219200e+001
5.091632e+002,3.995878e+001
5.101274e+002,3.632637e+001
5.110917e+002,3.212199e+001
5.120559e+002,2.766794e+001
5.130201e+002,2.286630e+001
5.139844e+002,1.708223e+001
5.149486e+002,1.056584e+001
5.159128e+002,6.279187e+000
5.168771e+002,5.073706e+000
5.178413e+002,5.614429e+000
5.188055e+002,4.942438e+000
5.197698e+002,1.831958e+000
5.207340e+002,-7.522217e-001
5.216982e+002,-2.416992e+000
5.226625e+002,-3.739331e+000
5.236267e+002,-5.490997e+000
5.245909e+002,-8.239807e+000
5.255552e+002,-1.036995e+001
5.265194e+002,-1.124755e+001
5.274836e+002,-1.122194e+001
5.284479e+002,-1.029811e+001
5.294121e+002,-8.522400e+000
5.303763e+002,-6.455792e+000
5.313406e+002,-5.390967e+000
5.323048e+002,-5.096967e+000
5.332690e+002,-5.379449e+000
5.342333e+002,-6.173547e+000
5.351975e+002,-7.365900e+000
5.361617e+002,-8.130402e+000
5.371260e+002,-8.269995e+000
5.380902e+002,-8.224530e+000
5.390544e+002,-7.984741e+000
5.400187e+002,-7.667999e+000
5.409829e+002,-7.579596e+000
5.419471e+002,-8.055872e+000
5.429114e+002,-8.261182e+000
5.438756e+002,-7.763471e+000
5.448398e+002,-6.947339e+000
5.458041e+002,-6.362384e+000
5.467683e+002,-6.392962e+000
5.477325e+002,-6.822913e+000
5.486968e+002,-7.470075e+000
5.496610e+002,-8.182147e+000
5.506252e+002,-8.661346e+000
5.515895e+002,-8.663385e+000
5.525537e+002,-8.194110e+000
5.535179e+002,-7.323975e+000
5.544822e+002,-5.490399e+000
5.554464e+002,-4.491773e+000
5.564106e+002,-5.839337e+000
5.573749e+002,-9.604517e+000
5.583391e+002,-1.214230e+001
5.593033e+002,-1.142702e+001
5.602676e+002,-1.103009e+001
5.612318e+002,-1.263903e+001
5.621960e+002,-1.552279e+001
5.631603e+002,-1.714001e+001
5.641245e+002,-1.451266e+001
5.650887e+002,-1.118849e+001
5.660530e+002,-1.016973e+001
5.670172e+002,-1.099168e+001
5.679814e+002,-1.234626e+001
5.689457e+002,-1.286216e+001
5.699099e+002,-1.249829e+001
5.708741e+002,-1.144623e+001
5.718384e+002,-9.472143e+000
5.728026e+002,-7.839984e+000
5.737668e+002,-7.817792e+000
5.747311e+002,-9.891846e+000
5.756953e+002,-1.128492e+001
5.766595e+002,-1.161118e+001
5.776238e+002,-1.174029e+001
5.785880e+002,-1.193752e+001
5.795522e+002,-1.223752e+001
5.805165e+002,-1.254805e+001
5.814807e+002,-1.261773e+001
5.824449e+002,-1.282557e+001
5.834092e+002,-1.368627e+001
5.843734e+002,-1.495663e+001
5.853376e+002,-1.593184e+001
5.863019e+002,-1.566959e+001
5.872661e+002,-1.450600e+001
5.882303e+002,-1.468571e+001
5.891946e+002,-1.626427e+001
5.901588e+002,-1.758809e+001
5.911230e+002,-1.676369e+001
5.920873e+002,-1.290936e+001
5.930515e+002,-1.045670e+001
5.940157e+002,-9.246424e+000
5.949800e+002,-8.986371e+000
5.959442e+002,-1.014743e+001
5.969084e+002,-1.262170e+001
5.978727e+002,-1.435388e+001
5.988369e+002,-1.319189e+001
5.998011e+002,-1.178210e+001
6.007654e+002,-1.099024e+001
6.017296e+002,-1.094741e+001
6.026938e+002,-1.155639e+001
6.036581e+002,-1.304931e+001
6.046223e+002,-1.465665e+001
6.055865e+002,-1.399901e+001
6.065508e+002,-1.123263e+001
6.075150e+002,-8.462384e+000
6.084792e+002,-8.058612e+000
6.094435e+002,-1.072705e+001
6.104077e+002,-1.210953e+001
6.113719e+002,-1.221615e+001
6.123362e+002,-1.158848e+001
6.133004e+002,-1.012919e+001
6.142646e+002,-7.884686e+000
6.152289e+002,-6.131659e+000
6.161931e+002,-5.984283e+000
6.171573e+002,-5.953387e+000
6.181216e+002,-5.610315e+000
6.190858e+002,-4.850592e+000
6.200500e+002,-3.686279e+000
6.210143e+002,-1.996173e+000
6.219785e+002,-2.267822e-001
6.229427e+002,8.579162e-001
6.239070e+002,1.304663e+000
6.248712e+002,1.343237e+000
6.258354e+002,1.169159e+000
6.267997e+002,7.243347e-001
6.277639e+002,1.600818e+000
6.287281e+002,4.714221e+000
6.296924e+002,7.433942e+000
6.306566e+002,8.395093e+000
6.316208e+002,7.753143e+000
6.325851e+002,7.346454e+000
6.335493e+002,8.601654e+000
6.345135e+002,9.380963e+000
6.354778e+002,8.494623e+000
6.364420e+002,6.639954e+000
6.374063e+002,5.391522e+000
6.383705e+002,6.235803e+000
6.393347e+002,7.628296e+000
6.402990e+002,6.894110e+000
6.412632e+002,4.695489e+000
6.422274e+002,2.379871e+000
6.431917e+002,9.313782e-001
6.441559e+002,3.180298e-001
6.451201e+002,3.853393e-001
6.460844e+002,1.726856e+000
6.470486e+002,2.511249e+000
6.480128e+002,2.087610e+000
6.489771e+002,6.524903e-001
6.499413e+002,-1.062366e+000
6.509055e+002,-3.911249e+000
6.518698e+002,-5.680982e+000
6.528340e+002,-4.893836e+000
6.537982e+002,-3.054272e+000
6.547625e+002,-2.167535e+000
6.557267e+002,-3.489331e+000
6.566909e+002,-5.643365e+000
6.576552e+002,-6.693427e+000
6.586194e+002,-7.070837e+000
6.595836e+002,-7.339740e+000
6.605479e+002,-7.753613e+000
6.615121e+002,-8.147486e+000
6.624763e+002,-7.937524e+000
6.634406e+002,-7.094007e+000
6.644048e+002,-5.696429e+000
6.653690e+002,-2.909344e+000
6.663333e+002,1.113525e-001
6.672975e+002,1.120312e+000
6.682617e+002,-9.390869e-001
6.692260e+002,-3.087799e+000
6.701902e+002,-5.067108e+000
6.711544e+002,-6.525702e+000
6.721187e+002,-7.164239e+000
6.730829e+002,-6.923108e+000
6.740471e+002,-6.117584e+000
6.750114e+002,-4.587158e+000
6.759756e+002,-2.857904e+000
6.769398e+002,-1.454419e+000
6.779041e+002,-5.203369e-001
6.788683e+002,-2.713013e-002
6.798325e+002,7.028198e-002
6.807968e+002,-3.560425e-001
6.817610e+002,-7.732056e-001
6.827252e+002,-1.286200e+000
6.836895e+002,-1.706537e+000
6.846537e+002,-1.797571e+000
6.856179e+002,-1.481928e+000
6.865822e+002,-1.426624e+000
6.875464e+002,-2.216028e+000
6.885106e+002,-2.845081e+000
6.894749e+002,-2.761035e+000
6.904391e+002,-2.046484e+000
6.914034e+002,-1.289648e+000
6.923676e+002,-1.229095e+000
6.933318e+002,-1.043579e+000
6.942961e+002,8.435547e-001
6.952603e+002,3.888525e+000
6.962245e+002,6.178259e+000
6.971888e+002,5.891156e+000
6.981530e+002,2.929327e+000
6.991172e+002,2.306824e+000
7.000815e+002,5.081055e+000
7.010457e+002,7.478284e+000
7.020099e+002,7.800726e+000
7.029742e+002,6.592114e+000
7.039384e+002,6.334863e+000
7.049026e+002,8.356128e+000
7.058669e+002,1.015131e+001
7.068311e+002,1.052040e+001
7.077953e+002,1.045587e+001
7.087596e+002,1.152764e+001
7.097238e+002,1.469019e+001
7.106880e+002,1.807151e+001
7.116523e+002,1.845928e+001
7.126165e+002,1.702277e+001
7.135807e+002,1.503453e+001
7.145450e+002,1.305377e+001
7.155092e+002,1.133989e+001
7.164734e+002,1.052832e+001
7.174377e+002,1.117350e+001
7.184019e+002,1.164910e+001
7.193661e+002,1.248970e+001
7.203304e+002,1.274409e+001
7.212946e+002,1.096315e+001
7.222589e+002,6.399841e+000
7.232231e+002,3.074103e+000
7.241873e+002,2.586981e+000
7.251516e+002,3.257556e+000
7.261158e+002,4.892200e+000
7.270800e+002,6.943158e+000
7.280443e+002,8.416449e+000
7.290085e+002,8.181402e+000
7.299727e+002,6.782483e+000
7.309370e+002,5.515637e+000
7.319012e+002,4.390277e+000
7.328654e+002,3.188391e+000
7.338297e+002,1.666083e+000
7.347939e+002,-2.283142e-001
7.357581e+002,-1.472961e+000
7.367224e+002,-2.233130e+000
7.376866e+002,-2.305878e+000
7.386508e+002,-1.214716e+000
7.396151e+002,6.205384e-001
7.405793e+002,2.111786e+000
7.415435e+002,3.175678e+000
7.425078e+002,3.471149e+000
7.434720e+002,2.304529e+000
7.444362e+002,6.538025e-001
7.454005e+002,-5.848755e-001
7.463647e+002,-9.596618e-001
7.473289e+002,-5.715454e-001
7.482932e+002,8.087586e-001
7.492574e+002,2.858905e+000
7.502216e+002,4.861444e+000
7.511859e+002,6.682153e+000
7.521501e+002,7.916052e+000
7.531143e+002,7.782941e+000
7.540786e+002,5.486493e+000
7.550428e+002,3.852228e+000
7.560070e+002,2.422760e+000
7.569713e+002,1.869781e+000
7.579355e+002,3.287262e+000
7.588997e+002,6.448712e+000
7.598640e+002,8.597943e+000
7.608282e+002,7.424487e+000
7.617924e+002,5.589313e+000
7.627567e+002,3.644067e+000
7.637209e+002,2.218329e+000
7.646851e+002,2.366357e+000
7.656494e+002,4.988678e+000
7.666136e+002,9.188776e+000
7.675778e+002,1.138673e+001
7.685421e+002,1.192334e+001
7.695063e+002,1.210468e+001
7.704705e+002,1.244575e+001
7.714348e+002,1.287762e+001
7.723990e+002,1.312637e+001
7.733632e+002,1.318790e+001
7.743275e+002,1.291984e+001
7.752917e+002,1.158295e+001
7.762559e+002,1.049072e+001
7.772202e+002,1.115284e+001
7.781844e+002,1.394203e+001
7.791486e+002,1.664976e+001
7.801129e+002,1.725631e+001
7.810771e+002,1.696648e+001
7.820413e+002,1.590720e+001
7.830056e+002,1.458018e+001
7.839698e+002,1.407037e+001
7.849340e+002,1.567903e+001
7.858983e+002,1.929962e+001
7.868625e+002,2.182335e+001
7.878267e+002,2.332349e+001
7.887910e+002,2.389437e+001
7.897552e+002,2.293010e+001
7.907194e+002,2.077626e+001
7.916837e+002,2.016565e+001
7.926479e+002,2.303957e+001
7.936121e+002,2.520029e+001
7.945764e+002,2.527011e+001
7.955406e+002,2.449365e+001
7.965048e+002,2.425170e+001
7.974691e+002,2.513700e+001
7.984333e+002,2.675223e+001
7.993975e+002,2.881927e+001
8.003618e+002,3.106699e+001
8.013260e+002,3.328096e+001
8.022902e+002,3.541146e+001
8.032545e+002,3.746473e+001
8.042187e+002,3.947771e+001
8.051829e+002,4.145081e+001
8.061472e+002,4.363053e+001
8.071114e+002,4.598812e+001
8.080756e+002,4.841340e+001
8.090399e+002,5.054791e+001
8.100041e+002,5.260928e+001
8.109683e+002,5.592116e+001
8.119326e+002,6.150350e+001
8.128968e+002,6.760080e+001
8.138610e+002,7.383911e+001
8.148253e+002,8.004417e+001
8.157895e+002,8.582802e+001
8.167537e+002,9.108566e+001
8.177180e+002,9.637952e+001
8.186822e+002,1.030575e+002
8.196464e+002,1.106473e+002
8.206107e+002,1.186311e+002
8.215749e+002,1.269798e+002
8.225391e+002,1.342738e+002
8.235034e+002,1.383060e+002
8.244676e+002,1.386539e+002
8.254318e+002,1.363308e+002
8.263961e+002,1.309691e+002
8.273603e+002,1.246161e+002
8.283245e+002,1.170598e+002
8.292888e+002,1.089800e+002
8.302530e+002,1.028890e+002
8.312172e+002,1.013891e+002
8.321815e+002,9.985884e+001
8.331457e+002,9.468851e+001
8.341099e+002,8.790466e+001
8.350742e+002,8.206474e+001
8.360384e+002,7.846260e+001
8.370026e+002,7.634921e+001
8.379669e+002,7.414005e+001
8.389311e+002,7.178922e+001
8.398953e+002,6.882873e+001
8.408596e+002,6.484612e+001
8.418238e+002,6.073003e+001
8.427880e+002,5.775206e+001
8.437523e+002,5.628186e+001
8.447165e+002,5.411370e+001
8.456807e+002,4.980979e+001
8.466450e+002,4.609698e+001
8.476092e+002,4.450574e+001
8.485734e+002,4.411526e+001
8.495377e+002,4.275629e+001
8.505019e+002,3.894228e+001
8.514661e+002,3.481824e+001
8.524304e+002,3.307400e+001
8.533946e+002,3.298173e+001
8.543588e+002,3.392466e+001
8.553231e+002,3.558986e+001
8.562873e+002,3.749284e+001
8.572515e+002,3.858033e+001
8.582158e+002,3.866666e+001
8.591800e+002,3.820179e+001
8.601442e+002,3.650791e+001
8.611085e+002,3.486765e+001
8.620727e+002,3.440686e+001
8.630369e+002,3.507270e+001
8.640012e+002,3.531948e+001
8.649654e+002,3.414072e+001
8.659296e+002,3.291186e+001
8.668939e+002,3.202322e+001
8.678581e+002,3.155007e+001
8.688223e+002,3.166870e+001
8.697866e+002,3.241711e+001
8.707508e+002,3.335789e+001
8.717150e+002,3.351880e+001
8.726793e+002,3.303931e+001
8.736435e+002,3.262097e+001
8.746077e+002,3.240392e+001
8.755720e+002,3.223763e+001
8.765362e+002,3.204418e+001
8.775004e+002,3.200365e+001
8.784647e+002,3.112787e+001
8.794289e+002,2.865964e+001
8.803931e+002,2.622075e+001
8.813574e+002,2.408226e+001
8.823216e+002,2.236499e+001
8.832858e+002,2.130875e+001
8.842501e+002,2.122153e+001
8.852143e+002,2.132952e+001
8.861785e+002,2.084661e+001
8.871428e+002,1.993994e+001
8.881070e+002,1.878868e+001
8.890712e+002,1.745377e+001
8.900355e+002,1.583069e+001
8.909997e+002,1.372219e+001
8.919639e+002,1.098781e+001
8.929282e+002,9.317957e+000
8.938924e+002,9.356256e+000
8.948566e+002,9.408801e+000
8.958209e+002,8.196039e+000
8.967851e+002,6.207672e+000
8.977493e+002,5.697577e+000
8.987136e+002,8.412951e+000
8.996778e+002,1.037733e+001
9.006420e+002,9.811407e+000
9.016063e+002,8.161731e+000
9.025705e+002,6.727460e+000
9.035347e+002,5.928424e+000
9.044990e+002,5.228168e+000
9.054632e+002,3.732849e+000
9.064274e+002,1.794244e+000
9.073917e+002,1.159863e+000
9.083559e+002,1.954382e+000
9.093201e+002,2.710797e+000
9.102844e+002,2.252057e+000
9.112486e+002,6.302978e-001
9.122128e+002,-9.765747e-001
9.131771e+002,-3.275983e+000
9.141413e+002,-4.500586e+000
9.151055e+002,-3.365009e+000
9.160698e+002,-1.796960e+000
9.170340e+002,-2.048779e+000
9.179982e+002,-4.555627e+000
9.189625e+002,-6.855981e+000
9.199267e+002,-6.469068e+000
9.208909e+002,-5.174890e+000
9.218552e+002,-4.390973e+000
9.228194e+002,-4.254755e+000
9.237836e+002,-4.903485e+000
9.247479e+002,-6.471393e+000
9.257121e+002,-8.543579e+000
9.266763e+002,-8.549085e+000
9.276406e+002,-4.930255e+000
9.286048e+002,-2.786231e+000
9.295690e+002,-3.169458e+000
9.305333e+002,-4.860944e+000
9.314975e+002,-6.840979e+000
9.324617e+002,-9.133283e+000
9.334260e+002,-1.069008e+001
9.343902e+002,-1.059554e+001
9.353545e+002,-1.000896e+001
9.363187e+002,-9.147425e+000
9.372830e+002,-8.203094e+000
9.382472e+002,-7.240759e+000
9.392114e+002,-6.296069e+000
9.401757e+002,-5.624084e+000
9.411399e+002,-6.368335e+000
9.421041e+002,-8.266675e+000
9.430684e+002,-8.955816e+000
9.440326e+002,-7.649737e+000
9.449968e+002,-5.861371e+000
9.459611e+002,-5.697363e+000
9.469253e+002,-7.526624e+000
9.478895e+002,-8.142218e+000
9.488538e+002,-5.966095e+000
9.498180e+002,-4.158136e+000
9.507822e+002,-3.857623e+000
9.517465e+002,-4.398150e+000
9.527107e+002,-4.630890e+000
9.536749e+002,-4.066016e+000
9.546392e+002,-3.427844e+000
9.556034e+002,-4.067267e+000
9.565676e+002,-5.043573e+000
9.575319e+002,-4.994256e+000
9.584961e+002,-3.793518e+000
9.594603e+002,-2.217169e+000
9.604246e+002,-1.116119e+000
9.613888e+002,-5.185425e-001
9.623530e+002,4.636413e-001
9.633173e+002,1.568707e+000
9.642815e+002,3.375183e+000
9.652457e+002,5.792670e+000
9.662100e+002,9.158106e+000
9.671742e+002,1.351142e+001
9.681384e+002,1.876569e+001
9.691027e+002,2.614412e+001
9.700669e+002,3.702424e+001
9.710311e+002,5.010675e+001
9.719954e+002,6.867963e+001
9.729596e+002,8.870365e+001
9.739238e+002,1.018058e+002
9.748881e+002,1.023239e+002
9.758523e+002,9.273918e+001
9.768165e+002,8.038100e+001
9.777808e+002,6.431409e+001
9.787450e+002,5.086620e+001
9.797092e+002,4.097168e+001
9.806735e+002,3.368856e+001
9.816377e+002,2.847806e+001
9.826019e+002,2.538422e+001
9.835662e+002,2.326577e+001
9.845304e+002,2.278371e+001
9.854946e+002,2.225424e+001
9.864589e+002,2.101681e+001
9.874231e+002,1.946002e+001
9.883873e+002,1.774691e+001
9.893516e+002,1.606198e+001
9.903158e+002,1.517140e+001
9.912800e+002,1.652248e+001
9.922443e+002,1.974780e+001
9.932085e+002,2.203772e+001
9.941727e+002,2.317477e+001
9.951370e+002,2.522662e+001
9.961012e+002,2.921370e+001
9.970654e+002,3.508920e+001
9.980297e+002,4.339227e+001
9.989939e+002,5.146804e+001
9.999581e+002,6.767407e+001
1.000922e+003,8.830654e+001
1.001887e+003,1.202172e+002
1.002851e+003,1.733430e+002
1.003815e+003,2.444844e+002
1.004779e+003,3.214999e+002
1.005744e+003,4.078950e+002
1.006708e+003,4.720960e+002
1.007672e+003,4.632259e+002
1.008636e+003,4.023123e+002
1.009600e+003,3.305736e+002
1.010565e+003,2.652115e+002
1.011529e+003,2.070515e+002
1.012493e+003,1.587515e+002
1.013457e+003,1.214226e+002
1.014422e+003,9.334987e+001
1.015386e+003,7.697442e+001
1.016350e+003,6.425092e+001
1.017314e+003,5.253126e+001
1.018279e+003,4.203681e+001
1.019243e+003,3.384074e+001
1.020207e+003,2.848314e+001
1.021171e+003,2.477187e+001
1.022135e+003,2.266364e+001
1.023100e+003,2.111757e+001
1.024064e+003,1.920842e+001
1.025028e+003,1.686713e+001
1.025992e+003,1.462951e+001
1.026957e+003,1.300129e+001
1.027921e+003,1.188889e+001
1.028885e+003,1.032987e+001
1.029849e+003,7.938947e+000
1.030814e+003,5.981225e+000
1.031778e+003,4.412195e+000
1.032742e+003,3.296619e+000
1.033706e+003,2.903802e+000
1.034671e+003,3.270123e+000
1.035635e+003,3.761121e+000
1.036599e+003,4.792090e+000
1.037563e+003,4.958850e+000
1.038527e+003,2.269623e+000
1.039492e+003,-1.139716e+000
1.040456e+003,-2.158881e+000
1.041420e+003,1.094482e-001
1.042384e+003,3.433728e+000
1.043349e+003,4.509094e+000
1.044313e+003,3.318366e+000
1.045277e+003,2.765869e+000
1.046241e+003,3.018506e+000
1.047206e+003,3.285803e+000
1.048170e+003,3.155493e+000
1.049134e+003,2.794446e+000
1.050098e+003,2.523218e+000
1.051063e+003,2.236914e+000
1.052027e+003,2.641742e+000
1.052991e+003,4.935492e+000
1.053955e+003,6.853040e+000
1.054919e+003,7.097205e+000
1.055884e+003,5.903314e+000
1.056848e+003,3.859216e+000
1.057812e+003,1.363708e+000
1.058776e+003,-8.159240e-001
1.059741e+003,-8.833863e-001
1.060705e+003,8.357056e-001
1.061669e+003,2.128241e+000
1.062633e+003,2.658655e+000
1.063598e+003,2.869305e+000
1.064562e+003,3.264001e+000
1.065526e+003,3.852893e+000
1.066490e+003,4.042499e+000
1.067454e+003,3.615479e+000
1.068419e+003,2.981225e+000
1.069383e+003,1.512244e+000
1.070347e+003,3.369263e-001
1.071311e+003,7.725830e-001
1.072276e+003,2.597558e+000
1.073240e+003,4.230878e+000
1.074204e+003,4.429779e+000
1.075168e+003,3.805438e+000
1.076133e+003,3.666309e+000
1.077097e+003,3.912305e+000
1.078061e+003,4.368701e+000
1.079025e+003,5.102631e+000
1.079990e+003,5.660407e+000
1.080954e+003,5.091010e+000
1.081918e+003,3.049213e+000
1.082882e+003,2.325055e+000
1.083846e+003,4.878851e+000
1.084811e+003,6.556623e+000
1.085775e+003,5.883405e+000
1.086739e+003,4.336786e+000
1.087703e+003,3.478882e+000
1.088668e+003,3.709961e+000
1.089632e+003,4.430041e+000
1.090596e+003,5.243555e+000
1.091560e+003,5.967462e+000
1.092525e+003,6.344446e+000
1.093489e+003,6.376691e+000
1.094453e+003,6.056903e+000
1.095417e+003,5.304400e+000
1.096381e+003,4.571112e+000
1.097346e+003,4.896405e+000
1.098310e+003,6.827148e+000
1.099274e+003,7.861035e+000
1.100238e+003,7.218439e+000
1.101203e+003,6.755957e+000
1.102167e+003,7.135315e+000
1.103131e+003,7.905603e+000
1.104095e+003,8.464350e+000
1.105060e+003,8.621698e+000
1.106024e+003,8.469904e+000
1.106988e+003,7.719446e+000
1.107952e+003,7.233819e+000
1.108917e+003,8.920532e+000
1.109881e+003,1.205908e+001
1.110845e+003,1.352580e+001
1.111809e+003,1.145610e+001
1.112773e+003,7.583160e+000
1.113738e+003,6.199274e+000
1.114702e+003,8.643488e+000
1.115666e+003,9.913836e+000
1.116630e+003,9.116205e+000
1.117595e+003,8.352429e+000
1.118559e+003,8.501337e+000
1.119523e+003,9.066144e+000
1.120487e+003,9.118750e+000
1.121452e+003,8.431384e+000
1.122416e+003,7.955603e+000
1.123380e+003,8.658117e+000
1.124344e+003,9.852185e+000
1.125308e+003,1.074514e+001
1.126273e+003,1.135017e+001
1.127237e+003,1.172697e+001
1.128201e+003,1.189238e+001
1.129165e+003,1.187754e+001
1.130130e+003,1.169100e+001
1.131094e+003,1.103763e+001
1.132058e+003,1.097878e+001
1.133022e+003,1.210244e+001
1.133987e+003,1.303024e+001
1.134951e+003,1.336307e+001
1.135915e+003,1.328760e+001
1.136879e+003,1.302906e+001
1.137844e+003,1.265136e+001
1.138808e+003,1.219748e+001
1.139772e+003,1.136126e+001
1.140736e+003,1.070150e+001
1.141700e+003,1.138010e+001
1.142665e+003,1.298414e+001
1.143629e+003,1.406201e+001
1.144593e+003,1.389807e+001
1.145557e+003,1.311428e+001
1.146522e+003,1.288082e+001
1.147486e+003,1.330136e+001
1.148450e+003,1.340900e+001
1.149414e+003,1.289410e+001
1.150379e+003,1.267343e+001
1.151343e+003,1.324473e+001
1.152307e+003,1.410543e+001
1.153271e+003,1.436233e+001
1.154235e+003,1.391680e+001
1.155200e+003,1.404605e+001
1.156164e+003,1.607711e+001
1.157128e+003,1.879790e+001
1.158092e+003,2.063745e+001
1.159057e+003,2.164916e+001
1.160021e+003,2.164213e+001
1.160985e+003,2.047977e+001
1.161949e+003,1.934025e+001
1.162914e+003,2.019860e+001
1.163878e+003,2.339945e+001
1.164842e+003,2.563462e+001
1.165806e+003,2.652552e+001
1.166771e+003,2.674583e+001
1.167735e+003,2.532936e+001
1.168699e+003,2.406745e+001
1.169663e+003,2.503249e+001
1.170627e+003,2.792969e+001
1.171592e+003,3.028444e+001
1.172556e+003,3.055767e+001
1.173520e+003,2.981645e+001
1.174484e+003,2.877273e+001
1.175449e+003,2.802289e+001
1.176413e+003,2.944114e+001
1.177377e+003,3.343535e+001
1.178341e+003,3.742990e+001
1.179306e+003,3.865961e+001
1.180270e+003,3.745257e+001
1.181234e+003,3.736860e+001
1.182198e+003,3.945687e+001
1.183162e+003,4.070725e+001
1.184127e+003,4.028184e+001
1.185091e+003,3.955996e+001
1.186055e+003,3.964747e+001
1.187019e+003,4.019989e+001
1.187984e+003,4.010828e+001
1.188948e+003,3.881968e+001
1.189912e+003,3.691173e+001
1.190876e+003,3.480529e+001
1.191841e+003,3.284339e+001
1.192805e+003,3.184049e+001
1.193769e+003,3.184673e+001
1.194733e+003,3.226498e+001
1.195698e+003,3.294548e+001
1.196662e+003,3.356528e+001
1.197626e+003,3.320424e+001
1.198590e+003,3.151521e+001
1.199554e+003,3.002991e+001
1.200519e+003,2.830895e+001
1.201483e+003,2.769209e+001
1.202447e+003,2.953929e+001
1.203411e+003,3.226049e+001
1.204376e+003,3.376000e+001
1.205340e+003,3.357024e+001
1.206304e+003,3.316467e+001
1.207268e+003,3.421666e+001
1.208233e+003,3.575747e+001
1.209197e+003,3.362994e+001
1.210161e+003,2.832974e+001
1.211125e+003,2.492542e+001
1.212089e+003,2.523273e+001
1.213054e+003,2.697220e+001
1.214018e+003,2.784973e+001
1.214982e+003,2.803160e+001
1.215946e+003,2.852941e+001
1.216911e+003,2.954977e+001
1.217875e+003,3.052788e+001
1.218839e+003,3.167878e+001
1.219803e+003,3.230331e+001
1.220768e+003,3.129620e+001
1.221732e+003,2.950056e+001
1.222696e+003,2.911047e+001
1.223660e+003,3.125568e+001
1.224625e+003,3.418108e+001
1.225589e+003,3.465444e+001
1.226553e+003,3.253105e+001
1.227517e+003,3.133431e+001
1.228481e+003,3.135740e+001
1.229446e+003,3.165161e+001
1.230410e+003,3.218108e+001
1.231374e+003,3.252126e+001
1.232338e+003,3.154903e+001
1.233303e+003,2.909814e+001
1.234267e+003,2.809610e+001
1.235231e+003,3.098390e+001
1.236195e+003,3.364804e+001
1.237160e+003,3.345409e+001
1.238124e+003,3.187351e+001
1.239088e+003,3.069162e+001
1.240052e+003,3.035297e+001
1.241016e+003,3.021318e+001
1.241981e+003,2.962427e+001
1.242945e+003,2.884457e+001
1.243909e+003,2.914872e+001
1.244873e+003,3.157375e+001
1.245838e+003,3.256445e+001
1.246802e+003,3.075488e+001
1.247766e+003,2.895796e+001
1.248730e+003,2.857212e+001
1.249695e+003,2.939119e+001
1.250659e+003,3.118547e+001
1.251623e+003,3.403894e+001
1.252587e+003,3.628396e+001
1.253552e+003,3.635172e+001
1.254516e+003,3.564522e+001
1.255480e+003,3.546473e+001
1.256444e+003,3.569584e+001
1.257408e+003,3.600813e+001
1.258373e+003,3.627119e+001
1.259337e+003,3.647201e+001
1.260301e+003,3.661958e+001
1.261265e+003,3.675410e+001
1.262230e+003,3.657478e+001
1.263194e+003,3.534932e+001
1.264158e+003,3.460195e+001
1.265122e+003,3.434766e+001
1.266087e+003,3.470040e+001
1.267051e+003,3.628973e+001
1.268015e+003,3.851961e+001
1.268979e+003,4.009116e+001
1.269943e+003,4.046212e+001
1.270908e+003,3.986915e+001
1.271872e+003,3.794448e+001
1.272836e+003,3.563207e+001
1.273800e+003,3.536833e+001
1.274765e+003,3.702473e+001
1.275729e+003,3.847433e+001
1.276693e+003,3.860505e+001
1.277657e+003,3.827752e+001
1.278622e+003,3.897163e+001
1.279586e+003,4.074526e+001
1.280550e+003,4.168723e+001
1.281514e+003,4.103084e+001
1.282479e+003,4.077983e+001
1.283443e+003,4.216204e+001
1.284407e+003,4.339562e+001
1.285371e+003,4.244313e+001
1.286335e+003,4.008001e+001
1.287300e+003,3.888896e+001
1.288264e+003,4.022556e+001
1.289228e+003,4.248270e+001
1.290192e+003,4.301506e+001
1.291157e+003,4.190495e+001
1.292121e+003,4.167212e+001
1.293085e+003,4.238305e+001
1.294049e+003,4.323089e+001
1.295014e+003,4.439497e+001
1.295978e+003,4.540319e+001
1.296942e+003,4.523234e+001
1.297906e+003,4.411182e+001
1.298870e+003,4.437511e+001
1.299835e+003,4.739902e+001
1.300799e+003,5.002338e+001
1.301763e+003,4.980013e+001
1.302727e+003,4.854302e+001
1.303692e+003,4.769424e+001
1.304656e+003,4.750813e+001
1.305620e+003,4.776163e+001
1.306584e+003,4.828048e+001
1.307549e+003,4.905062e+001
1.308513e+003,5.013895e+001
1.309477e+003,5.162680e+001
1.310441e+003,5.242400e+001
1.311406e+003,5.212833e+001
1.312370e+003,5.187354e+001
1.313334e+003,5.190033e+001
1.314298e+003,5.197600e+001
1.315263e+003,5.176754e+001
1.316227e+003,5.142739e+001
1.317191e+003,5.151460e+001
1.318155e+003,5.228045e+001
1.319120e+003,5.319728e+001
1.320084e+003,5.351655e+001
1.321048e+003,5.368124e+001
1.322012e+003,5.510126e+001
1.322976e+003,5.760656e+001
1.323941e+003,5.884269e+001
1.324905e+003,5.731789e+001
1.325869e+003,5.508244e+001
1.326833e+003,5.558189e+001
1.327798e+003,5.875097e+001
1.328762e+003,5.982907e+001
1.329726e+003,5.736221e+001
1.330690e+003,5.465370e+001
1.331655e+003,5.191432e+001
1.332619e+003,4.998311e+001
1.333583e+003,4.957867e+001
1.334547e+003,5.039718e+001
1.335511e+003,5.199448e+001
1.336476e+003,5.404916e+001
1.337440e+003,5.621906e+001
1.338404e+003,5.819668e+001
1.339368e+003,5.983419e+001
1.340333e+003,5.928151e+001
1.341297e+003,5.534707e+001
1.342261e+003,5.278900e+001
1.343225e+003,5.304952e+001
1.344190e+003,5.391355e+001
1.345154e+003,5.358537e+001
1.346118e+003,5.276489e+001
1.347082e+003,5.353513e+001
1.348047e+003,5.644157e+001
1.349011e+003,5.883114e+001
1.349975e+003,5.892242e+001
1.350939e+003,5.801742e+001
1.351903e+003,5.711528e+001
1.352868e+003,5.647152e+001
1.353832e+003,5.686979e+001
1.354796e+003,5.845486e+001
1.355760e+003,6.004805e+001
1.356725e+003,6.045356e+001
1.357689e+003,6.000703e+001
1.358653e+003,6.030058e+001
1.359617e+003,6.187810e+001
1.360582e+003,6.261272e+001
1.361546e+003,6.158498e+001
1.362510e+003,6.056194e+001
1.363474e+003,6.030001e+001
1.364438e+003,6.036066e+001
1.365403e+003,6.019037e+001
1.366367e+003,5.963282e+001
1.367331e+003,5.866317e+001
1.368295e+003,5.727756e+001
1.369260e+003,5.605796e+001
1.370224e+003,5.609776e+001
1.371188e+003,5.753823e+001
1.372152e+003,5.934681e+001
1.373117e+003,6.175178e+001
1.374081e+003,6.346797e+001
1.375045e+003,6.378119e+001
1.376009e+003,6.344697e+001
1.376974e+003,6.323234e+001
1.377938e+003,6.319970e+001
1.378902e+003,6.329085e+001
1.379866e+003,6.353242e+001
1.380830e+003,6.347949e+001
1.381795e+003,6.234753e+001
1.382759e+003,6.116529e+001
1.383723e+003,6.090303e+001
1.384687e+003,6.147008e+001
1.385652e+003,6.241462e+001
1.386616e+003,6.354234e+001
1.387580e+003,6.483240e+001
1.388544e+003,6.637483e+001
1.389509e+003,6.800450e+001
1.390473e+003,6.851648e+001
1.391437e+003,6.743138e+001
1.392401e+003,6.655232e+001
1.393365e+003,6.556407e+001
1.394330e+003,6.517684e+001
1.395294e+003,6.602472e+001
1.396258e+003,6.733962e+001
1.397222e+003,6.814272e+001
1.398187e+003,6.854214e+001
1.399151e+003,6.970876e+001
1.400115e+003,7.239137e+001
1.401079e+003,7.540969e+001
1.402044e+003,7.661855e+001
1.403008e+003,7.596458e+001
1.403972e+003,7.546053e+001
1.404936e+003,7.534673e+001
1.405901e+003,7.500224e+001
1.406865e+003,7.356159e+001
1.407829e+003,7.226497e+001
1.408793e+003,7.294666e+001
1.409757e+003,7.509534e+001
1.410722e+003,7.590984e+001
1.411686e+003,7.428120e+001
1.412650e+003,7.280582e+001
1.413614e+003,7.385380e+001
1.414579e+003,7.561949e+001
1.415543e+003,7.589829e+001
1.416507e+003,7.527628e+001
1.417471e+003,7.553389e+001
1.418436e+003,7.715297e+001
1.419400e+003,7.832673e+001
1.420364e+003,7.686539e+001
1.421328e+003,7.383730e+001
1.422292e+003,7.391472e+001
1.423257e+003,7.837276e+001
1.424221e+003,8.088076e+001
1.425185e+003,7.845116e+001
1.426149e+003,7.631106e+001
1.427114e+003,7.582338e+001
1.428078e+003,7.666647e+001
1.429042e+003,7.902906e+001
1.430006e+003,8.212556e+001
1.430971e+003,8.432051e+001
1.431935e+003,8.481206e+001
1.432899e+003,8.435445e+001
1.433863e+003,8.400648e+001
1.434828e+003,8.385686e+001
1.435792e+003,8.424075e+001
1.436756e+003,8.531284e+001
1.437720e+003,8.605281e+001
1.438684e+003,8.630006e+001
1.439649e+003,8.659998e+001
1.440613e+003,8.737173e+001
1.441577e+003,8.836292e+001
1.442541e+003,8.908617e+001
1.443506e+003,8.938861e+001
1.444470e+003,8.931107e+001
1.445434e+003,8.877882e+001
1.446398e+003,8.859709e+001
1.447363e+003,9.017918e+001
1.448327e+003,9.277280e+001
1.449291e+003,9.463720e+001
1.450255e+003,9.569286e+001
1.451219e+003,9.597488e+001
1.452184e+003,9.503199e+001
1.453148e+003,9.377647e+001
1.454112e+003,9.337893e+001
1.455076e+003,9.372213e+001
1.456041e+003,9.424412e+001
1.457005e+003,9.506484e+001
1.457969e+003,9.569740e+001
1.458933e+003,9.524847e+001
1.459898e+003,9.525272e+001
1.460862e+003,9.733788e+001
1.461826e+003,1.001050e+002
1.462790e+003,1.015740e+002
1.463755e+003,1.013587e+002
1.464719e+003,1.000595e+002
1.465683e+003,9.804258e+001
1.466647e+003,9.594580e+001
1.467611e+003,9.530676e+001
1.468576e+003,9.634350e+001
1.469540e+003,9.687051e+001
1.470504e+003,9.632793e+001
1.471468e+003,9.629559e+001
1.472433e+003,9.744228e+001
1.473397e+003,9.861132e+001
1.474361e+003,9.900896e+001
1.475325e+003,9.900534e+001
1.476290e+003,9.939723e+001
1.477254e+003,1.002104e+002
1.478218e+003,1.004553e+002
1.479182e+003,9.934705e+001
1.480146e+003,9.784048e+001
1.481111e+003,9.815224e+001
1.482075e+003,1.005275e+002
1.483039e+003,1.014391e+002
1.484003e+003,1.003458e+002
1.484968e+003,9.884724e+001
1.485932e+003,9.647466e+001
1.486896e+003,9.480966e+001
1.487860e+003,9.561930e+001
1.488825e+003,9.793394e+001
1.489789e+003,9.950497e+001
1.490753e+003,9.981154e+001
1.491717e+003,9.986647e+001
1.492682e+003,1.003991e+002
1.493646e+003,1.008619e+002
1.494610e+003,1.000409e+002
1.495574e+003,9.838618e+001
1.496538e+003,9.734199e+001
1.497503e+003,9.709135e+001
1.498467e+003,9.735072e+001
1.499431e+003,9.830909e+001
1.500395e+003,9.932915e+001
1.501360e+003,9.984731e+001
1.502324e+003,9.989497e+001
1.503288e+003,9.878413e+001
1.504252e+003,9.578706e+001
1.505217e+003,9.453925e+001
1.506181e+003,9.871702e+001
1.507145e+003,1.029696e+002
1.508109e+003,1.027011e+002
1.509073e+003,9.981853e+001
1.510038e+003,9.672721e+001
1.511002e+003,9.414857e+001
1.511966e+003,9.316307e+001
1.512930e+003,9.462691e+001
1.513895e+003,9.741921e+001
1.514859e+003,1.000835e+002
1.515823e+003,1.024932e+002
1.516787e+003,1.019375e+002
1.517752e+003,9.642494e+001
1.518716e+003,9.326105e+001
1.519680e+003,9.669244e+001
1.520644e+003,9.989201e+001
1.521609e+003,9.953732e+001
1.522573e+003,9.745988e+001
1.523537e+003,9.554935e+001
1.524501e+003,9.451032e+001
1.525465e+003,9.496822e+001
1.526430e+003,9.708604e+001
1.527394e+003,9.896391e+001
1.528358e+003,9.758855e+001
1.529322e+003,9.321854e+001
1.530287e+003,9.059029e+001
1.531251e+003,9.073159e+001
1.532215e+003,9.083493e+001
1.533179e+003,9.031279e+001
1.534144e+003,9.024226e+001
1.535108e+003,9.146375e+001
1.536072e+003,9.298603e+001
1.537036e+003,9.408991e+001
1.538000e+003,9.449445e+001
1.538965e+003,9.357616e+001
1.539929e+003,9.119960e+001
1.540893e+003,8.910977e+001
1.541857e+003,8.952000e+001
1.542822e+003,9.155317e+001
1.543786e+003,9.092060e+001
1.544750e+003,8.598213e+001
1.545714e+003,8.372340e+001
1.546679e+003,8.620097e+001
1.547643e+003,8.835401e+001
1.548607e+003,8.876620e+001
1.549571e+003,8.813411e+001
1.550536e+003,8.641165e+001
1.551500e+003,8.420634e+001
1.552464e+003,8.319279e+001
1.553428e+003,8.386395e+001
1.554392e+003,8.467554e+001
1.555357e+003,8.436275e+001
1.556321e+003,8.319345e+001
1.557285e+003,8.162267e+001
1.558249e+003,7.977248e+001
1.559214e+003,7.852452e+001
1.560178e+003,7.798714e+001
1.561142e+003,7.786159e+001
1.562106e+003,7.800569e+001
1.563071e+003,7.836418e+001
1.564035e+003,7.944317e+001
1.564999e+003,8.073506e+001
1.565963e+003,8.082999e+001
1.566927e+003,7.951465e+001
1.567892e+003,7.777059e+001
1.568856e+003,7.584987e+001
1.569820e+003,7.444602e+001
1.570784e+003,7.481944e+001
1.571749e+003,7.611418e+001
1.572713e+003,7.629431e+001
1.573677e+003,7.539571e+001
1.574641e+003,7.423985e+001
1.575606e+003,7.290222e+001
1.576570e+003,7.150830e+001
1.577534e+003,7.001573e+001
1.578498e+003,6.871421e+001
1.579463e+003,6.832466e+001
1.580427e+003,6.873769e+001
1.581391e+003,6.863698e+001
1.582355e+003,6.765635e+001
1.583319e+003,6.617932e+001
1.584284e+003,6.403770e+001
1.585248e+003,6.208326e+001
1.586212e+003,6.130208e+001
1.587176e+003,6.127850e+001
1.588141e+003,6.134106e+001
1.589105e+003,6.145432e+001
1.590069e+003,6.111321e+001
1.591033e+003,5.950701e+001
1.591998e+003,5.775828e+001
1.592962e+003,5.803749e+001
1.593926e+003,5.977358e+001
1.594890e+003,5.948851e+001
1.595854e+003,5.642025e+001
1.596819e+003,5.452900e+001
1.597783e+003,5.591692e+001
1.598747e+003,5.771767e+001
1.599711e+003,5.834597e+001
1.600676e+003,5.780892e+001
1.601640e+003,5.529506e+001
1.602604e+003,5.154636e+001
1.603568e+003,4.953476e+001
1.604533e+003,5.047524e+001
1.605497e+003,5.185136e+001
1.606461e+003,5.132062e+001
1.607425e+003,4.932277e+001
1.608390e+003,4.656969e+001
1.609354e+003,4.306208e+001
1.610318e+003,4.162851e+001
1.611282e+003,4.354686e+001
1.612246e+003,4.506757e+001
1.613211e+003,4.393711e+001
1.614175e+003,4.233478e+001
1.615139e+003,4.212678e+001
1.616103e+003,4.240095e+001
1.617068e+003,4.112886e+001
1.618032e+003,3.835623e+001
1.618996e+003,3.667154e+001
1.619960e+003,3.769496e+001
1.620925e+003,3.924062e+001
1.621889e+003,3.788578e+001
1.622853e+003,3.429460e+001
1.623817e+003,3.259626e+001
1.624781e+003,3.319692e+001
1.625746e+003,3.360958e+001
1.626710e+003,3.342551e+001
1.627674e+003,3.268711e+001
1.628638e+003,3.043546e+001
1.629603e+003,2.840748e+001
1.630567e+003,2.841190e+001
1.631531e+003,2.976274e+001
1.632495e+003,3.115586e+001
1.633460e+003,3.211996e+001
1.634424e+003,3.189880e+001
1.635388e+003,2.967127e+001
1.636352e+003,2.671034e+001
1.637317e+003,2.553686e+001
1.638281e+003,2.598550e+001
1.639245e+003,2.551279e+001
1.640209e+003,2.370604e+001
1.641173e+003,2.229489e+001
1.642138e+003,2.176520e+001
1.643102e+003,2.173495e+001
1.644066e+003,2.250769e+001
1.645030e+003,2.321085e+001
1.645995e+003,2.273406e+001
1.646959e+003,2.148417e+001
1.647923e+003,2.066298e+001
1.648887e+003,2.065071e+001
1.649852e+003,2.101257e+001
1.650816e+003,2.153298e+001
1.651780e+003,2.188224e+001
1.652744e+003,2.112205e+001
1.653708e+003,1.930806e+001
1.654673e+003,1.836981e+001
1.655637e+003,1.871313e+001
1.656601e+003,1.880061e+001
1.657565e+003,1.822533e+001
1.658530e+003,1.726668e+001
1.659494e+003,1.562820e+001
1.660458e+003,1.402368e+001
1.661422e+003,1.351731e+001
1.662387e+003,1.372988e+001
1.663351e+003,1.330501e+001
1.664315e+003,1.180840e+001
1.665279e+003,1.002251e+001
1.666244e+003,8.399170e+000
1.667208e+003,7.256378e+000
1.668172e+003,7.582336e+000
1.669136e+003,9.208148e+000
1.670100e+003,9.673712e+000
1.671065e+003,8.390277e+000
1.672029e+003,7.721728e+000
1.672993e+003,9.523310e+000
1.673957e+003,1.062444e+001
1.674922e+003,7.615576e+000
1.675886e+003,3.790658e+000
1.676850e+003,3.197916e+000
1.677814e+003,5.201523e+000
1.678779e+003,6.765033e+000
1.679743e+003,6.949347e+000
1.680707e+003,6.232053e+000
1.681671e+003,4.499060e+000
1.682635e+003,2.622580e+000
1.683600e+003,2.320065e+000
1.684564e+003,3.359085e+000
1.685528e+003,4.199774e+000
1.686492e+003,4.682889e+000
1.687457e+003,4.637210e+000
1.688421e+003,3.913364e+000
1.689385e+003,2.909433e+000
1.690349e+003,1.555579e+000
1.691314e+003,3.971222e-001
1.692278e+003,2.697357e-001
1.693242e+003,8.659851e-001
1.694206e+003,1.012354e+000
1.695171e+003,3.968689e-001
1.696135e+003,-3.037689e-001
1.697099e+003,-8.566895e-001
1.698063e+003,-1.080521e+000
1.699027e+003,-5.817474e-001
1.699992e+003,4.376099e-001
1.700956e+003,1.583826e+000
1.701920e+003,2.756982e+000
1.702884e+003,2.601807e+000
1.703849e+003,3.017364e-001
1.704813e+003,-2.099466e+000
1.705777e+003,-2.969260e+000
1.706741e+003,-3.039813e+000
1.707706e+003,-3.511682e+000
1.708670e+003,-4.221848e+000
1.709634e+003,-4.530817e+000
1.710598e+003,-4.282294e+000
1.711563e+003,-4.193991e+000
1.712527e+003,-4.547510e+000
1.713491e+003,-5.204251e+000
1.714455e+003,-6.596033e+000
1.715419e+003,-7.907028e+000
1.716384e+003,-7.278116e+000
1.717348e+003,-5.096057e+000
1.718312e+003,-4.024438e+000
1.719276e+003,-4.900690e+000
1.720241e+003,-6.032813e+000
1.721205e+003,-6.171793e+000
1.722169e+003,-6.056525e+000
1.723133e+003,-7.031326e+000
1.724098e+003,-8.837412e+000
1.725062e+003,-9.627966e+000
1.726026e+003,-9.294278e+000
1.726990e+003,-8.678720e+000
1.727954e+003,-7.429483e+000
1.728919e+003,-6.559814e+000
1.729883e+003,-6.770917e+000
1.730847e+003,-7.350284e+000
1.731811e+003,-7.664444e+000
1.732776e+003,-7.728976e+000
1.733740e+003,-7.671618e+000
1.734704e+003,-7.569220e+000
1.735668e+003,-7.548358e+000
1.736633e+003,-7.689771e+000
1.737597e+003,-8.176376e+000
1.738561e+003,-9.355555e+000
1.739525e+003,-1.081731e+001
1.740490e+003,-1.061339e+001
1.741454e+003,-7.971228e+000
1.742418e+003,-6.643622e+000
1.743382e+003,-7.381488e+000
1.744346e+003,-8.238605e+000
1.745311e+003,-8.743258e+000
1.746275e+003,-9.478525e+000
1.747239e+003,-1.165452e+001
1.748203e+003,-1.364365e+001
1.749168e+003,-1.272928e+001
1.750132e+003,-9.788473e+000
1.751096e+003,-8.270330e+000
1.752060e+003,-9.360080e+000
1.753025e+003,-1.078180e+001
1.753989e+003,-1.040641e+001
1.754953e+003,-9.133078e+000
1.755917e+003,-9.106018e+000
1.756881e+003,-1.035928e+001
1.757846e+003,-1.107586e+001
1.758810e+003,-1.113224e+001
1.759774e+003,-1.091843e+001
1.760738e+003,-1.052612e+001
1.761703e+003,-9.884933e+000
1.762667e+003,-8.258731e+000
1.763631e+003,-7.042587e+000
1.764595e+003,-7.971985e+000
1.765560e+003,-9.816165e+000
1.766524e+003,-1.000930e+001
1.767488e+003,-8.491366e+000
1.768452e+003,-7.862103e+000
1.769417e+003,-9.576370e+000
1.770381e+003,-1.156813e+001
1.771345e+003,-1.120514e+001
1.772309e+003,-9.567166e+000
1.773273e+003,-9.625189e+000
1.774238e+003,-1.118863e+001
1.775202e+003,-1.179676e+001
1.776166e+003,-1.099396e+001
1.777130e+003,-1.001858e+001
1.778095e+003,-9.066302e+000
1.779059e+003,-8.664929e+000
1.780023e+003,-9.867551e+000
1.780987e+003,-1.152367e+001
1.781952e+003,-1.139948e+001
1.782916e+003,-9.963013e+000
1.783880e+003,-9.637960e+000
1.784844e+003,-1.098515e+001
1.785808e+003,-1.231617e+001
1.786773e+003,-1.311273e+001
1.787737e+003,-1.345724e+001
1.788701e+003,-1.339707e+001
1.789665e+003,-1.295300e+001
1.790630e+003,-1.160304e+001
1.791594e+003,-9.918711e+000
1.792558e+003,-9.975812e+000
1.793522e+003,-1.213620e+001
1.794487e+003,-1.425778e+001
1.795451e+003,-1.503686e+001
1.796415e+003,-1.458174e+001
1.797379e+003,-1.279380e+001
1.798344e+003,-1.022293e+001
1.799308e+003,-9.573120e+000
1.800272e+003,-1.166159e+001
1.801236e+003,-1.259542e+001
1.802201e+003,-1.126074e+001
1.803165e+003,-1.051611e+001
1.804129e+003,-1.137489e+001
1.805093e+003,-1.220668e+001
1.806057e+003,-1.180886e+001
1.807022e+003,-1.118098e+001
1.807986e+003,-1.184150e+001
1.808950e+003,-1.321133e+001
1.809914e+003,-1.341769e+001
1.810879e+003,-1.209996e+001
1.811843e+003,-1.073257e+001
1.812807e+003,-1.040049e+001
1.813771e+003,-1.090177e+001
1.814736e+003,-1.218197e+001
1.815700e+003,-1.390673e+001
1.816664e+003,-1.397677e+001
1.817628e+003,-1.215938e+001
1.818593e+003,-1.121525e+001
1.819557e+003,-1.170417e+001
1.820521e+003,-1.222202e+001
1.821485e+003,-1.231292e+001
1.822449e+003,-1.224568e+001
1.823414e+003,-1.217400e+001
1.824378e+003,-1.214594e+001
1.825342e+003,-1.227315e+001
1.826306e+003,-1.245649e+001
1.827271e+003,-1.230839e+001
1.828235e+003,-1.170601e+001
1.829199e+003,-1.124155e+001
1.830163e+003,-1.129639e+001
1.831128e+003,-1.147939e+001
1.832092e+003,-1.155218e+001
1.833056e+003,-1.149681e+001
1.834020e+003,-1.107839e+001
1.834984e+003,-1.053694e+001
1.835949e+003,-1.085015e+001
1.836913e+003,-1.205037e+001
1.837877e+003,-1.251787e+001
1.838841e+003,-1.134977e+001
1.839806e+003,-9.989575e+000
1.840770e+003,-1.011197e+001
1.841734e+003,-1.113563e+001
1.842698e+003,-1.123271e+001
1.843663e+003,-1.023928e+001
1.844627e+003,-9.499033e+000
1.845591e+003,-9.086932e+000
1.846555e+003,-8.858737e+000
1.847520e+003,-8.675799e+000
1.848484e+003,-8.914493e+000
1.849448e+003,-1.036205e+001
1.850412e+003,-1.160057e+001
1.851376e+003,-1.119347e+001
1.852341e+003,-9.895511e+000
1.853305e+003,-9.098288e+000
1.854269e+003,-8.959033e+000
1.855233e+003,-8.681323e+000
1.856198e+003,-7.885922e+000
1.857162e+003,-7.029892e+000
1.858126e+003,-6.467334e+000
1.859090e+003,-6.331625e+000
1.860055e+003,-7.274915e+000
1.861019e+003,-9.036496e+000
1.861983e+003,-9.782034e+000
1.862947e+003,-9.389081e+000
1.863911e+003,-8.571356e+000
1.864876e+003,-7.299832e+000
1.865840e+003,-6.463202e+000
1.866804e+003,-6.756760e+000
1.867768e+003,-7.409976e+000
1.868733e+003,-7.782025e+000
1.869697e+003,-7.765762e+000
1.870661e+003,-6.770883e+000
1.871625e+003,-4.786258e+000
1.872590e+003,-3.690900e+000
1.873554e+003,-4.042563e+000
1.874518e+003,-4.520999e+000
1.875482e+003,-4.791949e+000
1.876447e+003,-5.029489e+000
1.877411e+003,-5.133039e+000
1.878375e+003,-5.406180e+000
1.879339e+003,-6.662738e+000
1.880303e+003,-8.252054e+000
1.881268e+003,-8.610636e+000
1.882232e+003,-7.609857e+000
1.883196e+003,-6.503335e+000
1.884160e+003,-5.966174e+000
1.885125e+003,-5.494946e+000
1.886089e+003,-4.471365e+000
1.887053e+003,-3.371625e+000
1.888017e+003,-3.688614e+000
1.888982e+003,-5.436261e+000
1.889946e+003,-6.482184e+000
1.890910e+003,-6.812772e+000
1.891874e+003,-6.387836e+000
1.892839e+003,-4.733246e+000
1.893803e+003,-3.471234e+000
1.894767e+003,-3.771661e+000
1.895731e+003,-4.197595e+000
1.896695e+003,-2.987399e+000
1.897660e+003,-1.279761e+000
1.898624e+003,-1.270395e+000
1.899588e+003,-2.765805e+000
1.900552e+003,-3.387210e+000
1.901517e+003,-2.349002e+000
1.902481e+003,-1.824457e+000
1.903445e+003,-3.556711e+000
1.904409e+003,-4.946433e+000
1.905374e+003,-3.686172e+000
1.906338e+003,-1.608054e+000
1.907302e+003,-8.680786e-001
1.908266e+003,-1.169150e+000
1.909230e+003,-1.484473e+000
1.910195e+003,-1.608316e+000
1.911159e+003,-1.899796e+000
1.912123e+003,-2.467129e+000
1.913087e+003,-2.754306e+000
1.914052e+003,-2.205701e+000
1.915016e+003,-1.570929e+000
1.915980e+003,-2.601288e+000
1.916944e+003,-5.071356e+000
1.917909e+003,-5.809564e+000
1.918873e+003,-4.434137e+000
1.919837e+003,-3.489502e+000
1.920801e+003,-3.310052e+000
1.921766e+003,-3.394135e+000
1.922730e+003,-3.702618e+000
1.923694e+003,-4.103671e+000
1.924658e+003,-4.694772e+000
1.925622e+003,-5.140918e+000
1.926587e+003,-4.879187e+000
1.927551e+003,-4.118683e+000
1.928515e+003,-3.636560e+000
1.929479e+003,-3.527286e+000
1.930444e+003,-3.502469e+000
1.931408e+003,-3.529691e+000
1.932372e+003,-3.599759e+000
1.933336e+003,-3.906497e+000
1.934301e+003,-4.032996e+000
1.935265e+003,-3.436944e+000
1.936229e+003,-2.555630e+000
1.937193e+003,-1.958148e+000
1.938157e+003,-1.716211e+000
1.939122e+003,-1.781818e+000
1.940086e+003,-2.061172e+000
1.941050e+003,-2.322263e+000
1.942014e+003,-2.436038e+000
1.942979e+003,-2.459409e+000
1.943943e+003,-2.435098e+000
1.944907e+003,-2.371405e+000
1.945871e+003,-2.347375e+000
1.946836e+003,-2.331329e+000
1.947800e+003,-2.069876e+000
1.948764e+003,-1.566644e+000
1.949728e+003,-1.010330e+000
1.950693e+003,-3.152954e-001
1.951657e+003,-9.825744e-002
1.952621e+003,-7.005463e-001
1.953585e+003,-1.716656e+000
1.954549e+003,-3.109427e+000
1.955514e+003,-4.455362e+000
1.956478e+003,-4.669739e+000
1.957442e+003,-3.833221e+000
1.958406e+003,-3.230432e+000
1.959371e+003,-3.015930e+000
1.960335e+003,-2.716251e+000
1.961299e+003,-2.188187e+000
1.962263e+003,-1.643521e+000
1.963228e+003,-1.350647e+000
1.964192e+003,-8.770416e-001
1.965156e+003,6.147797e-001
1.966120e+003,2.071182e+000
1.967084e+003,1.876639e+000
1.968049e+003,6.086914e-001
1.969013e+003,-1.493225e-002
1.969977e+003,3.758301e-001
1.970941e+003,9.460174e-001
1.971906e+003,1.258106e+000
1.972870e+003,1.221124e+000
1.973834e+003,5.474060e-001
1.974798e+003,-3.370575e-001
1.975763e+003,-7.590454e-001
1.976727e+003,-8.115875e-001
1.977691e+003,-7.323944e-001
1.978655e+003,-5.252686e-001
1.979620e+003,1.577332e-001
1.980584e+003,1.372058e+000
1.981548e+003,1.857929e+000
1.982512e+003,8.733826e-001
1.983476e+003,-3.264526e-001
1.984441e+003,-4.071380e-001
1.985405e+003,1.547943e-001
1.986369e+003,2.332367e-001
1.987333e+003,-1.365326e-001
1.988298e+003,-4.581787e-001
1.989262e+003,-8.786804e-001
1.990226e+003,-9.588623e-001
1.991190e+003,-6.168091e-001
1.992155e+003,-1.432800e-002
1.993119e+003,1.185382e+000
1.994083e+003,2.203772e+000
1.995047e+003,2.692456e+000
1.996011e+003,2.719974e+000
1.996976e+003,2.225735e+000
1.997940e+003,1.413980e+000
1.998904e+003,5.570496e-001
1.999868e+003,-2.777618e-001
2.000833e+003,-5.153503e-001
2.001797e+003,7.507934e-002
2.002761e+003,9.916840e-001
2.003725e+003,2.469131e+000
2.004690e+003,3.696231e+000
2.005654e+003,3.913242e+000
2.006618e+003,3.832233e+000
2.007582e+003,4.484439e+000
2.008547e+003,5.259845e+000
2.009511e+003,4.834680e+000
2.010475e+003,3.383438e+000
2.011439e+003,1.992712e+000
2.012403e+003,1.148703e+000
2.013368e+003,1.217129e+000
2.014332e+003,2.594718e+000
2.015296e+003,3.747485e+000
2.016260e+003,1.855017e+000
2.017225e+003,-1.209534e+000
2.018189e+003,-5.392975e-001
2.019153e+003,2.802545e+000
2.020117e+003,4.586838e+000
2.021082e+003,4.542917e+000
2.022046e+003,4.044739e+000
2.023010e+003,3.482452e+000
2.023974e+003,2.977292e+000
2.024938e+003,2.557986e+000
2.025903e+003,2.438901e+000
2.026867e+003,2.906384e+000
2.027831e+003,3.645410e+000
2.028795e+003,3.914868e+000
2.029760e+003,3.766943e+000
2.030724e+003,3.823944e+000
2.031688e+003,4.327615e+000
2.032652e+003,3.842346e+000
2.033617e+003,1.613629e+000
2.034581e+003,8.704834e-002
2.035545e+003,1.289978e-001
2.036509e+003,6.416656e-001
2.037474e+003,9.568024e-001
2.038438e+003,1.417511e+000
2.039402e+003,2.893680e+000
2.040366e+003,4.657324e+000
2.041330e+003,4.965915e+000
2.042295e+003,3.845203e+000
2.043259e+003,2.704025e+000
2.044223e+003,1.401703e+000
2.045187e+003,8.157715e-001
2.046152e+003,1.896234e+000
2.047116e+003,2.606506e+000
2.048080e+003,1.812598e+000
2.049044e+003,7.450775e-001
2.050009e+003,1.442230e-001
2.050973e+003,-6.326904e-002
2.051937e+003,1.138672e-001
2.052901e+003,4.802521e-001
2.053865e+003,5.589294e-001
2.054830e+003,3.444458e-001
2.055794e+003,6.318604e-001
2.056758e+003,1.880496e+000
2.057722e+003,2.593894e+000
2.058687e+003,8.035553e-001
2.059651e+003,-9.530151e-001
2.060615e+003,2.910248e-001
2.061579e+003,2.625229e+000
2.062544e+003,3.796939e+000
2.063508e+003,3.903653e+000
2.064472e+003,3.149930e+000
2.065436e+003,1.917011e+000
2.066401e+003,1.141400e+000
2.067365e+003,1.075952e+000
2.068329e+003,1.175192e+000
2.069293e+003,1.100302e+000
2.070258e+003,1.071787e+000
2.071222e+003,1.340164e+000
2.072186e+003,1.873193e+000
2.073150e+003,2.781683e+000
2.074115e+003,3.865213e+000
2.075079e+003,4.156186e+000
2.076043e+003,3.688162e+000
2.077007e+003,3.120935e+000
2.077971e+003,2.601852e+000
2.078936e+003,2.374347e+000
2.079900e+003,2.522015e+000
2.080864e+003,2.470062e+000
2.081828e+003,1.764816e+000
2.082792e+003,1.134851e+000
2.083757e+003,1.673773e+000
2.084721e+003,2.909711e+000
2.085685e+003,3.140247e+000
2.086649e+003,2.325641e+000
2.087614e+003,2.012680e+000
2.088578e+003,2.393802e+000
2.089542e+003,2.270764e+000
2.090506e+003,1.184003e+000
2.091471e+003,5.519379e-001
2.092435e+003,9.827667e-001
2.093399e+003,1.771783e+000
2.094363e+003,2.683978e+000
2.095328e+003,3.334702e+000
2.096292e+003,2.887143e+000
2.097256e+003,1.880136e+000
2.098220e+003,2.412903e+000
2.099185e+003,4.731402e+000
2.100149e+003,6.447128e+000
2.101113e+003,7.672678e+000
2.102077e+003,8.005282e+000
2.103042e+003,6.813449e+000
2.104006e+003,5.609467e+000
2.104970e+003,4.567624e+000
2.105934e+003,3.804614e+000
2.106898e+003,3.322067e+000
2.107863e+003,3.172678e+000
2.108827e+003,3.656155e+000
2.109791e+003,4.465198e+000
2.110755e+003,4.995978e+000
2.111719e+003,5.170835e+000
2.112684e+003,4.767197e+000
2.113648e+003,3.353153e+000
2.114612e+003,2.636761e+000
2.115576e+003,3.646130e+000
2.116541e+003,4.387662e+000
2.117505e+003,3.800406e+000
2.118469e+003,3.188364e+000
2.119433e+003,3.495624e+000
2.120398e+003,4.103168e+000
2.121362e+003,4.450671e+000
2.122326e+003,4.459256e+000
2.123290e+003,3.948163e+000
2.124255e+003,3.131094e+000
2.125219e+003,2.930075e+000
2.126183e+003,3.641019e+000
2.127147e+003,4.320715e+000
2.128112e+003,4.562567e+000
2.129076e+003,4.686917e+000
2.130040e+003,4.609253e+000
2.131004e+003,4.734714e+000
2.131969e+003,5.892526e+000
2.132933e+003,6.962359e+000
2.133897e+003,6.187399e+000
2.134861e+003,4.653592e+000
2.135825e+003,4.647211e+000
2.136790e+003,5.990415e+000
2.137754e+003,6.663071e+000
2.138718e+003,6.100189e+000
2.139682e+003,5.715421e+000
2.140646e+003,6.360400e+000
2.141611e+003,7.250946e+000
2.142575e+003,8.113913e+000
2.143539e+003,8.444577e+000
2.144503e+003,7.272666e+000
2.145468e+003,5.702756e+000
2.146432e+003,4.951834e+000
2.147396e+003,5.083108e+000
2.148360e+003,6.662149e+000
2.149325e+003,8.860669e+000
2.150289e+003,8.937311e+000
2.151253e+003,6.525107e+000
2.152217e+003,4.755918e+000
2.153182e+003,5.434461e+000
2.154146e+003,6.941605e+000
2.155110e+003,8.137823e+000
2.156074e+003,8.768396e+000
2.157039e+003,8.045837e+000
2.158003e+003,6.794665e+000
2.158967e+003,6.164508e+000
2.159931e+003,6.277777e+000
2.160896e+003,7.662048e+000
2.161860e+003,9.753351e+000
2.162824e+003,1.084303e+001
2.163788e+003,1.059232e+001
2.164752e+003,9.707321e+000
2.165717e+003,8.636127e+000
2.166681e+003,8.118383e+000
2.167645e+003,8.920499e+000
2.168609e+003,1.001723e+001
2.169573e+003,9.846555e+000
2.170538e+003,9.109262e+000
2.171502e+003,9.350131e+000
2.172466e+003,9.950958e+000
2.173430e+003,9.123886e+000
2.174395e+003,7.348764e+000
2.175359e+003,6.637796e+000
2.176323e+003,7.238471e+000
2.177287e+003,8.316767e+000
2.178252e+003,9.365573e+000
2.179216e+003,9.551297e+000
2.180180e+003,8.270703e+000
2.181144e+003,6.798370e+000
2.182109e+003,6.676114e+000
2.183073e+003,7.329614e+000
2.184037e+003,7.886456e+000
2.185001e+003,8.276709e+000
2.185966e+003,8.018103e+000
2.186930e+003,7.544525e+000
2.187894e+003,8.599726e+000
2.188858e+003,1.088116e+001
2.189823e+003,1.191003e+001
2.190787e+003,1.107150e+001
2.191751e+003,9.812650e+000
2.192715e+003,9.000219e+000
2.193679e+003,8.471591e+000
2.194644e+003,8.013453e+000
2.195608e+003,7.856210e+000
2.196572e+003,8.635284e+000
2.197536e+003,9.866855e+000
2.198500e+003,1.047084e+001
2.199465e+003,1.051743e+001
2.200429e+003,1.000044e+001
2.201393e+003,9.112833e+000
2.202357e+003,8.456125e+000
2.203322e+003,8.167865e+000
2.204286e+003,8.141238e+000
2.205250e+003,8.369555e+000
2.206214e+003,9.379575e+000
2.207179e+003,1.154054e+001
2.208143e+003,1.290806e+001
2.209107e+003,1.066292e+001
2.210071e+003,7.289789e+000
2.211036e+003,7.718717e+000
2.212000e+003,1.033900e+001
2.212964e+003,1.119665e+001
2.213928e+003,1.079213e+001
2.214893e+003,1.121974e+001
2.215857e+003,1.244975e+001
2.216821e+003,1.310514e+001
2.217785e+003,1.292328e+001
2.218750e+003,1.275891e+001
2.219714e+003,1.301936e+001
2.220678e+003,1.337303e+001
2.221642e+003,1.354500e+001
2.222606e+003,1.397727e+001
2.223571e+003,1.540294e+001
2.224535e+003,1.726062e+001
2.225499e+003,1.890400e+001
2.226463e+003,2.004912e+001
2.227427e+003,1.941468e+001
2.228392e+003,1.798409e+001
2.229356e+003,1.851173e+001
2.230320e+003,2.093536e+001
2.231284e+003,2.353558e+001
2.232249e+003,2.567596e+001
2.233213e+003,2.740947e+001
2.234177e+003,2.879537e+001
2.235141e+003,3.016976e+001
2.236106e+003,3.180258e+001
2.237070e+003,3.359071e+001
2.238034e+003,3.533061e+001
2.238998e+003,3.712634e+001
2.239963e+003,3.932214e+001
2.240927e+003,4.164258e+001
2.241891e+003,4.368245e+001
2.242855e+003,4.544228e+001
2.243820e+003,4.666871e+001
2.244784e+003,4.770750e+001
2.245748e+003,4.977634e+001
2.246712e+003,5.303479e+001
2.247677e+003,5.618106e+001
2.248641e+003,5.858655e+001
2.249605e+003,6.032603e+001
2.250569e+003,6.093430e+001
2.251533e+003,6.162126e+001
2.252498e+003,6.455343e+001
2.253462e+003,6.702720e+001
2.254426e+003,6.523761e+001
2.255390e+003,6.196782e+001
2.256354e+003,6.164565e+001
2.257319e+003,6.259483e+001
2.258283e+003,6.049663e+001
2.259247e+003,5.586054e+001
2.260211e+003,5.293742e+001
2.261176e+003,5.257140e+001
2.262140e+003,5.070096e+001
2.263104e+003,4.500628e+001
2.264068e+003,3.965712e+001
2.265033e+003,3.744482e+001
2.265997e+003,3.567667e+001
2.266961e+003,3.250262e+001
2.267925e+003,2.940056e+001
2.268890e+003,2.778188e+001
2.269854e+003,2.665206e+001
2.270818e+003,2.469824e+001
2.271782e+003,2.251432e+001
2.272747e+003,2.146675e+001
2.273711e+003,2.132222e+001
2.274675e+003,2.068478e+001
2.275639e+003,1.927977e+001
2.276604e+003,1.757781e+001
2.277568e+003,1.508273e+001
2.278532e+003,1.363011e+001
2.279496e+003,1.484804e+001
2.280460e+003,1.541478e+001
2.281425e+003,1.367401e+001
2.282389e+003,1.152290e+001
2.283353e+003,9.430201e+000
2.284317e+003,8.132520e+000
2.285281e+003,8.936292e+000
2.286246e+003,1.058553e+001
2.287210e+003,1.089011e+001
2.288174e+003,9.993759e+000
2.289138e+003,9.232834e+000
2.290103e+003,8.729294e+000
2.291067e+003,7.905405e+000
2.292031e+003,6.150500e+000
2.292995e+003,5.301285e+000
2.293960e+003,6.082282e+000
2.294924e+003,6.487845e+000
2.295888e+003,6.117813e+000
2.296852e+003,5.120581e+000
2.297817e+003,2.988034e+000
2.298781e+003,1.357944e+000
2.299745e+003,2.045004e+000
2.300709e+003,3.664731e+000
2.301674e+003,3.790421e+000
2.302638e+003,2.722589e+000
2.303602e+003,2.068118e+000
2.304566e+003,1.844784e+000
2.305531e+003,1.305423e+000
2.306495e+003,3.327820e-001
2.307459e+003,4.554413e-001
2.308423e+003,1.966833e+000
2.309387e+003,2.857529e+000
2.310352e+003,2.573386e+000
2.311316e+003,2.037750e+000
2.312280e+003,1.704852e+000
2.313244e+003,1.467825e+000
2.314208e+003,1.190213e+000
2.315173e+003,1.205771e+000
2.316137e+003,2.247397e+000
2.317101e+003,3.420987e+000
2.318065e+003,1.507874e+000
2.319030e+003,-2.200497e+000
2.319994e+003,-1.895203e+000
2.320958e+003,1.313528e+000
2.321922e+003,2.736197e+000
2.322887e+003,2.187451e+000
2.323851e+003,1.128207e+000
2.324815e+003,6.507874e-002
2.325779e+003,-6.517639e-001
2.326744e+003,-8.636322e-001
2.327708e+003,-5.551208e-001
2.328672e+003,2.902954e-001
2.329636e+003,9.372619e-001
2.330601e+003,5.557617e-001
2.331565e+003,-1.108093e-001
2.332529e+003,-8.370361e-002
2.333493e+003,-2.160645e-002
2.334458e+003,-1.154834e+000
2.335422e+003,-2.400339e+000
2.336386e+003,-1.963641e+000
2.337350e+003,-6.141571e-001
2.338314e+003,4.760651e-001
2.339279e+003,8.174530e-001
2.340243e+003,-5.032288e-001
2.341207e+003,-3.347452e+000
2.342171e+003,-5.331192e+000
2.343135e+003,-5.641959e+000
2.344100e+003,-5.343912e+000
2.345064e+003,-4.395676e+000
2.346028e+003,-3.589633e+000
2.346992e+003,-2.955395e+000
2.347957e+003,-2.798373e+000
2.348921e+003,-3.807510e+000
2.349885e+003,-4.780548e+000
2.350849e+003,-4.656778e+000
2.351814e+003,-4.189575e+000
2.352778e+003,-4.245392e+000
2.353742e+003,-4.703778e+000
2.354706e+003,-5.346646e+000
2.355671e+003,-6.099448e+000
2.356635e+003,-6.171854e+000
2.357599e+003,-5.351377e+000
2.358563e+003,-4.792447e+000
2.359528e+003,-4.479743e+000
2.360492e+003,-4.620221e+000
2.361456e+003,-5.442239e+000
2.362420e+003,-5.778128e+000
2.363385e+003,-5.204352e+000
2.364349e+003,-4.472339e+000
2.365313e+003,-3.898529e+000
2.366277e+003,-3.933304e+000
2.367241e+003,-5.088342e+000
2.368206e+003,-6.472049e+000
2.369170e+003,-6.623593e+000
2.370134e+003,-5.890021e+000
2.371098e+003,-5.138385e+000
2.372063e+003,-4.406012e+000
2.373027e+003,-3.711121e+000
2.373991e+003,-3.158627e+000
2.374955e+003,-3.422128e+000
2.375919e+003,-4.292014e+000
2.376884e+003,-4.739020e+000
2.377848e+003,-4.668518e+000
2.378812e+003,-4.746585e+000
2.379776e+003,-5.153216e+000
2.380741e+003,-5.350424e+000
2.381705e+003,-5.021609e+000
2.382669e+003,-4.885404e+000
2.383633e+003,-5.880594e+000
2.384598e+003,-6.565149e+000
2.385562e+003,-5.461014e+000
2.386526e+003,-4.038278e+000
2.387490e+003,-3.333273e+000
2.388455e+003,-3.001761e+000
2.389419e+003,-2.543991e+000
2.390383e+003,-2.307168e+000
2.391347e+003,-2.984613e+000
2.392312e+003,-4.241220e+000
2.393276e+003,-5.438074e+000
2.394240e+003,-6.410474e+000
2.395204e+003,-6.534134e+000
2.396168e+003,-5.422745e+000
2.397133e+003,-4.847711e+000
2.398097e+003,-5.447919e+000
2.399061e+003,-5.520056e+000
2.400025e+003,-4.564609e+000
2.400990e+003,-4.012097e+000
2.401954e+003,-4.360446e+000
2.402918e+003,-4.766611e+000
2.403882e+003,-4.952872e+000
2.404846e+003,-4.652731e+000
2.405811e+003,-3.523343e+000
2.406775e+003,-2.216953e+000
2.407739e+003,-1.663187e+000
2.408703e+003,-1.769330e+000
2.409668e+003,-2.501492e+000
2.410632e+003,-3.559695e+000
2.411596e+003,-3.159213e+000
2.412560e+003,-1.735913e+000
2.413525e+003,-1.101257e+000
2.414489e+003,-1.238409e+000
2.415453e+003,-1.670389e+000
2.416417e+003,-2.144983e+000
2.417382e+003,-2.101132e+000
2.418346e+003,-1.566605e+000
2.419310e+003,-1.547644e+000
2.420274e+003,-2.424991e+000
2.421239e+003,-2.838406e+000
2.422203e+003,-1.715131e+000
2.423167e+003,-6.211853e-001
2.424131e+003,-1.005450e+000
2.425095e+003,-1.342490e+000
2.426060e+003,-2.724152e-001
2.427024e+003,8.034729e-001
2.427988e+003,9.895233e-001
2.428952e+003,4.805512e-001
2.429917e+003,-1.239151e+000
2.430881e+003,-2.942923e+000
2.431845e+003,-2.341361e+000
2.432809e+003,-2.515869e-001
2.433773e+003,-5.281067e-002
2.434738e+003,-1.745197e+000
2.435702e+003,-1.966629e+000
2.436666e+003,-6.961670e-002
2.437630e+003,9.504089e-001
2.438595e+003,8.696442e-001
2.439559e+003,6.685028e-001
2.440523e+003,3.449646e-001
2.441487e+003,1.344632e+000
2.442452e+003,4.189407e+000
2.443416e+003,6.130750e+000
2.444380e+003,5.768530e+000
2.445344e+003,4.529452e+000
2.446309e+003,3.571143e+000
2.447273e+003,2.770966e+000
2.448237e+003,1.742792e+000
2.449201e+003,1.242838e+000
2.450166e+003,3.447992e+000
2.451130e+003,6.319846e+000
2.452094e+003,6.307782e+000
2.453058e+003,4.807569e+000
2.454022e+003,4.041654e+000
2.454987e+003,3.655716e+000
2.455951e+003,2.065305e+000
2.456915e+003,1.010651e-001
2.457879e+003,4.926544e-001
2.458844e+003,3.179019e+000
2.459808e+003,5.172546e+000
2.460772e+003,5.787707e+000
2.461736e+003,5.649118e+000
2.462700e+003,3.897504e+000
2.463665e+003,3.031207e+000
2.464629e+003,4.234046e+000
2.465593e+003,4.868021e+000
2.466557e+003,3.893237e+000
2.467522e+003,3.374637e+000
2.468486e+003,4.271765e+000
2.469450e+003,5.556418e+000
2.470414e+003,6.567008e+000
2.471379e+003,7.469357e+000
2.472343e+003,8.494855e+000
2.473307e+003,9.224787e+000
2.474271e+003,8.638632e+000
2.475236e+003,7.287268e+000
2.476200e+003,7.031116e+000
2.477164e+003,7.507904e+000
2.478128e+003,7.552301e+000
2.479093e+003,7.443372e+000
2.480057e+003,8.346268e+000
2.481021e+003,9.746106e+000
2.481985e+003,9.780710e+000
2.482949e+003,8.692227e+000
2.483914e+003,8.766439e+000
2.484878e+003,1.033658e+001
2.485842e+003,1.052304e+001
2.486806e+003,7.743720e+000
2.487771e+003,6.690598e+000
2.488735e+003,1.139408e+001
2.489699e+003,1.430873e+001
2.490663e+003,1.150114e+001
2.491627e+003,9.412821e+000
2.492592e+003,1.115273e+001
2.493556e+003,1.272689e+001
2.494520e+003,1.191935e+001
2.495484e+003,1.090279e+001
2.496449e+003,1.145617e+001
2.497413e+003,1.283498e+001
2.498377e+003,1.417698e+001
2.499341e+003,1.495928e+001
2.500306e+003,1.332682e+001
2.501270e+003,1.015587e+001
2.502234e+003,9.591235e+000
2.503198e+003,1.100304e+001
2.504163e+003,1.260300e+001
2.505127e+003,1.397726e+001
2.506091e+003,1.396846e+001
2.507055e+003,1.318469e+001
2.508020e+003,1.403073e+001
2.508984e+003,1.632646e+001
2.509948e+003,1.716366e+001
2.510912e+003,1.581537e+001
2.511876e+003,1.502736e+001
2.512841e+003,1.589547e+001
2.513805e+003,1.719450e+001
2.514769e+003,1.896029e+001
2.515733e+003,2.037716e+001
2.516698e+003,2.063435e+001
2.517662e+003,2.143517e+001
2.518626e+003,2.444003e+001
2.519590e+003,2.609721e+001
2.520554e+003,2.384092e+001
2.521519e+003,2.131381e+001
2.522483e+003,2.161182e+001
2.523447e+003,2.355526e+001
2.524411e+003,2.562175e+001
2.525376e+003,2.755289e+001
2.526340e+003,2.840869e+001
2.527304e+003,2.860401e+001
2.528268e+003,2.952713e+001
2.529233e+003,3.101628e+001
2.530197e+003,3.258561e+001
2.531161e+003,3.440513e+001
2.532125e+003,3.750288e+001
2.533090e+003,4.094423e+001
2.534054e+003,4.217875e+001
2.535018e+003,4.146546e+001
2.535982e+003,4.123267e+001
2.536947e+003,4.203597e+001
2.537911e+003,4.307872e+001
2.538875e+003,4.400687e+001
2.539839e+003,4.563094e+001
2.540803e+003,4.894318e+001
2.541768e+003,5.130535e+001
2.542732e+003,5.193172e+001
2.543696e+003,5.301174e+001
2.544660e+003,5.546874e+001
2.545625e+003,5.736593e+001
2.546589e+003,5.778033e+001
2.547553e+003,5.731911e+001
2.548517e+003,5.633593e+001
2.549482e+003,5.610413e+001
2.550446e+003,5.843457e+001
2.551410e+003,6.120312e+001
2.552374e+003,6.097897e+001
2.553339e+003,5.913287e+001
2.554303e+003,5.748568e+001
2.555267e+003,5.572009e+001
2.556231e+003,5.248163e+001
2.557196e+003,4.959348e+001
2.558160e+003,5.044555e+001
2.559124e+003,5.281017e+001
2.560088e+003,5.268240e+001
2.561052e+003,5.041254e+001
2.562017e+003,4.831625e+001
2.562981e+003,4.647419e+001
2.563945e+003,4.427153e+001
2.564909e+003,4.137014e+001
2.565874e+003,4.006306e+001
2.566838e+003,4.063395e+001
2.567802e+003,4.088787e+001
2.568766e+003,4.064999e+001
2.569730e+003,4.000901e+001
2.570695e+003,3.895005e+001
2.571659e+003,3.710043e+001
2.572623e+003,3.445909e+001
2.573587e+003,3.198568e+001
2.574552e+003,3.022976e+001
2.575516e+003,2.870716e+001
2.576480e+003,2.707052e+001
2.577444e+003,2.564833e+001
2.578409e+003,2.466357e+001
2.579373e+003,2.372811e+001
2.580337e+003,2.276069e+001
2.581301e+003,2.177528e+001
2.582266e+003,2.072976e+001
2.583230e+003,1.978952e+001
2.584194e+003,1.912322e+001
2.585158e+003,1.839193e+001
2.586123e+003,1.727800e+001
2.587087e+003,1.592373e+001
2.588051e+003,1.439254e+001
2.589015e+003,1.311946e+001
2.589979e+003,1.378102e+001
2.590944e+003,1.573225e+001
2.591908e+003,1.689539e+001
2.592872e+003,1.703763e+001
2.593836e+003,1.477150e+001
2.594801e+003,1.145755e+001
2.595765e+003,1.015129e+001
2.596729e+003,1.031003e+001
2.597693e+003,9.723224e+000
2.598657e+003,8.309052e+000
2.599622e+003,7.251022e+000
2.600586e+003,6.790128e+000
2.601550e+003,7.025918e+000
2.602514e+003,8.635172e+000
2.603479e+003,8.812185e+000
2.604443e+003,6.741907e+000
2.605407e+003,5.752753e+000
2.606371e+003,6.358243e+000
2.607336e+003,6.760364e+000
2.608300e+003,6.552951e+000
2.609264e+003,6.493451e+000
2.610228e+003,6.799914e+000
2.611193e+003,6.393140e+000
2.612157e+003,4.708038e+000
2.613121e+003,3.149475e+000
2.614085e+003,2.760520e+000
2.615050e+003,3.029016e+000
2.616014e+003,4.319263e+000
2.616978e+003,4.979129e+000
2.617942e+003,3.015686e+000
2.618906e+003,1.353064e+000
2.619871e+003,2.617718e+000
2.620835e+003,3.850131e+000
2.621799e+003,2.298584e+000
2.622763e+003,5.459259e-001
2.623728e+003,1.219611e+000
2.624692e+003,2.587103e+000
2.625656e+003,1.755466e+000
2.626620e+003,-1.081970e-001
2.627584e+003,4.076324e-001
2.628549e+003,2.363840e+000
2.629513e+003,2.690414e+000
2.630477e+003,1.954361e+000
2.631441e+003,1.154358e+000
2.632406e+003,4.148010e-001
2.633370e+003,-3.724823e-001
2.634334e+003,-9.115051e-001
2.635298e+003,-4.103088e-001
2.636263e+003,7.489685e-001
2.637227e+003,1.237524e+000
2.638191e+003,9.326752e-001
2.639155e+003,5.931122e-001
2.640120e+003,1.684967e-001
2.641084e+003,3.038879e-001
2.642048e+003,1.031607e+000
2.643012e+003,2.030045e+000
2.643977e+003,3.307916e+000
2.644941e+003,3.848050e+000
2.645905e+003,3.534448e+000
2.646869e+003,2.910452e+000
2.647833e+003,2.140265e+000
2.648798e+003,1.003760e+000
2.649762e+003,-4.756226e-001
2.650726e+003,-1.262851e+000
2.651690e+003,-7.159485e-001
2.652655e+003,-6.856690e-002
2.653619e+003,2.529724e-001
2.654583e+003,3.956085e-001
2.655547e+003,3.217285e-001
2.656511e+003,1.898773e-001
2.657476e+003,-6.591797e-002
2.658440e+003,-1.215698e-001
2.659404e+003,2.976318e-001
2.660368e+003,1.337891e-001
2.661333e+003,-1.359769e+000
2.662297e+003,-2.626044e+000
2.663261e+003,-2.124396e+000
2.664225e+003,-9.704132e-001
2.665190e+003,-3.151550e-001
2.666154e+003,-1.730774e-001
2.667118e+003,-1.083054e+000
2.668082e+003,-1.857501e+000
2.669047e+003,-9.990600e-001
2.670011e+003,-4.190064e-003
2.670975e+003,-5.078369e-001
2.671939e+003,-1.401401e+000
2.672904e+003,-1.480148e+000
2.673868e+003,-9.309265e-001
2.674832e+003,2.020355e-001
2.675796e+003,1.288864e+000
2.676760e+003,5.612091e-001
2.677725e+003,-1.440152e+000
2.678689e+003,-2.753119e+000
2.679653e+003,-3.318503e+000
2.680617e+003,-2.582471e+000
2.681582e+003,-1.275073e+000
2.682546e+003,-7.706299e-001
2.683510e+003,-8.645630e-001
2.684474e+003,-1.289084e+000
2.685438e+003,-1.590277e+000
2.686403e+003,-3.715851e-001
2.687367e+003,1.947144e+000
2.688331e+003,1.740256e+000
2.689295e+003,-1.123972e+000
2.690260e+003,-2.059762e+000
2.691224e+003,-8.386230e-001
2.692188e+003,3.205353e-001
2.693152e+003,1.303986e+000
2.694117e+003,1.227728e+000
2.695081e+003,2.226074e-001
2.696045e+003,-7.529358e-001
2.697009e+003,-1.463132e+000
2.697974e+003,-2.182230e+000
2.698938e+003,-2.820480e+000
2.699902e+003,-2.324298e+000
2.700866e+003,-2.529266e-001
2.701831e+003,1.149707e+000
2.702795e+003,9.805023e-001
2.703759e+003,6.698364e-001
2.704723e+003,2.378723e-001
2.705688e+003,-6.808472e-002
2.706652e+003,-2.463989e-001
2.707616e+003,-1.544403e-001
2.708580e+003,2.321289e-001
2.709544e+003,-9.433899e-002
2.710509e+003,-1.413544e+000
2.711473e+003,-2.191110e+000
2.712437e+003,-1.591867e+000
2.713401e+003,-8.773102e-001
2.714365e+003,-9.995850e-001
2.715330e+003,-8.147370e-001
2.716294e+003,1.136133e+000
2.717258e+003,2.167468e+000
2.718222e+003,5.941284e-001
2.719187e+003,-1.003687e+000
2.720151e+003,-2.022992e+000
2.721115e+003,-2.400800e+000
2.722079e+003,-2.026434e+000
2.723044e+003,-1.795825e+000
2.724008e+003,-2.395468e+000
2.724972e+003,-2.732983e+000
2.725936e+003,-1.596951e+000
2.726901e+003,-6.046142e-002
2.727865e+003,1.263861e+000
2.728829e+003,1.704810e+000
2.729793e+003,-1.186035e-001
2.730758e+003,-1.983139e+000
2.731722e+003,-2.333249e+000
2.732686e+003,-2.151910e+000
2.733650e+003,-2.064236e+000
2.734615e+003,-1.953342e+000
2.735579e+003,-1.660480e+000
2.736543e+003,-1.543262e+000
2.737507e+003,-2.134604e+000
2.738471e+003,-2.958475e+000
2.739436e+003,-3.190186e+000
2.740400e+003,-2.988339e+000
2.741364e+003,-2.306140e+000
2.742328e+003,-1.667920e+000
2.743292e+003,-2.099719e+000
2.744257e+003,-2.498764e+000
2.745221e+003,-1.127432e+000
2.746185e+003,5.299469e-001
2.747149e+003,3.791382e-001
2.748114e+003,-6.448303e-001
2.749078e+003,-1.219226e+000
2.750042e+003,-1.439496e+000
2.751006e+003,-1.685867e+000
2.751971e+003,-1.684006e+000
2.752935e+003,1.679199e-001
2.753899e+003,2.571860e+000
2.754863e+003,2.155356e+000
2.755828e+003,6.616394e-001
2.756792e+003,1.444101e+000
2.757756e+003,2.939358e+000
2.758720e+003,1.950433e+000
2.759685e+003,-4.133545e-001
2.760649e+003,-8.094482e-001
2.761613e+003,-1.161346e-001
2.762577e+003,-1.542154e+000
2.763542e+003,-4.556485e+000
2.764506e+003,-4.621533e+000
2.765470e+003,-2.456735e+000
2.766434e+003,-2.047592e+000
2.767398e+003,-2.643533e+000
2.768363e+003,-1.756491e+000
2.769327e+003,-2.507233e-001
2.770291e+003,-7.684571e-001
2.771255e+003,-2.316095e+000
2.772219e+003,-1.628006e+000
2.773184e+003,9.424866e-001
2.774148e+003,1.995166e+000
2.775112e+003,1.506116e+000
2.776076e+003,-6.972046e-002
2.777041e+003,-2.757352e+000
2.778005e+003,-2.489069e+000
2.778969e+003,3.274536e-002
2.779933e+003,1.007803e+000
2.780898e+003,6.163910e-001
2.781862e+003,2.747498e-001
2.782826e+003,1.215179e-001
2.783790e+003,-1.081177e-001
2.784755e+003,-5.200806e-001
2.785719e+003,-1.517258e+000
2.786683e+003,-3.084500e+000
2.787647e+003,-3.063968e+000
2.788612e+003,-1.171286e+000
2.789576e+003,-5.139313e-001
2.790540e+003,-1.024429e+000
2.791504e+003,-3.985962e-001
2.792469e+003,9.536346e-001
2.793433e+003,-1.817139e-001
2.794397e+003,-3.026576e+000
2.795361e+003,-3.666283e+000
2.796325e+003,-2.005371e+000
2.797290e+003,-5.964416e-001
2.798254e+003,5.819702e-003
2.799218e+003,-3.190765e-001
2.800182e+003,-1.835327e+000
2.801146e+003,-2.179013e+000
2.802111e+003,-1.143890e+000
2.803075e+003,-1.044601e+000
2.804039e+003,-1.866074e+000
2.805003e+003,-2.108203e+000
2.805968e+003,-1.730160e+000
2.806932e+003,-1.233820e+000
2.807896e+003,-7.346314e-001
2.808860e+003,-3.933197e-001
2.809825e+003,-1.668671e-001
2.810789e+003,8.006042e-001
2.811753e+003,3.041943e+000
2.812717e+003,2.811511e+000
2.813682e+003,-7.852997e-001
2.814646e+003,-2.012479e+000
2.815610e+003,-8.294464e-001
2.816574e+003,-5.806000e-001
2.817539e+003,-1.396689e+000
2.818503e+003,-1.796439e+000
2.819467e+003,-1.677588e+000
2.820431e+003,-1.961978e+000
2.821396e+003,-2.652414e+000
2.822360e+003,-2.503847e+000
2.823324e+003,-1.141348e+000
2.824288e+003,-4.554474e-001
2.825252e+003,-6.963288e-001
2.826217e+003,-1.154791e+000
2.827181e+003,-1.840573e+000
2.828145e+003,-1.387518e+000
2.829109e+003,-1.108093e-002
2.830073e+003,4.068909e-001
2.831038e+003,-1.563843e-001
2.832002e+003,-6.038696e-001
2.832966e+003,-6.465149e-001
2.833930e+003,-4.553558e-001
2.834895e+003,-7.498169e-002
2.835859e+003,8.521606e-001
2.836823e+003,2.605240e+000
2.837787e+003,3.493839e+000
2.838752e+003,3.510724e+000
2.839716e+003,2.756302e+000
2.840680e+003,1.389230e+000
2.841644e+003,1.396210e-001
2.842609e+003,-7.930603e-001
2.843573e+003,-9.944977e-001
2.844537e+003,-6.714783e-001
2.845501e+003,-7.914917e-001
2.846466e+003,-1.546838e+000
2.847430e+003,-2.542349e+000
2.848394e+003,-3.895116e+000
2.849358e+003,-3.681934e+000
2.850323e+003,-1.782400e+000
2.851287e+003,-3.656372e-001
2.852251e+003,4.281372e-001
2.853215e+003,2.124298e-001
2.854179e+003,-6.541870e-001
2.855144e+003,-1.096982e+000
2.856108e+003,-1.074594e+000
2.857072e+003,-1.106906e+000
2.858036e+003,-1.250919e+000
2.859000e+003,-1.263602e+000
2.859965e+003,-1.133899e+000
2.860929e+003,-5.923828e-001
2.861893e+003,3.597961e-001
2.862857e+003,5.290985e-001
2.863822e+003,9.988403e-002
2.864786e+003,-2.639709e-001
2.865750e+003,-3.713226e-001
2.866714e+003,5.796631e-001
2.867679e+003,1.764227e+000
2.868643e+003,6.646484e-001
2.869607e+003,-2.191891e+000
2.870571e+003,-3.152148e+000
2.871536e+003,-2.320168e+000
2.872500e+003,-1.382892e+000
2.873464e+003,-3.990601e-001
2.874428e+003,-5.255310e-001
2.875393e+003,-1.265137e+000
2.876357e+003,-5.001556e-001
2.877321e+003,8.250672e-001
2.878285e+003,-3.228455e-002
2.879250e+003,-1.905406e+000
2.880214e+003,-1.678990e+000
2.881178e+003,-7.386780e-002
2.882142e+003,-3.659668e-002
2.883106e+003,-1.165729e+000
2.884071e+003,-1.898544e+000
2.885035e+003,-2.231799e+000
2.885999e+003,-1.984392e+000
2.886963e+003,-1.432291e+000
2.887927e+003,-1.366541e+000
2.888892e+003,-1.302954e+000
2.889856e+003,-3.494202e-001
2.890820e+003,1.055118e+000
2.891784e+003,2.607025e+000
2.892749e+003,3.613193e+000
2.893713e+003,2.937988e+000
2.894677e+003,1.416608e+000
2.895641e+003,8.826477e-001
2.896606e+003,1.064111e+000
2.897570e+003,1.554437e+000
2.898534e+003,1.932303e+000
2.899498e+003,1.539319e+000
2.900463e+003,5.536041e-001
2.901427e+003,-1.594041e+000
2.902391e+003,-3.323431e+000
2.903355e+003,-2.534572e+000
2.904320e+003,-1.170836e+000
2.905284e+003,-1.223802e+000
2.906248e+003,-1.704243e+000
2.907212e+003,-9.843567e-001
2.908177e+003,-1.596100e-001
2.909141e+003,-1.496686e+000
2.910105e+003,-3.199554e+000
2.911069e+003,-3.323544e+000
2.912033e+003,-3.021278e+000
2.912998e+003,-3.341652e+000
2.913962e+003,-3.252681e+000
2.914926e+003,-1.943901e+000
2.915890e+003,-6.721131e-001
2.916854e+003,-3.432342e-001
2.917819e+003,-4.320831e-001
2.918783e+003,-4.473023e-001
2.919747e+003,-4.366364e-001
2.920711e+003,-3.166077e-001
2.921676e+003,-3.713013e-001
2.922640e+003,-1.217085e+000
2.923604e+003,-1.571176e+000
2.924568e+003,-6.176880e-001
2.925533e+003,1.471863e-001
2.926497e+003,1.834442e-001
2.927461e+003,3.875732e-001
2.928425e+003,1.200238e+000
2.929390e+003,-3.558670e+000
2.930354e+003,-1.949551e+001
2.931318e+003,-2.833327e+001
2.932282e+003,-1.160701e+001
2.933247e+003,1.439218e+000
2.934211e+003,9.644348e-001
2.935175e+003,6.233063e-001
2.936139e+003,1.694885e+000
2.937104e+003,1.419772e+000
2.938068e+003,-5.906082e-001
2.939032e+003,-1.732555e+000
2.939996e+003,-1.220201e+000
2.940960e+003,5.296936e-002
2.941925e+003,1.671710e+000
2.942889e+003,1.783054e+000
2.943853e+003,-9.508377e-001
2.944817e+003,-2.765642e+000
2.945781e+003,-3.491928e+000
2.946746e+003,-3.553262e+000
2.947710e+003,-3.040753e+000
2.948674e+003,-2.426204e+000
2.949638e+003,-1.782552e+000
2.950603e+003,-1.009210e+000
2.951567e+003,-1.708359e-001
2.952531e+003,5.706116e-001
2.953495e+003,1.092154e+000
2.954460e+003,7.824920e-001
2.955424e+003,-3.394913e-001
2.956388e+003,-1.288667e+000
2.957352e+003,-2.020535e+000
2.958317e+003,-1.884193e+000
2.959281e+003,-1.156046e+000
2.960245e+003,-2.536606e-001
2.961209e+003,3.563171e-001
2.962174e+003,-4.896835e-001
2.963138e+003,-1.941608e+000
2.964102e+003,-1.919693e+000
2.965066e+003,-9.816238e-001
2.966031e+003,-4.465500e-001
2.966995e+003,-1.348282e-001
2.967959e+003,9.874665e-001
2.968923e+003,1.923065e+000
2.969887e+003,-4.062546e-001
2.970852e+003,-3.139003e+000
2.971816e+003,-2.561778e+000
2.972780e+003,-7.220810e-001
2.973744e+003,5.890961e-001
2.974708e+003,1.381805e+000
2.975673e+003,1.781454e+000
2.976637e+003,1.203723e+000
2.977601e+003,-1.320131e+000
2.978565e+003,-3.800203e+000
2.979530e+003,-3.304587e+000
2.980494e+003,-1.884030e+000
2.981458e+003,-4.453873e-001
2.982422e+003,2.784638e-001
2.983387e+003,-5.689926e-001
2.984351e+003,-1.344341e+000
2.985315e+003,-1.489780e+000
2.986279e+003,-1.210638e+000
2.987244e+003,-6.510834e-001
2.988208e+003,-6.283157e-001
2.989172e+003,-1.739935e+000
2.990136e+003,-2.185661e+000
2.991101e+003,3.737183e-002
2.992065e+003,1.075348e+000
2.993029e+003,-5.733643e-001
2.993993e+003,-1.313556e+000
2.994958e+003,-7.495712e-001
2.995922e+003,-6.892090e-002
2.996886e+003,4.068787e-001
2.997850e+003,5.541382e-002
2.998814e+003,-8.551300e-001
2.999779e+003,2.269897e-002
3.000743e+003,3.259854e+000
3.001707e+003,4.417304e+000
3.002671e+003,2.897586e+000
3.003635e+003,1.947818e+000
3.004600e+003,1.510611e+000
3.005564e+003,8.172516e-001
3.006528e+003,-6.576691e-002
3.007492e+003,-1.023911e+000
3.008457e+003,-1.725665e+000
3.009421e+003,-1.338847e+000
3.010385e+003,-3.064056e-001
3.011349e+003,3.815185e-001
3.012314e+003,3.434906e-001
3.013278e+003,-1.876831e+000
3.014242e+003,-4.919850e+000
3.015206e+003,-3.556098e+000
3.016171e+003,-5.627548e-001
3.017135e+003,-7.771209e-001
3.018099e+003,-1.956403e+000
3.019063e+003,-1.715004e+000
3.020028e+003,-9.171371e-001
3.020992e+003,-2.681137e-001
3.021956e+003,1.225281e-003
3.022920e+003,-3.798966e-001
3.023885e+003,-6.299087e-001
3.024849e+003,3.122910e-001
3.025813e+003,1.073540e+000
3.026777e+003,-8.581848e-002
3.027741e+003,-1.191104e+000
3.028706e+003,-1.251129e+000
3.029670e+003,-9.314651e-001
3.030634e+003,-1.799744e-001
3.031598e+003,-5.335129e-001
3.032563e+003,-2.357216e+000
3.033527e+003,-2.865677e+000
3.034491e+003,-1.028809e+000
3.035455e+003,4.659515e-001
3.036420e+003,4.141892e-001
3.037384e+003,1.076447e-001
3.038348e+003,-3.470734e-001
3.039312e+003,-6.462402e-001
3.040277e+003,-7.745148e-001
3.041241e+003,-8.770965e-001
3.042205e+003,-9.461762e-001
3.043169e+003,-9.251984e-001
3.044134e+003,-7.357483e-001
3.045098e+003,2.313690e-002
3.046062e+003,1.041557e+000
3.047026e+003,9.811859e-001
3.047990e+003,4.162750e-002
3.048955e+003,-9.927109e-001
3.049919e+003,-1.935153e+000
3.050883e+003,-1.658443e+000
3.051847e+003,-9.469970e-001
3.052812e+003,-1.152347e+000
3.053776e+003,-1.687697e+000
3.054740e+003,-2.206390e+000
3.055704e+003,-2.003755e+000
3.056668e+003,-1.286530e-001
3.057633e+003,1.385997e+000
3.058597e+003,1.591644e-001
3.059561e+003,-1.620644e+000
3.060525e+003,-7.692307e-001
3.061490e+003,4.486084e-004
3.062454e+003,-2.144774e+000
3.063418e+003,-3.715991e+000
3.064382e+003,-3.211220e+000
3.065347e+003,-2.586816e+000
3.066311e+003,-2.366017e+000
3.067275e+003,-1.824333e+000
3.068239e+003,-7.390396e-001
3.069204e+003,2.581299e-001
3.070168e+003,8.600815e-001
3.071132e+003,5.442078e-001
3.072096e+003,-1.678812e+000
3.073061e+003,-1.995412e+000
3.074025e+003,-1.198257e-001
3.074989e+003,5.809784e-001
3.075953e+003,7.968445e-002
3.076917e+003,-7.513367e-001
3.077882e+003,-1.593370e+000
3.078846e+003,-2.080838e+000
3.079810e+003,-2.226186e+000
3.080774e+003,-2.330855e+000
3.081739e+003,-2.306110e+000
3.082703e+003,-1.630595e+000
3.083667e+003,-7.769318e-001
3.084631e+003,-1.676910e+000
3.085595e+003,-3.091681e+000
3.086560e+003,-3.141505e+000
3.087524e+003,-2.484395e+000
3.088488e+003,-1.160100e+000
3.089452e+003,-5.183014e-001
3.090417e+003,-1.599558e+000
3.091381e+003,-2.593189e+000
3.092345e+003,-2.065079e+000
3.093309e+003,-1.642047e+000
3.094274e+003,-3.170053e+000
3.095238e+003,-3.996829e+000
3.096202e+003,-1.429388e+000
3.097166e+003,3.506424e-001
3.098131e+003,6.996261e-001
3.099095e+003,-4.486710e-001
3.100059e+003,-2.926929e+000
3.101023e+003,-3.905507e+000
3.101988e+003,-2.976131e+000
3.102952e+003,-1.822389e+000
3.103916e+003,-1.030519e+000
3.104880e+003,-9.757782e-001
3.105844e+003,-1.675360e+000
3.106809e+003,-1.955354e+000
3.107773e+003,-1.855113e+000
3.108737e+003,-1.735977e+000
3.109701e+003,-1.740697e+000
3.110666e+003,-2.367140e+000
3.111630e+003,-3.098675e+000
3.112594e+003,-3.042970e+000
3.113558e+003,-2.616960e+000
3.114522e+003,-2.516072e+000
3.115487e+003,-2.256470e+000
3.116451e+003,-9.607559e-001
3.117415e+003,1.759613e-001
3.118379e+003,-1.129904e+000
3.119344e+003,-2.577122e+000
3.120308e+003,-2.248329e+000
3.121272e+003,-1.838741e+000
3.122236e+003,-2.112927e+000
3.123201e+003,-1.699625e+000
3.124165e+003,-2.002136e-001
3.125129e+003,6.845474e-001
3.126093e+003,3.038239e-001
3.127058e+003,-1.729309e-001
3.128022e+003,-2.346313e-001
3.128986e+003,-5.111267e-001
3.129950e+003,-1.163808e+000
3.130915e+003,-1.569081e+000
3.131879e+003,-1.801190e+000
3.132843e+003,-3.181145e+000
3.133807e+003,-4.905031e+000
3.134771e+003,-4.225601e+000
3.135736e+003,-2.132181e+000
3.136700e+003,-1.204968e+000
3.137664e+003,-1.305218e+000
3.138628e+003,-1.856468e+000
3.139593e+003,-2.638158e+000
3.140557e+003,-3.503320e+000
3.141521e+003,-3.799927e+000
3.142485e+003,-1.623181e+000
3.143449e+003,3.718460e-001
3.144414e+003,-1.478836e-001
3.145378e+003,-1.248280e+000
3.146342e+003,-2.270717e+000
3.147306e+003,-2.703412e+000
3.148271e+003,-2.325525e+000
3.149235e+003,-1.347501e+000
3.150199e+003,1.932983e-001
3.151163e+003,3.116852e-001
3.152128e+003,-3.169882e+000
3.153092e+003,-4.497423e+000
3.154056e+003,-3.309076e+000
3.155020e+003,-2.239838e+000
3.155985e+003,-1.649107e+000
3.156949e+003,-2.611415e+000
3.157913e+003,-4.112296e+000
3.158877e+003,-2.935652e+000
3.159842e+003,-2.070297e-001
3.160806e+003,-1.048828e-001
3.161770e+003,-1.693274e+000
3.162734e+003,-2.592339e+000
3.163698e+003,-2.886815e+000
3.164663e+003,-2.473438e+000
3.165627e+003,-1.948116e+000
3.166591e+003,-1.930984e+000
3.167555e+003,-2.027881e+000
3.168520e+003,-2.086192e+000
3.169484e+003,-1.887972e+000
3.170448e+003,-1.324065e+000
3.171412e+003,-7.097946e-001
3.172376e+003,-2.343430e-001
3.173341e+003,-3.696228e-001
3.174305e+003,-1.797191e+000
3.175269e+003,-2.420192e+000
3.176233e+003,-1.916829e+000
3.177198e+003,-1.439700e+000
3.178162e+003,-1.153923e+000
3.179126e+003,-1.988838e+000
3.180090e+003,-3.253030e+000
3.181055e+003,-2.554852e+000
3.182019e+003,-7.067719e-001
3.182983e+003,-7.518280e-001
3.183947e+003,-1.893906e+000
3.184912e+003,-2.159875e+000
3.185876e+003,-1.838759e+000
3.186840e+003,-1.291771e+000
3.187804e+003,-8.943787e-001
3.188769e+003,-8.742676e-001
3.189733e+003,-1.471629e+000
3.190697e+003,-3.208559e+000
3.191661e+003,-4.218648e+000
3.192625e+003,-3.725975e+000
3.193590e+003,-2.644936e+000
3.194554e+003,-1.501132e+000
3.195518e+003,-1.102109e+000
3.196482e+003,-2.190186e+000
3.197447e+003,-2.467070e+000
3.198411e+003,-1.700974e+000
3.199375e+003,-4.922913e-001
3.200339e+003,9.566513e-001
3.201303e+003,1.817644e+000
3.202268e+003,2.130954e+000
3.203232e+003,2.240543e+000
3.204196e+003,1.985081e+000
3.205160e+003,8.280380e-001
3.206125e+003,-5.522431e-001
3.207089e+003,-9.321289e-001
3.208053e+003,-7.208557e-001
3.209017e+003,-5.883636e-001
3.209982e+003,-2.703110e-001
3.210946e+003,9.606964e-001
3.211910e+003,1.546747e+000
3.212874e+003,8.144653e-001
3.213839e+003,2.097717e-001
3.214803e+003,1.761276e-001
3.215767e+003,-1.821350e-001
3.216731e+003,-1.142464e+000
3.217696e+003,-1.654065e+000
3.218660e+003,-1.272360e+000
3.219624e+003,-1.369299e+000
3.220588e+003,-1.958699e+000
3.221552e+003,-1.924042e+000
3.222517e+003,-1.464890e+000
3.223481e+003,-9.585617e-001
3.224445e+003,-8.119568e-001
3.225409e+003,-2.211488e+000
3.226374e+003,-3.480908e+000
3.227338e+003,-2.683362e+000
3.228302e+003,-9.864319e-001
3.229266e+003,3.403793e-001
3.230230e+003,1.099036e+000
3.231195e+003,8.670715e-001
3.232159e+003,3.824493e-001
3.233123e+003,-1.087845e-001
3.234087e+003,-8.495620e-001
3.235052e+003,-1.887308e+000
3.236016e+003,-1.289740e+000
3.236980e+003,7.186035e-001
3.237944e+003,2.438187e-001
3.238909e+003,-2.900946e+000
3.239873e+003,-2.459407e+000
3.240837e+003,1.260486e+000
3.241801e+003,2.509429e+000
3.242766e+003,1.750740e+000
3.243730e+003,4.469253e-001
3.244694e+003,-1.040779e+000
3.245658e+003,-2.862987e+000
3.246623e+003,-3.704649e+000
3.247587e+003,-2.032552e+000
3.248551e+003,-8.472412e-001
3.249515e+003,-2.081506e+000
3.250479e+003,-3.289384e+000
3.251444e+003,-2.624817e+000
3.252408e+003,-1.689133e+000
3.253372e+003,-1.374257e+000
3.254336e+003,-7.080231e-001
3.255301e+003,4.549072e-001
3.256265e+003,4.422760e-001
3.257229e+003,-6.016480e-001
3.258193e+003,-1.689545e+000
3.259157e+003,-2.525182e+000
3.260122e+003,-2.861020e+000
3.261086e+003,-2.728600e+000
3.262050e+003,-2.197520e+000
3.263014e+003,-1.547366e+000
3.263979e+003,-1.366927e+000
3.264943e+003,-1.494437e+000
3.265907e+003,-2.137451e+000
3.266871e+003,-2.346410e+000
3.267836e+003,-1.283293e+000
3.268800e+003,-8.391190e-001
3.269764e+003,-1.509721e+000
3.270728e+003,-1.274371e+000
3.271693e+003,3.055847e-001
3.272657e+003,3.871918e-002
3.273621e+003,-3.320937e+000
3.274585e+003,-3.396153e+000
3.275550e+003,2.159378e-001
3.276514e+003,1.040015e+000
3.277478e+003,6.668548e-002
3.278442e+003,-8.143616e-002
3.279406e+003,1.000381e-001
3.280371e+003,-4.578903e-001
3.281335e+003,-1.188295e+000
3.282299e+003,-1.584167e+000
3.283263e+003,-1.636549e+000
3.284228e+003,-1.338777e+000
3.285192e+003,-7.075546e-001
3.286156e+003,9.476395e-001
3.287120e+003,1.313779e+000
3.288084e+003,-9.748245e-001
3.289049e+003,-4.694733e-001
3.290013e+003,2.707111e+000
3.290977e+003,2.081345e+000
3.291941e+003,-1.583707e+000
3.292906e+003,-2.674672e+000
3.293870e+003,-1.002083e+000
3.294834e+003,6.533310e-001
3.295798e+003,1.928230e+000
3.296763e+003,1.728072e+000
3.297727e+003,8.531845e-001
3.298691e+003,8.128662e-002
3.299655e+003,8.211975e-002
3.300620e+003,2.356610e+000
3.301584e+003,3.702496e+000
3.302548e+003,3.213233e+000
3.303512e+003,1.352696e+000
3.304477e+003,-1.232167e+000
3.305441e+003,-1.102115e+000
3.306405e+003,3.042798e+000
3.307369e+003,5.095252e+000
3.308333e+003,4.614827e+000
3.309298e+003,4.712160e+000
3.310262e+003,5.116101e+000
3.311226e+003,5.223921e+000
3.312190e+003,4.816641e+000
3.313155e+003,3.061562e+000
3.314119e+003,1.412080e+000
3.315083e+003,9.260224e-001
3.316047e+003,1.501602e+000
3.317011e+003,3.157515e+000
3.317976e+003,4.440482e+000
3.318940e+003,4.020309e+000
3.319904e+003,3.521388e+000
3.320868e+003,3.254724e+000
3.321833e+003,2.780576e+000
3.322797e+003,2.250931e+000
3.323761e+003,3.075015e+000
3.324725e+003,4.577649e+000
3.325690e+003,4.501175e+000
3.326654e+003,3.417856e+000
3.327618e+003,3.071736e+000
3.328582e+003,3.164224e+000
3.329547e+003,3.308322e+000
3.330511e+003,3.279884e+000
3.331475e+003,2.647704e+000
3.332439e+003,1.978111e+000
3.333404e+003,1.453833e+000
3.334368e+003,1.178795e+000
3.335332e+003,1.174429e+000
3.336296e+003,1.399822e+000
3.337260e+003,1.711075e+000
3.338225e+003,1.579692e+000
3.339189e+003,8.901245e-001
3.340153e+003,-1.641052e-001
3.341117e+003,-1.285138e+000
3.342082e+003,-3.857025e-001
3.343046e+003,1.135710e+000
3.344010e+003,1.054933e+000
3.344974e+003,5.719620e-001
3.345938e+003,6.196701e-001
3.346903e+003,7.575775e-001
3.347867e+003,7.611374e-001
3.348831e+003,5.929779e-001
3.349795e+003,2.381607e-001
3.350760e+003,-5.194336e-001
3.351724e+003,-2.387369e+000
3.352688e+003,-1.447163e+000
3.353652e+003,1.875180e+000
3.354617e+003,3.086340e+000
3.355581e+003,2.710364e+000
3.356545e+003,1.949776e+000
3.357509e+003,1.274655e+000
3.358474e+003,1.280446e+000
3.359438e+003,6.500748e-001
3.360402e+003,-2.101820e+000
3.361366e+003,-3.484532e+000
3.362331e+003,1.522516e+000
3.363295e+003,4.460095e+000
3.364259e+003,7.575852e-001
3.365223e+003,-5.081726e-001
3.366188e+003,9.839203e-001
3.367152e+003,9.131912e-001
3.368116e+003,-5.213715e-001
3.369080e+003,-7.387787e-001
3.370044e+003,7.906189e-002
3.371009e+003,4.177063e-001
3.371973e+003,5.049621e-001
3.372937e+003,8.548203e-001
3.373901e+003,1.002094e+000
3.374865e+003,-1.971329e-001
3.375830e+003,-7.617996e-001
3.376794e+003,3.328186e-001
3.377758e+003,1.221204e+000
3.378722e+003,1.473366e+000
3.379687e+003,7.185394e-001
3.380651e+003,-7.317505e-001
3.381615e+003,-1.217204e+000
3.382579e+003,-4.789001e-001
3.383544e+003,1.381151e+000
3.384508e+003,3.590089e+000
3.385472e+003,2.927458e+000
3.386436e+003,1.469765e+000
3.387401e+003,1.874136e+000
3.388365e+003,2.125145e+000
3.389329e+003,9.669876e-001
3.390293e+003,1.082072e+000
3.391258e+003,3.362027e+000
3.392222e+003,5.134992e+000
3.393186e+003,5.318637e+000
3.394150e+003,4.886054e+000
3.395115e+003,3.977905e+000
3.396079e+003,3.654659e+000
3.397043e+003,3.814134e+000
3.398007e+003,4.123288e+000
3.398971e+003,4.756896e+000
3.399936e+003,6.448534e+000
3.400900e+003,7.698495e+000
3.401864e+003,7.554428e+000
3.402828e+003,7.324173e+000
3.403792e+003,7.909879e+000
3.404757e+003,8.705744e+000
3.405721e+003,9.514361e+000
3.406685e+003,9.919147e+000
3.407649e+003,9.907031e+000
3.408614e+003,1.078642e+001
3.409578e+003,1.238583e+001
3.410542e+003,1.438043e+001
3.411506e+003,1.621222e+001
3.412471e+003,1.712505e+001
3.413435e+003,1.775212e+001
3.414399e+003,1.873165e+001
3.415363e+003,1.957876e+001
3.416328e+003,1.973634e+001
3.417292e+003,1.976780e+001
3.418256e+003,1.979553e+001
3.419220e+003,1.988590e+001
3.420185e+003,2.013561e+001
3.421149e+003,2.147910e+001
3.422113e+003,2.312247e+001
3.423077e+003,2.222168e+001
3.424042e+003,2.051256e+001
3.425006e+003,2.167530e+001
3.425970e+003,2.345452e+001
3.426934e+003,2.207222e+001
