7.140112e+001,1.618100e+002
7.236536e+001,1.578015e+002
7.332959e+001,1.635221e+002
7.429382e+001,1.705296e+002
7.525806e+001,1.806148e+002
7.622229e+001,1.822540e+002
7.718652e+001,1.659126e+002
7.815076e+001,1.207758e+002
7.911499e+001,9.210382e+001
8.007922e+001,7.707981e+001
8.104346e+001,7.408440e+001
8.200769e+001,8.279970e+001
8.297192e+001,1.103204e+002
8.393616e+001,1.409158e+002
8.490039e+001,1.814279e+002
8.586462e+001,2.218186e+002
8.682886e+001,2.454018e+002
8.779310e+001,2.148108e+002
8.875733e+001,1.682090e+002
8.972157e+001,1.260870e+002
9.068580e+001,9.590088e+001
9.165003e+001,7.658600e+001
9.261427e+001,6.879070e+001
9.357850e+001,6.875845e+001
9.454273e+001,7.082086e+001
9.550697e+001,7.137795e+001
9.647120e+001,7.069839e+001
9.743543e+001,6.750657e+001
9.839967e+001,6.025112e+001
9.936390e+001,5.156389e+001
1.003281e+002,4.438747e+001
1.012924e+002,3.850706e+001
1.022566e+002,3.534710e+001
1.032208e+002,3.539307e+001
1.041851e+002,3.833421e+001
1.051493e+002,4.342421e+001
1.061135e+002,5.612843e+001
1.070778e+002,6.610516e+001
1.080420e+002,6.737850e+001
1.090062e+002,5.879221e+001
1.099705e+002,4.450679e+001
1.109347e+002,3.193926e+001
1.118989e+002,2.186825e+001
1.128632e+002,1.882526e+001
1.138274e+002,2.628536e+001
1.147916e+002,4.674152e+001
1.157559e+002,5.554606e+001
1.167201e+002,4.936343e+001
1.176843e+002,3.789091e+001
1.186486e+002,3.298495e+001
1.196128e+002,4.060303e+001
1.205770e+002,4.748853e+001
1.215413e+002,5.540542e+001
1.225055e+002,6.202268e+001
1.234697e+002,6.273399e+001
1.244340e+002,4.640290e+001
1.253982e+002,2.933456e+001
1.263624e+002,1.293235e+001
1.273267e+002,-2.849854e-001
1.282909e+002,-5.765808e+000
1.292551e+002,1.844641e+001
1.302194e+002,5.131345e+001
1.311836e+002,7.384115e+001
1.321478e+002,7.404927e+001
1.331121e+002,5.174670e+001
1.340763e+002,3.167493e+001
1.350405e+002,1.194070e+001
1.360048e+002,-1.754675e+000
1.369690e+002,-1.905444e+000
1.379332e+002,2.667712e+001
1.388975e+002,4.396667e+001
1.398617e+002,4.581059e+001
1.408259e+002,3.810963e+001
1.417902e+002,3.017782e+001
1.427544e+002,2.502156e+001
1.437186e+002,2.088291e+001
1.446829e+002,1.709968e+001
1.456471e+002,1.377914e+001
1.466113e+002,1.144911e+001
1.475756e+002,1.024838e+001
1.485398e+002,1.094703e+001
1.495040e+002,1.637457e+001
1.504683e+002,2.684089e+001
1.514325e+002,3.996979e+001
1.523967e+002,4.055953e+001
1.533610e+002,3.156309e+001
1.543252e+002,2.110055e+001
1.552894e+002,1.485552e+001
1.562537e+002,1.428186e+001
1.572179e+002,1.442198e+001
1.581821e+002,1.422532e+001
1.591464e+002,1.518768e+001
1.601106e+002,1.960778e+001
1.610748e+002,3.284027e+001
1.620391e+002,4.078719e+001
1.630033e+002,3.796143e+001
1.639676e+002,2.876060e+001
1.649318e+002,2.018615e+001
1.658960e+002,2.069376e+001
1.668603e+002,2.224733e+001
1.678245e+002,1.756755e+001
1.687887e+002,7.569995e+000
1.697530e+002,-2.797473e+000
1.707172e+002,2.974609e+000
1.716814e+002,1.861559e+001
1.726457e+002,2.904254e+001
1.736099e+002,2.834301e+001
1.745741e+002,1.602072e+001
1.755384e+002,6.661279e+000
1.765026e+002,-9.778198e-001
1.774668e+002,-5.771142e+000
1.784311e+002,-5.972900e+000
1.793953e+002,7.303833e-001
1.803595e+002,5.171033e+000
1.813238e+002,5.329248e+000
1.822880e+002,3.564294e+000
1.832522e+002,1.665637e+000
1.842165e+002,8.374146e-001
1.851807e+002,-2.582031e-001
1.861449e+002,-3.308484e+000
1.871092e+002,-7.147265e+000
1.880734e+002,-1.043127e+001
1.890376e+002,-1.146442e+001
1.900019e+002,-1.000361e+001
1.909661e+002,-5.787842e+000
1.919303e+002,1.087720e+000
1.928946e+002,9.134424e+000
1.938588e+002,1.323289e+001
1.948230e+002,1.048689e+001
1.957873e+002,1.021877e+001
1.967515e+002,1.597648e+001
1.977157e+002,2.751840e+001
1.986800e+002,3.446901e+001
1.996442e+002,2.896261e+001
2.006084e+002,2.517871e+001
2.015727e+002,3.025216e+001
2.025369e+002,4.611168e+001
2.035011e+002,5.800680e+001
2.044654e+002,5.356512e+001
2.054296e+002,4.290804e+001
2.063938e+002,3.021932e+001
2.073581e+002,1.843247e+001
2.083223e+002,8.993372e+000
2.092865e+002,3.746411e+000
2.102508e+002,2.247717e+000
2.112150e+002,5.605933e+000
2.121792e+002,1.515033e+001
2.131435e+002,3.325294e+001
2.141077e+002,4.413088e+001
2.150719e+002,4.556661e+001
2.160362e+002,4.219820e+001
2.170004e+002,4.089242e+001
2.179646e+002,4.462079e+001
2.189289e+002,4.606859e+001
2.198931e+002,4.100159e+001
2.208573e+002,3.345338e+001
2.218216e+002,3.099023e+001
2.227858e+002,4.192892e+001
2.237500e+002,5.652772e+001
2.247143e+002,7.703245e+001
2.256785e+002,9.903359e+001
2.266427e+002,1.137841e+002
2.276070e+002,9.761668e+001
2.285712e+002,6.614856e+001
2.295354e+002,3.816734e+001
2.304997e+002,1.931101e+001
2.314639e+002,8.880371e+000
2.324281e+002,3.914746e+000
2.333924e+002,5.244360e+000
2.343566e+002,7.252027e+000
2.353208e+002,7.851233e+000
2.362851e+002,6.704053e+000
2.372493e+002,6.149402e+000
2.382135e+002,6.664148e+000
2.391778e+002,7.261206e+000
2.401420e+002,7.798584e+000
2.411062e+002,8.397473e+000
2.420705e+002,7.607862e+000
2.430347e+002,3.759119e+000
2.439989e+002,-1.050684e+000
2.449632e+002,-5.451123e+000
2.459274e+002,-8.431750e+000
2.468916e+002,-9.900452e+000
2.478559e+002,-1.009941e+001
2.488201e+002,-9.361218e+000
2.497843e+002,-8.402087e+000
2.507486e+002,-8.095423e+000
2.517128e+002,-8.743042e+000
2.526770e+002,-5.927893e+000
2.536413e+002,2.942542e+000
2.546055e+002,1.312747e+001
2.555697e+002,1.691694e+001
2.565340e+002,7.277917e+000
2.574982e+002,5.040161e-001
2.584625e+002,-8.376343e-001
2.594267e+002,1.330042e+000
2.603909e+002,3.480481e+000
2.613552e+002,3.545691e+000
2.623194e+002,2.938721e+000
2.632836e+002,2.027527e+000
2.642479e+002,1.062878e+000
2.652121e+002,3.372681e-001
2.661763e+002,5.530396e-001
2.671406e+002,1.135803e+000
2.681048e+002,9.313843e-001
2.690690e+002,-1.996094e-001
2.700333e+002,-1.710254e+000
2.709975e+002,-1.120813e+000
2.719617e+002,2.749060e+000
2.729260e+002,4.921765e+000
2.738902e+002,3.506213e+000
2.748544e+002,-1.441675e+000
2.758187e+002,-5.292432e+000
2.767829e+002,-7.619775e+000
2.777471e+002,-9.260010e+000
2.787114e+002,-1.040754e+001
2.796756e+002,-1.104099e+001
2.806398e+002,-1.069480e+001
2.816041e+002,-8.764758e+000
2.825683e+002,-6.145715e+000
2.835325e+002,-2.870288e+000
2.844968e+002,8.933716e-001
2.854610e+002,4.549024e+000
2.864252e+002,7.296582e+000
2.873895e+002,8.991980e+000
2.883537e+002,8.518250e+000
2.893179e+002,5.143616e+000
2.902822e+002,-1.346008e+000
2.912464e+002,-4.545142e+000
2.922106e+002,-3.333020e+000
2.931749e+002,-1.951221e+000
2.941391e+002,-3.602149e+000
2.951033e+002,-9.934278e+000
2.960676e+002,-1.426733e+001
2.970318e+002,-1.630265e+001
2.979960e+002,-1.640866e+001
2.989603e+002,-1.435748e+001
2.999245e+002,-9.608191e+000
3.008887e+002,-4.714892e+000
3.018530e+002,-1.072180e+000
3.028172e+002,1.582776e+000
3.037814e+002,3.360571e+000
3.047457e+002,4.346350e+000
3.057099e+002,4.645947e+000
3.066741e+002,4.976916e+000
3.076384e+002,5.176599e+000
3.086026e+002,4.572571e+000
3.095668e+002,2.367517e+000
3.105311e+002,-2.150586e+000
3.114953e+002,-5.364795e+000
3.124595e+002,-7.483496e+000
3.134238e+002,-8.564905e+000
3.143880e+002,-8.577393e+000
3.153522e+002,-6.961267e+000
3.163165e+002,-5.221911e+000
3.172807e+002,-3.215832e+000
3.182449e+002,-1.191309e+000
3.192092e+002,5.231568e-001
3.201734e+002,1.528674e+000
3.211376e+002,2.236267e+000
3.221019e+002,2.841260e+000
3.230661e+002,3.552795e+000
3.240303e+002,4.780078e+000
3.249946e+002,7.156116e+000
3.259588e+002,1.014800e+001
3.269230e+002,1.111710e+001
3.278873e+002,9.985974e+000
3.288515e+002,7.887683e+000
3.298157e+002,6.840784e+000
3.307800e+002,8.056872e+000
3.317442e+002,8.566076e+000
3.327084e+002,7.058142e+000
3.336727e+002,5.019177e+000
3.346369e+002,5.368176e+000
3.356011e+002,1.215903e+001
3.365654e+002,1.648551e+001
3.375296e+002,1.484750e+001
3.384938e+002,9.788330e+000
3.394581e+002,5.341687e+000
3.404223e+002,5.081811e+000
3.413865e+002,6.668115e+000
3.423508e+002,7.986951e+000
3.433150e+002,9.012609e+000
3.442792e+002,1.004905e+001
3.452435e+002,1.156678e+001
3.462077e+002,1.357876e+001
3.471719e+002,1.498542e+001
3.481362e+002,1.494995e+001
3.491004e+002,1.536338e+001
3.500646e+002,2.033906e+001
3.510289e+002,2.799458e+001
3.519931e+002,4.531184e+001
3.529573e+002,7.396047e+001
3.539216e+002,1.116979e+002
3.548858e+002,1.572827e+002
3.558500e+002,2.311705e+002
3.568143e+002,2.817993e+002
3.577785e+002,2.877036e+002
3.587427e+002,2.593987e+002
3.597070e+002,2.147619e+002
3.606712e+002,1.646926e+002
3.616354e+002,1.169649e+002
3.625997e+002,7.981934e+001
3.635639e+002,5.347102e+001
3.645281e+002,3.640501e+001
3.654924e+002,2.600851e+001
3.664566e+002,2.443450e+001
3.674208e+002,2.235588e+001
3.683851e+002,1.961069e+001
3.693493e+002,1.631619e+001
3.703135e+002,1.267052e+001
3.712778e+002,7.256055e+000
3.722420e+002,4.018079e+000
3.732062e+002,4.059790e+000
3.741705e+002,6.143042e+000
3.751347e+002,8.470105e+000
3.760989e+002,1.046558e+001
3.770632e+002,1.196604e+001
3.780274e+002,1.280404e+001
3.789916e+002,1.305084e+001
3.799559e+002,1.287095e+001
3.809201e+002,1.248376e+001
3.818844e+002,1.180956e+001
3.828486e+002,1.038198e+001
3.838128e+002,8.341736e+000
3.847771e+002,6.705994e+000
3.857413e+002,7.055615e+000
3.867055e+002,1.094962e+001
3.876698e+002,1.249806e+001
3.886340e+002,8.711670e+000
3.895982e+002,3.908545e+000
3.905625e+002,4.636914e+000
3.915267e+002,1.666223e+001
3.924909e+002,2.487179e+001
3.934552e+002,2.574822e+001
3.944194e+002,2.248636e+001
3.953836e+002,1.809421e+001
3.963479e+002,1.356410e+001
3.973121e+002,1.043591e+001
3.982763e+002,1.050989e+001
3.992406e+002,1.232450e+001
4.002048e+002,1.368724e+001
4.011690e+002,1.243052e+001
4.021333e+002,9.224292e+000
4.030975e+002,9.437549e+000
4.040617e+002,1.307008e+001
4.050260e+002,1.736508e+001
4.059902e+002,1.946154e+001
4.069544e+002,1.825900e+001
4.079187e+002,1.765000e+001
4.088829e+002,1.850433e+001
4.098471e+002,1.909465e+001
4.108114e+002,1.752988e+001
4.117756e+002,1.248181e+001
4.127398e+002,9.490503e+000
4.137041e+002,1.234272e+001
4.146683e+002,1.651340e+001
4.156325e+002,1.863427e+001
4.165968e+002,1.693197e+001
4.175610e+002,1.375271e+001
4.185252e+002,1.276536e+001
4.194895e+002,1.318766e+001
4.204537e+002,1.424706e+001
4.214179e+002,1.547516e+001
4.223822e+002,1.694225e+001
4.233464e+002,1.995096e+001
4.243106e+002,2.521829e+001
4.252749e+002,2.888975e+001
4.262391e+002,2.816182e+001
4.272033e+002,2.248214e+001
4.281676e+002,1.957158e+001
4.291318e+002,2.011829e+001
4.300960e+002,2.292855e+001
4.310603e+002,2.738876e+001
4.320245e+002,3.345475e+001
4.329887e+002,4.216244e+001
4.339530e+002,5.256156e+001
4.349172e+002,6.771385e+001
4.358814e+002,9.171224e+001
4.368457e+002,1.240808e+002
4.378099e+002,1.612610e+002
4.387741e+002,2.019555e+002
4.397384e+002,2.404059e+002
4.407026e+002,2.568761e+002
4.416668e+002,2.458919e+002
4.426311e+002,2.135043e+002
4.435953e+002,1.796400e+002
4.445595e+002,1.377079e+002
4.455238e+002,1.035702e+002
4.464880e+002,7.924235e+001
4.474522e+002,6.298206e+001
4.484165e+002,5.173226e+001
4.493807e+002,4.846389e+001
4.503449e+002,4.607640e+001
4.513092e+002,4.232609e+001
4.522734e+002,3.787690e+001
4.532376e+002,3.418587e+001
4.542019e+002,3.294370e+001
4.551661e+002,3.204863e+001
4.561303e+002,2.789580e+001
4.570946e+002,2.175653e+001
4.580588e+002,1.645713e+001
4.590230e+002,1.513634e+001
4.599873e+002,1.820074e+001
4.609515e+002,1.918668e+001
4.619157e+002,1.745315e+001
4.628800e+002,1.519641e+001
4.638442e+002,1.429562e+001
4.648084e+002,1.501736e+001
4.657727e+002,1.651677e+001
4.667369e+002,1.995957e+001
4.677011e+002,2.305768e+001
4.686654e+002,2.407893e+001
4.696296e+002,2.242520e+001
4.705938e+002,2.045605e+001
4.715581e+002,2.045751e+001
4.725223e+002,2.059978e+001
4.734865e+002,1.955414e+001
4.744508e+002,1.691033e+001
4.754150e+002,1.340172e+001
4.763792e+002,1.026302e+001
4.773435e+002,7.644470e+000
4.783077e+002,6.783240e+000
4.792719e+002,8.403864e+000
4.802362e+002,1.181846e+001
4.812004e+002,1.301085e+001
4.821646e+002,9.173596e+000
4.831289e+002,6.376434e+000
4.840931e+002,5.212683e+000
4.850573e+002,5.400720e+000
4.860216e+002,6.436139e+000
4.869858e+002,1.047195e+001
4.879500e+002,1.251661e+001
4.889143e+002,9.261767e+000
4.898785e+002,3.299249e+000
4.908427e+002,-1.175617e+000
4.918070e+002,-3.191406e-001
4.927712e+002,3.104230e+000
4.937354e+002,4.182782e+000
4.946997e+002,3.491736e+000
4.956639e+002,2.396667e+000
4.966281e+002,2.273828e+000
4.975924e+002,3.246545e+000
4.985566e+002,3.747900e+000
4.995208e+002,3.440405e+000
5.004851e+002,3.214362e+000
5.014493e+002,3.894617e+000
5.024135e+002,5.819129e+000
5.033778e+002,7.073443e+000
5.043420e+002,7.429700e+000
5.053063e+002,7.423358e+000
5.062705e+002,7.121802e+000
5.072347e+002,6.515283e+000
5.081990e+002,5.679138e+000
5.091632e+002,4.288458e+000
5.101274e+002,3.037512e+000
5.110917e+002,2.471961e+000
5.120559e+002,2.661627e+000
5.130201e+002,3.339423e+000
5.139844e+002,4.085541e+000
5.149486e+002,4.767816e+000
5.159128e+002,4.706464e+000
5.168771e+002,3.654834e+000
5.178413e+002,2.142725e+000
5.188055e+002,1.317719e+000
5.197698e+002,1.763501e+000
5.207340e+002,2.061914e+000
5.216982e+002,2.225091e+000
5.226625e+002,2.193744e+000
5.236267e+002,1.730560e+000
5.245909e+002,4.096130e-001
5.255552e+002,-2.798889e-001
5.265194e+002,1.081512e+000
5.274836e+002,2.893127e+000
5.284479e+002,3.685217e+000
5.294121e+002,2.681342e+000
5.303763e+002,7.666931e-001
5.313406e+002,-7.092285e-001
5.323048e+002,-1.658563e+000
5.332690e+002,-1.141302e+000
5.342333e+002,1.432434e+000
5.351975e+002,5.580695e+000
5.361617e+002,7.281671e+000
5.371260e+002,4.261322e+000
5.380902e+002,2.405701e+000
5.390544e+002,3.837823e+000
5.400187e+002,7.273297e+000
5.409829e+002,8.518682e+000
5.419471e+002,4.297766e+000
5.429114e+002,8.017090e-001
5.438756e+002,-5.892334e-002
5.448398e+002,7.905884e-001
5.458041e+002,1.898047e+000
5.467683e+002,2.382263e+000
5.477325e+002,2.313849e+000
5.486968e+002,1.610553e+000
5.496610e+002,5.946533e-001
5.506252e+002,4.230957e-002
5.515895e+002,5.996277e-001
5.525537e+002,2.208301e+000
5.535179e+002,1.814661e+000
5.544822e+002,-1.142377e+000
5.554464e+002,-3.633539e+000
5.564106e+002,-3.810162e+000
5.573749e+002,-1.671906e+000
5.583391e+002,-4.326477e-001
5.593033e+002,-1.486584e+000
5.602676e+002,-2.300446e+000
5.612318e+002,-2.012054e+000
5.621960e+002,-8.695984e-001
5.631603e+002,1.834778e-001
5.641245e+002,5.512329e-001
5.650887e+002,4.294006e-001
5.660530e+002,-2.747681e-001
5.670172e+002,-1.293060e+000
5.679814e+002,-2.103204e+000
5.689457e+002,-2.130176e+000
5.699099e+002,-1.444049e+000
5.708741e+002,-1.146686e+000
5.718384e+002,-1.211584e+000
5.728026e+002,-1.419568e+000
5.737668e+002,-1.702820e+000
5.747311e+002,-2.176160e+000
5.756953e+002,-2.239667e+000
5.766595e+002,-1.493439e+000
5.776238e+002,-8.073486e-001
5.785880e+002,-5.924377e-001
5.795522e+002,-8.181397e-001
5.805165e+002,-9.638916e-001
5.814807e+002,-9.842529e-002
5.824449e+002,4.257141e-001
5.834092e+002,-6.340820e-001
5.843734e+002,-2.833594e+000
5.853376e+002,-4.873736e+000
5.863019e+002,-5.172937e+000
5.872661e+002,-3.971295e+000
5.882303e+002,-3.411688e+000
5.891946e+002,-3.512140e+000
5.901588e+002,-3.532837e+000
5.911230e+002,-2.627393e+000
5.920873e+002,-3.975586e-001
5.930515e+002,1.090729e+000
5.940157e+002,2.259161e+000
5.949800e+002,2.630035e+000
5.959442e+002,1.304333e+000
5.969084e+002,-1.624280e+000
5.978727e+002,-3.603577e+000
5.988369e+002,-1.687451e+000
5.998011e+002,3.235474e-001
6.007654e+002,9.973755e-001
6.017296e+002,2.879151e-001
6.026938e+002,-1.304266e+000
6.036581e+002,-3.654285e+000
6.046223e+002,-5.879987e+000
6.055865e+002,-5.367072e+000
6.065508e+002,-2.307092e+000
6.075150e+002,7.855774e-001
6.084792e+002,1.086688e+000
6.094435e+002,-2.226404e+000
6.104077e+002,-4.099530e+000
6.113719e+002,-4.217151e+000
6.123362e+002,-3.828729e+000
6.133004e+002,-3.428277e+000
6.142646e+002,-3.053235e+000
6.152289e+002,-2.748175e+000
6.161931e+002,-2.475293e+000
6.171573e+002,-2.370276e+000
6.181216e+002,-2.507947e+000
6.190858e+002,-2.803125e+000
6.200500e+002,-3.157709e+000
6.210143e+002,-3.642627e+000
6.219785e+002,-3.943182e+000
6.229427e+002,-3.465820e+000
6.239070e+002,-2.331445e+000
6.248712e+002,-9.759766e-001
6.258354e+002,2.185791e-001
6.267997e+002,1.316504e+000
6.277639e+002,2.304895e+000
6.287281e+002,3.407068e+000
6.296924e+002,4.033551e+000
6.306566e+002,3.474945e+000
6.316208e+002,1.902930e+000
6.325851e+002,1.241486e+000
6.335493e+002,3.046771e+000
6.345135e+002,5.095972e+000
6.354778e+002,7.396436e+000
6.364420e+002,9.360138e+000
6.374063e+002,1.010134e+001
6.383705e+002,8.748126e+000
6.393347e+002,6.130750e+000
6.402990e+002,3.437592e+000
6.412632e+002,9.340027e-001
6.422274e+002,-7.219909e-001
6.431917e+002,-1.032477e+000
6.441559e+002,-7.448120e-002
6.451201e+002,6.833618e-001
6.460844e+002,1.330866e+000
6.470486e+002,1.689929e+000
6.480128e+002,1.806537e+000
6.489771e+002,1.629919e+000
6.499413e+002,8.257507e-001
6.509055e+002,-1.896741e+000
6.518698e+002,-3.607275e+000
6.528340e+002,-2.641882e+000
6.537982e+002,-5.799683e-001
6.547625e+002,2.748779e-001
6.557267e+002,-1.613831e+000
6.566909e+002,-3.940790e+000
6.576552e+002,-2.698297e+000
6.586194e+002,2.739990e-001
6.595836e+002,2.323602e+000
6.605479e+002,2.166455e+000
6.615121e+002,3.810608e-001
6.624763e+002,-7.759888e-001
6.634406e+002,-1.078400e+000
6.644048e+002,-1.393701e+000
6.653690e+002,-2.156622e+000
6.663333e+002,-3.008917e+000
6.672975e+002,-3.101331e+000
6.682617e+002,-1.742261e+000
6.692260e+002,-7.003906e-001
6.701902e+002,-4.343018e-001
6.711544e+002,-5.541870e-001
6.721187e+002,-9.307007e-001
6.730829e+002,-1.500494e+000
6.740471e+002,-1.980841e+000
6.750114e+002,-2.047211e+000
6.759756e+002,-1.642212e+000
6.769398e+002,-2.770813e-001
6.779041e+002,1.981189e+000
6.788683e+002,4.287463e+000
6.798325e+002,5.102746e+000
6.807968e+002,3.916931e+000
6.817610e+002,2.814435e+000
6.827252e+002,1.495410e+000
6.836895e+002,4.831055e-001
6.846537e+002,5.563904e-001
6.856179e+002,2.063287e+000
6.865822e+002,2.490076e+000
6.875464e+002,-6.257324e-002
6.885106e+002,-2.445197e+000
6.894749e+002,-3.099457e+000
6.904391e+002,-2.177124e+000
6.914034e+002,-1.028387e+000
6.923676e+002,-8.393250e-001
6.933318e+002,-1.061426e+000
6.942961e+002,-7.159058e-001
6.952603e+002,-9.442138e-003
6.962245e+002,2.024536e-001
6.971888e+002,-9.244629e-001
6.981530e+002,-3.454822e+000
6.991172e+002,-4.051929e+000
7.000815e+002,-1.849402e+000
7.010457e+002,5.394898e-002
7.020099e+002,3.007630e-001
7.029742e+002,-6.878540e-001
7.039384e+002,-9.927307e-001
7.049026e+002,4.655701e-001
7.058669e+002,1.593445e+000
7.068311e+002,1.342169e+000
7.077953e+002,6.212891e-001
7.087596e+002,7.507080e-001
7.097238e+002,2.505078e+000
7.106880e+002,4.631335e+000
7.116523e+002,5.012549e+000
7.126165e+002,4.345758e+000
7.135807e+002,3.350330e+000
7.145450e+002,2.361737e+000
7.155092e+002,1.732428e+000
7.164734e+002,2.391327e+000
7.174377e+002,5.714453e+000
7.184019e+002,7.148261e+000
7.193661e+002,5.498291e+000
7.203304e+002,2.692444e+000
7.212946e+002,6.392395e-001
7.222589e+002,-4.374939e-001
7.232231e+002,-8.755005e-001
7.241873e+002,-6.803772e-001
7.251516e+002,-8.695068e-002
7.261158e+002,1.260608e+000
7.270800e+002,2.985773e+000
7.280443e+002,3.910992e+000
7.290085e+002,2.338147e+000
7.299727e+002,-2.215698e-001
7.309370e+002,-4.417847e-001
7.319012e+002,1.419373e+000
7.328654e+002,3.532147e+000
7.338297e+002,4.242157e+000
7.347939e+002,3.477985e+000
7.357581e+002,2.670599e+000
7.367224e+002,1.870782e+000
7.376866e+002,9.648132e-001
7.386508e+002,-5.095154e-001
7.396151e+002,-2.126929e+000
7.405793e+002,-2.517676e+000
7.415435e+002,-1.823181e-001
7.425078e+002,1.501282e+000
7.434720e+002,3.215637e-001
7.444362e+002,-1.826013e+000
7.454005e+002,-2.893793e+000
7.463647e+002,-1.963861e+000
7.473289e+002,-1.527710e-002
7.482932e+002,1.624872e+000
7.492574e+002,2.818884e+000
7.502216e+002,2.580322e+000
7.511859e+002,4.899597e-001
7.521501e+002,-2.154047e+000
7.531143e+002,-2.811090e+000
7.540786e+002,5.491333e-002
7.550428e+002,1.279999e+000
7.560070e+002,-2.084167e-001
7.569713e+002,-1.951770e+000
7.579355e+002,-2.448407e+000
7.588997e+002,-1.659088e+000
7.598640e+002,-8.536255e-001
7.608282e+002,-1.005896e+000
7.617924e+002,-9.295227e-001
7.627567e+002,1.429321e-001
7.637209e+002,1.905902e+000
7.646851e+002,3.539954e+000
7.656494e+002,4.348425e+000
7.666136e+002,4.918719e+000
7.675778e+002,8.773389e+000
7.685421e+002,1.537947e+001
7.695063e+002,1.923867e+001
7.704705e+002,1.728690e+001
7.714348e+002,1.092196e+001
7.723990e+002,5.644702e+000
7.733632e+002,1.216461e+000
7.743275e+002,-1.416052e+000
7.752917e+002,-1.115326e+000
7.762559e+002,1.389221e-001
7.772202e+002,7.007141e-001
7.781844e+002,1.370789e-001
7.791486e+002,-8.375732e-001
7.801129e+002,-2.145917e+000
7.810771e+002,-3.286511e+000
7.820413e+002,-3.917938e+000
7.830056e+002,-3.967889e+000
7.839698e+002,-3.366351e+000
7.849340e+002,-1.966400e+000
7.858983e+002,1.092224e-001
7.868625e+002,4.658996e-001
7.878267e+002,-1.292224e+000
7.887910e+002,-3.026184e+000
7.897552e+002,-3.704376e+000
7.907194e+002,-3.365387e+000
7.916837e+002,-2.370264e+000
7.926479e+002,4.480469e-001
7.936121e+002,2.270874e+000
7.945764e+002,2.218616e+000
7.955406e+002,1.095483e+000
7.965048e+002,-3.869995e-001
7.974691e+002,-1.906042e+000
7.984333e+002,-3.072363e+000
7.993975e+002,-3.155225e+000
8.003618e+002,-2.741913e+000
8.013260e+002,-2.278388e+000
8.022902e+002,-1.891846e+000
8.032545e+002,-1.599707e+000
8.042187e+002,-1.425085e+000
8.051829e+002,-1.387512e+000
8.061472e+002,-1.215692e+000
8.071114e+002,-6.811463e-001
8.080756e+002,-3.474731e-001
8.090399e+002,-7.719361e-001
8.100041e+002,-1.754572e+000
8.109683e+002,-2.004840e+000
8.119326e+002,-6.264343e-001
8.128968e+002,8.246277e-001
8.138610e+002,2.027722e+000
8.148253e+002,2.865277e+000
8.157895e+002,3.073956e+000
8.167537e+002,2.569171e+000
8.177180e+002,1.897925e+000
8.186822e+002,2.190106e+000
8.196464e+002,3.114740e+000
8.206107e+002,3.939203e+000
8.215749e+002,4.480090e+000
8.225391e+002,4.924835e+000
8.235034e+002,5.640210e+000
8.244676e+002,6.899194e+000
8.254318e+002,7.456830e+000
8.263961e+002,6.998865e+000
8.273603e+002,6.540796e+000
8.283245e+002,6.532227e+000
8.292888e+002,6.888269e+000
8.302530e+002,7.278162e+000
8.312172e+002,7.810651e+000
8.321815e+002,7.842255e+000
8.331457e+002,6.921228e+000
8.341099e+002,5.426208e+000
8.350742e+002,3.543201e+000
8.360384e+002,1.487891e+000
8.370026e+002,-1.751404e-001
8.379669e+002,2.500488e-001
8.389311e+002,2.850177e+000
8.398953e+002,3.446570e+000
8.408596e+002,6.998718e-001
8.418238e+002,-2.926971e+000
8.427880e+002,-4.445813e+000
8.437523e+002,-3.405957e+000
8.447165e+002,-2.506683e+000
8.456807e+002,-2.195056e+000
8.466450e+002,-1.928400e+000
8.476092e+002,-1.349939e+000
8.485734e+002,-7.326782e-001
8.495377e+002,-8.134400e-001
8.505019e+002,-2.228528e+000
8.514661e+002,-3.620520e+000
8.524304e+002,-2.734033e+000
8.533946e+002,-7.403504e-001
8.543588e+002,5.425293e-001
8.553231e+002,4.245483e-001
8.562873e+002,-5.033325e-001
8.572515e+002,-9.157470e-001
8.582158e+002,-4.341614e-001
8.591800e+002,-7.124389e-001
8.601442e+002,-2.657233e+000
8.611085e+002,-4.464984e+000
8.620727e+002,-4.692657e+000
8.630369e+002,-3.421979e+000
8.640012e+002,-2.412433e+000
8.649654e+002,-2.303845e+000
8.659296e+002,-2.615057e+000
8.668939e+002,-3.703711e+000
8.678581e+002,-4.841327e+000
8.688223e+002,-4.991931e+000
8.697866e+002,-3.673340e+000
8.707508e+002,-1.585925e+000
8.717150e+002,5.213623e-002
8.726793e+002,1.194183e+000
8.736435e+002,1.428674e+000
8.746077e+002,5.134643e-001
8.755720e+002,-7.396606e-001
8.765362e+002,-1.204578e+000
8.775004e+002,-5.855591e-001
8.784647e+002,-4.459290e-001
8.794289e+002,-1.515247e+000
8.803931e+002,-2.265216e+000
8.813574e+002,-1.758618e+000
8.823216e+002,-6.687622e-001
8.832858e+002,-4.682861e-001
8.842501e+002,-1.994116e+000
8.852143e+002,-3.734314e+000
8.861785e+002,-4.019660e+000
8.871428e+002,-3.730933e+000
8.881070e+002,-3.882880e+000
8.890712e+002,-4.732300e+000
8.900355e+002,-5.839252e+000
8.909997e+002,-6.508594e+000
8.919639e+002,-6.690534e+000
8.929282e+002,-6.414160e+000
8.938924e+002,-5.564734e+000
8.948566e+002,-4.512158e+000
8.958209e+002,-3.094409e+000
8.967851e+002,-1.537378e+000
8.977493e+002,-8.981018e-001
8.987136e+002,-1.967365e+000
8.996778e+002,-3.152490e+000
9.006420e+002,-4.225867e+000
9.016063e+002,-4.848737e+000
9.025705e+002,-4.321496e+000
9.035347e+002,-2.692383e+000
9.044990e+002,-1.185986e+000
9.054632e+002,-1.574341e+000
9.064274e+002,-3.435113e+000
9.073917e+002,-4.405243e+000
9.083559e+002,-4.386987e+000
9.093201e+002,-4.247375e+000
9.102844e+002,-4.805066e+000
9.112486e+002,-5.989691e+000
9.122128e+002,-6.297229e+000
9.131771e+002,-4.384295e+000
9.141413e+002,-3.341150e+000
9.151055e+002,-4.058191e+000
9.160698e+002,-5.341388e+000
9.170340e+002,-6.154150e+000
9.179982e+002,-6.250421e+000
9.189625e+002,-5.848541e+000
9.199267e+002,-4.593463e+000
9.208909e+002,-3.338263e+000
9.218552e+002,-3.059760e+000
9.228194e+002,-3.555145e+000
9.237836e+002,-4.019916e+000
9.247479e+002,-3.818512e+000
9.257121e+002,-3.153406e+000
9.266763e+002,-3.253747e+000
9.276406e+002,-4.697992e+000
9.286048e+002,-5.637824e+000
9.295690e+002,-5.756445e+000
9.305333e+002,-5.379724e+000
9.314975e+002,-4.678088e+000
9.324617e+002,-3.596594e+000
9.334260e+002,-2.998352e+000
9.343902e+002,-4.065033e+000
9.353545e+002,-4.983838e+000
9.363187e+002,-4.774567e+000
9.372830e+002,-3.856164e+000
9.382472e+002,-3.139990e+000
9.392114e+002,-3.167755e+000
9.401757e+002,-3.442523e+000
9.411399e+002,-2.654230e+000
9.421041e+002,-1.050678e+000
9.430684e+002,-2.324585e-001
9.440326e+002,-7.221740e-001
9.449968e+002,-1.692023e+000
9.459611e+002,-2.014313e+000
9.469253e+002,-1.488806e+000
9.478895e+002,-1.195074e+000
9.488538e+002,-1.462543e+000
9.498180e+002,-1.745923e+000
9.507822e+002,-2.156043e+000
9.517465e+002,-2.433697e+000
9.527107e+002,-2.141437e+000
9.536749e+002,-1.072028e+000
9.546392e+002,2.580628e-001
9.556034e+002,1.323560e+000
9.565676e+002,2.136969e+000
9.575319e+002,2.833325e+000
9.584961e+002,3.406049e+000
9.594603e+002,3.482770e+000
9.604246e+002,2.546014e+000
9.613888e+002,5.555786e-001
9.623530e+002,-2.829834e-001
9.633173e+002,1.041418e+000
9.642815e+002,2.085675e+000
9.652457e+002,1.886377e+000
9.662100e+002,1.720062e+000
9.671742e+002,3.103113e+000
9.681384e+002,6.319562e+000
9.691027e+002,1.036103e+001
9.700669e+002,1.146165e+001
9.710311e+002,1.613434e+001
9.719954e+002,3.129135e+001
9.729596e+002,5.373156e+001
9.739238e+002,7.805920e+001
9.748881e+002,1.002129e+002
9.758523e+002,1.159411e+002
9.768165e+002,1.082890e+002
9.777808e+002,7.119252e+001
9.787450e+002,4.287474e+001
9.797092e+002,3.018997e+001
9.806735e+002,2.503353e+001
9.816377e+002,2.038887e+001
9.826019e+002,1.625212e+001
9.835662e+002,1.359749e+001
9.845304e+002,1.394312e+001
9.854946e+002,1.447299e+001
9.864589e+002,1.413135e+001
9.874231e+002,1.347873e+001
9.883873e+002,1.329954e+001
9.893516e+002,1.383231e+001
9.903158e+002,1.456506e+001
9.912800e+002,1.477376e+001
9.922443e+002,1.478339e+001
9.932085e+002,1.547901e+001
9.941727e+002,1.689379e+001
9.951370e+002,1.916174e+001
9.961012e+002,2.166991e+001
9.970654e+002,2.468223e+001
9.980297e+002,3.061661e+001
9.989939e+002,3.330952e+001
9.999581e+002,5.126321e+001
1.000922e+003,8.036381e+001
1.001887e+003,1.284831e+002
1.002851e+003,2.273389e+002
1.003815e+003,3.596035e+002
1.004779e+003,4.466642e+002
1.005744e+003,4.255951e+002
1.006708e+003,3.418325e+002
1.007672e+003,2.554725e+002
1.008636e+003,1.721101e+002
1.009600e+003,1.084651e+002
1.010565e+003,7.196835e+001
1.011529e+003,5.475350e+001
1.012493e+003,4.228980e+001
1.013457e+003,3.573436e+001
1.014422e+003,3.102471e+001
1.015386e+003,2.919222e+001
1.016350e+003,2.749622e+001
1.017314e+003,2.433279e+001
1.018279e+003,2.057429e+001
1.019243e+003,1.826230e+001
1.020207e+003,1.832094e+001
1.021171e+003,1.873234e+001
1.022135e+003,1.750665e+001
1.023100e+003,1.605560e+001
1.024064e+003,1.589833e+001
1.025028e+003,1.682991e+001
1.025992e+003,1.726400e+001
1.026957e+003,1.575467e+001
1.027921e+003,1.287123e+001
1.028885e+003,1.225477e+001
1.029849e+003,1.548199e+001
1.030814e+003,1.736606e+001
1.031778e+003,1.627348e+001
1.032742e+003,1.433954e+001
1.033706e+003,1.373236e+001
1.034671e+003,1.459558e+001
1.035635e+003,1.541765e+001
1.036599e+003,1.572863e+001
1.037563e+003,1.570413e+001
1.038527e+003,1.480406e+001
1.039492e+003,1.389708e+001
1.040456e+003,1.444293e+001
1.041420e+003,1.674625e+001
1.042384e+003,1.934800e+001
1.043349e+003,2.006910e+001
1.044313e+003,1.886700e+001
1.045277e+003,1.768554e+001
1.046241e+003,1.640306e+001
1.047206e+003,1.541118e+001
1.048170e+003,1.491603e+001
1.049134e+003,1.485334e+001
1.050098e+003,1.506188e+001
1.051063e+003,1.554055e+001
1.052027e+003,1.645892e+001
1.052991e+003,1.839195e+001
1.053955e+003,2.007443e+001
1.054919e+003,2.092274e+001
1.055884e+003,2.091001e+001
1.056848e+003,2.003253e+001
1.057812e+003,1.833456e+001
1.058776e+003,1.652269e+001
1.059741e+003,1.604337e+001
1.060705e+003,1.669392e+001
1.061669e+003,1.731655e+001
1.062633e+003,1.773860e+001
1.063598e+003,1.812326e+001
1.064562e+003,1.866857e+001
1.065526e+003,1.942012e+001
1.066490e+003,2.028903e+001
1.067454e+003,2.157131e+001
1.068419e+003,2.240763e+001
1.069383e+003,2.209824e+001
1.070347e+003,2.157707e+001
1.071311e+003,2.177546e+001
1.072276e+003,2.266092e+001
1.073240e+003,2.333386e+001
1.074204e+003,2.300419e+001
1.075168e+003,2.232186e+001
1.076133e+003,2.316102e+001
1.077097e+003,2.500836e+001
1.078061e+003,2.585845e+001
1.079025e+003,2.494847e+001
1.079990e+003,2.327399e+001
1.080954e+003,2.214079e+001
1.081918e+003,2.156919e+001
1.082882e+003,2.147220e+001
1.083846e+003,2.258182e+001
1.084811e+003,2.325145e+001
1.085775e+003,2.267121e+001
1.086739e+003,2.178082e+001
1.087703e+003,2.167249e+001
1.088668e+003,2.258121e+001
1.089632e+003,2.380670e+001
1.090596e+003,2.477745e+001
1.091560e+003,2.551638e+001
1.092525e+003,2.630110e+001
1.093489e+003,2.699291e+001
1.094453e+003,2.702995e+001
1.095417e+003,2.607804e+001
1.096381e+003,2.475052e+001
1.097346e+003,2.429622e+001
1.098310e+003,2.502984e+001
1.099274e+003,2.551727e+001
1.100238e+003,2.520374e+001
1.101203e+003,2.540473e+001
1.102167e+003,2.726614e+001
1.103131e+003,2.945622e+001
1.104095e+003,2.991484e+001
1.105060e+003,2.815933e+001
1.106024e+003,2.623104e+001
1.106988e+003,2.596196e+001
1.107952e+003,2.674584e+001
1.108917e+003,2.761921e+001
1.109881e+003,2.847137e+001
1.110845e+003,2.897831e+001
1.111809e+003,2.889905e+001
1.112773e+003,2.855467e+001
1.113738e+003,2.882421e+001
1.114702e+003,3.014352e+001
1.115666e+003,3.106881e+001
1.116630e+003,3.150594e+001
1.117595e+003,3.161699e+001
1.118559e+003,3.100253e+001
1.119523e+003,3.029612e+001
1.120487e+003,3.061563e+001
1.121452e+003,3.226440e+001
1.122416e+003,3.394003e+001
1.123380e+003,3.449867e+001
1.124344e+003,3.426946e+001
1.125308e+003,3.353703e+001
1.126273e+003,3.257763e+001
1.127237e+003,3.218201e+001
1.128201e+003,3.279368e+001
1.129165e+003,3.406127e+001
1.130130e+003,3.529208e+001
1.131094e+003,3.687499e+001
1.132058e+003,3.685665e+001
1.133022e+003,3.377476e+001
1.133987e+003,3.125395e+001
1.134951e+003,3.092682e+001
1.135915e+003,3.174360e+001
1.136879e+003,3.198220e+001
1.137844e+003,3.122181e+001
1.138808e+003,3.068891e+001
1.139772e+003,3.139523e+001
1.140736e+003,3.271673e+001
1.141700e+003,3.411558e+001
1.142665e+003,3.549174e+001
1.143629e+003,3.638700e+001
1.144593e+003,3.655714e+001
1.145557e+003,3.659187e+001
1.146522e+003,3.779509e+001
1.147486e+003,4.082390e+001
1.148450e+003,4.165274e+001
1.149414e+003,3.785946e+001
1.150379e+003,3.541492e+001
1.151343e+003,3.702041e+001
1.152307e+003,4.011312e+001
1.153271e+003,4.144314e+001
1.154235e+003,4.039387e+001
1.155200e+003,3.889176e+001
1.156164e+003,3.822836e+001
1.157128e+003,3.822194e+001
1.158092e+003,3.845878e+001
1.159057e+003,3.892588e+001
1.160021e+003,3.957104e+001
1.160985e+003,4.034640e+001
1.161949e+003,4.146196e+001
1.162914e+003,4.349580e+001
1.163878e+003,4.674960e+001
1.164842e+003,4.849992e+001
1.165806e+003,4.698282e+001
1.166771e+003,4.604139e+001
1.167735e+003,4.682961e+001
1.168699e+003,4.787552e+001
1.169663e+003,4.763583e+001
1.170627e+003,4.619445e+001
1.171592e+003,4.505689e+001
1.172556e+003,4.529343e+001
1.173520e+003,4.588893e+001
1.174484e+003,4.499780e+001
1.175449e+003,4.333491e+001
1.176413e+003,4.208268e+001
1.177377e+003,4.150037e+001
1.178341e+003,4.202772e+001
1.179306e+003,4.458414e+001
1.180270e+003,4.891169e+001
1.181234e+003,5.132369e+001
1.182198e+003,5.018152e+001
1.183162e+003,4.981959e+001
1.184127e+003,5.123646e+001
1.185091e+003,5.285677e+001
1.186055e+003,5.393135e+001
1.187019e+003,5.448840e+001
1.187984e+003,5.477448e+001
1.188948e+003,5.486045e+001
1.189912e+003,5.455568e+001
1.190876e+003,5.327665e+001
1.191841e+003,5.165153e+001
1.192805e+003,5.137128e+001
1.193769e+003,5.251971e+001
1.194733e+003,5.358717e+001
1.195698e+003,5.356339e+001
1.196662e+003,5.284331e+001
1.197626e+003,5.237542e+001
1.198590e+003,5.198431e+001
1.199554e+003,5.242057e+001
1.200519e+003,5.536066e+001
1.201483e+003,5.745055e+001
1.202447e+003,5.687827e+001
1.203411e+003,5.520475e+001
1.204376e+003,5.423803e+001
1.205340e+003,5.443129e+001
1.206304e+003,5.533838e+001
1.207268e+003,5.691090e+001
1.208233e+003,5.871256e+001
1.209197e+003,5.864227e+001
1.210161e+003,5.688820e+001
1.211125e+003,5.551311e+001
1.212089e+003,5.504840e+001
1.213054e+003,5.495341e+001
1.214018e+003,5.483680e+001
1.214982e+003,5.481486e+001
1.215946e+003,5.473181e+001
1.216911e+003,5.368085e+001
1.217875e+003,5.413821e+001
1.218839e+003,5.842837e+001
1.219803e+003,6.263873e+001
1.220768e+003,6.354073e+001
1.221732e+003,6.200852e+001
1.222696e+003,6.097058e+001
1.223660e+003,6.203320e+001
1.224625e+003,6.391681e+001
1.225589e+003,6.429659e+001
1.226553e+003,6.305221e+001
1.227517e+003,6.247579e+001
1.228481e+003,6.276390e+001
1.229446e+003,6.336365e+001
1.230410e+003,6.437423e+001
1.231374e+003,6.534812e+001
1.232338e+003,6.548177e+001
1.233303e+003,6.473651e+001
1.234267e+003,6.400813e+001
1.235231e+003,6.337043e+001
1.236195e+003,6.302211e+001
1.237160e+003,6.304224e+001
1.238124e+003,6.330518e+001
1.239088e+003,6.370961e+001
1.240052e+003,6.426784e+001
1.241016e+003,6.512004e+001
1.241981e+003,6.639648e+001
1.242945e+003,6.791550e+001
1.243909e+003,6.887463e+001
1.244873e+003,6.887296e+001
1.245838e+003,6.945992e+001
1.246802e+003,7.176814e+001
1.247766e+003,7.335612e+001
1.248730e+003,7.236511e+001
1.249695e+003,6.975122e+001
1.250659e+003,6.760309e+001
1.251623e+003,6.640450e+001
1.252587e+003,6.557610e+001
1.253552e+003,6.432808e+001
1.254516e+003,6.371590e+001
1.255480e+003,6.508325e+001
1.256444e+003,6.782739e+001
1.257408e+003,7.084912e+001
1.258373e+003,7.365816e+001
1.259337e+003,7.549654e+001
1.260301e+003,7.508097e+001
1.261265e+003,7.243553e+001
1.262230e+003,7.120012e+001
1.263194e+003,7.268307e+001
1.264158e+003,7.341396e+001
1.265122e+003,7.245052e+001
1.266087e+003,7.146080e+001
1.267051e+003,7.185197e+001
1.268015e+003,7.319006e+001
1.268979e+003,7.400900e+001
1.269943e+003,7.368424e+001
1.270908e+003,7.324413e+001
1.271872e+003,7.378092e+001
1.272836e+003,7.500779e+001
1.273800e+003,7.618755e+001
1.274765e+003,7.732436e+001
1.275729e+003,7.862540e+001
1.276693e+003,8.049754e+001
1.277657e+003,8.197819e+001
1.278622e+003,8.085915e+001
1.279586e+003,7.682880e+001
1.280550e+003,7.533168e+001
1.281514e+003,7.883150e+001
1.282479e+003,8.215733e+001
1.283443e+003,8.425938e+001
1.284407e+003,8.538008e+001
1.285371e+003,8.531675e+001
1.286335e+003,8.440360e+001
1.287300e+003,8.322929e+001
1.288264e+003,8.221849e+001
1.289228e+003,8.183307e+001
1.290192e+003,8.281581e+001
1.291157e+003,8.508929e+001
1.292121e+003,8.679641e+001
1.293085e+003,8.779757e+001
1.294049e+003,8.827931e+001
1.295014e+003,8.864571e+001
1.295978e+003,8.852238e+001
1.296942e+003,8.675867e+001
1.297906e+003,8.369830e+001
1.298870e+003,8.256284e+001
1.299835e+003,8.510999e+001
1.300799e+003,8.748399e+001
1.301763e+003,8.636642e+001
1.302727e+003,8.451112e+001
1.303692e+003,8.452598e+001
1.304656e+003,8.641854e+001
1.305620e+003,8.911570e+001
1.306584e+003,9.188924e+001
1.307549e+003,9.392723e+001
1.308513e+003,9.354791e+001
1.309477e+003,9.017308e+001
1.310441e+003,8.830215e+001
1.311406e+003,8.907706e+001
1.312370e+003,8.988505e+001
1.313334e+003,9.037941e+001
1.314298e+003,9.079597e+001
1.315263e+003,9.130424e+001
1.316227e+003,9.192992e+001
1.317191e+003,9.276064e+001
1.318155e+003,9.386932e+001
1.319120e+003,9.460848e+001
1.320084e+003,9.393159e+001
1.321048e+003,9.253074e+001
1.322012e+003,9.191762e+001
1.322976e+003,9.210746e+001
1.323941e+003,9.296468e+001
1.324905e+003,9.483635e+001
1.325869e+003,9.679098e+001
1.326833e+003,9.727574e+001
1.327798e+003,9.626306e+001
1.328762e+003,9.509391e+001
1.329726e+003,9.295211e+001
1.330690e+003,9.236723e+001
1.331655e+003,9.556055e+001
1.332619e+003,9.886176e+001
1.333583e+003,9.937461e+001
1.334547e+003,9.811017e+001
1.335511e+003,9.747251e+001
1.336476e+003,9.847459e+001
1.337440e+003,1.003214e+002
1.338404e+003,1.021639e+002
1.339368e+003,1.038864e+002
1.340333e+003,1.038523e+002
1.341297e+003,1.011139e+002
1.342261e+003,9.934514e+001
1.343225e+003,9.946417e+001
1.344190e+003,1.001919e+002
1.345154e+003,1.009518e+002
1.346118e+003,1.015990e+002
1.347082e+003,1.017979e+002
1.348047e+003,1.014246e+002
1.349011e+003,1.009226e+002
1.349975e+003,1.004695e+002
1.350939e+003,1.002304e+002
1.351903e+003,1.004665e+002
1.352868e+003,1.009114e+002
1.353832e+003,1.008535e+002
1.354796e+003,1.001652e+002
1.355760e+003,9.987128e+001
1.356725e+003,1.009934e+002
1.357689e+003,1.032908e+002
1.358653e+003,1.058678e+002
1.359617e+003,1.094736e+002
1.360582e+003,1.111439e+002
1.361546e+003,1.083427e+002
1.362510e+003,1.063373e+002
1.363474e+003,1.077685e+002
1.364438e+003,1.104490e+002
1.365403e+003,1.118888e+002
1.366367e+003,1.117320e+002
1.367331e+003,1.109868e+002
1.368295e+003,1.103268e+002
1.369260e+003,1.099430e+002
1.370224e+003,1.103163e+002
1.371188e+003,1.116008e+002
1.372152e+003,1.125521e+002
1.373117e+003,1.128151e+002
1.374081e+003,1.130715e+002
1.375045e+003,1.137748e+002
1.376009e+003,1.144802e+002
1.376974e+003,1.145863e+002
1.377938e+003,1.142779e+002
1.378902e+003,1.144491e+002
1.379866e+003,1.154532e+002
1.380830e+003,1.161740e+002
1.381795e+003,1.155423e+002
1.382759e+003,1.145085e+002
1.383723e+003,1.138094e+002
1.384687e+003,1.135586e+002
1.385652e+003,1.136462e+002
1.386616e+003,1.140283e+002
1.387580e+003,1.151402e+002
1.388544e+003,1.178196e+002
1.389509e+003,1.216612e+002
1.390473e+003,1.233026e+002
1.391437e+003,1.219163e+002
1.392401e+003,1.205095e+002
1.393365e+003,1.186969e+002
1.394330e+003,1.174500e+002
1.395294e+003,1.172089e+002
1.396258e+003,1.176026e+002
1.397222e+003,1.184422e+002
1.398187e+003,1.196931e+002
1.399151e+003,1.213311e+002
1.400115e+003,1.232325e+002
1.401079e+003,1.248139e+002
1.402044e+003,1.250362e+002
1.403008e+003,1.238835e+002
1.403972e+003,1.231636e+002
1.404936e+003,1.228676e+002
1.405901e+003,1.232497e+002
1.406865e+003,1.250789e+002
1.407829e+003,1.269522e+002
1.408793e+003,1.269761e+002
1.409757e+003,1.257273e+002
1.410722e+003,1.259611e+002
1.411686e+003,1.285881e+002
1.412650e+003,1.308451e+002
1.413614e+003,1.304045e+002
1.414579e+003,1.293174e+002
1.415543e+003,1.303389e+002
1.416507e+003,1.325637e+002
1.417471e+003,1.330053e+002
1.418436e+003,1.306901e+002
1.419400e+003,1.282931e+002
1.420364e+003,1.285213e+002
1.421328e+003,1.310599e+002
1.422292e+003,1.345344e+002
1.423257e+003,1.396638e+002
1.424221e+003,1.425588e+002
1.425185e+003,1.407945e+002
1.426149e+003,1.386533e+002
1.427114e+003,1.370357e+002
1.428078e+003,1.362505e+002
1.429042e+003,1.364239e+002
1.430006e+003,1.373507e+002
1.430971e+003,1.390046e+002
1.431935e+003,1.412728e+002
1.432899e+003,1.430587e+002
1.433863e+003,1.426844e+002
1.434828e+003,1.405023e+002
1.435792e+003,1.400254e+002
1.436756e+003,1.424811e+002
1.437720e+003,1.432492e+002
1.438684e+003,1.404242e+002
1.439649e+003,1.380995e+002
1.440613e+003,1.390930e+002
1.441577e+003,1.419177e+002
1.442541e+003,1.437073e+002
1.443506e+003,1.440235e+002
1.444470e+003,1.450498e+002
1.445434e+003,1.485287e+002
1.446398e+003,1.521235e+002
1.447363e+003,1.518438e+002
1.448327e+003,1.491001e+002
1.449291e+003,1.476974e+002
1.450255e+003,1.479706e+002
1.451219e+003,1.486327e+002
1.452184e+003,1.491726e+002
1.453148e+003,1.495767e+002
1.454112e+003,1.496091e+002
1.455076e+003,1.494098e+002
1.456041e+003,1.501559e+002
1.457005e+003,1.524379e+002
1.457969e+003,1.544903e+002
1.458933e+003,1.558370e+002
1.459898e+003,1.563373e+002
1.460862e+003,1.555092e+002
1.461826e+003,1.538434e+002
1.462790e+003,1.514421e+002
1.463755e+003,1.488509e+002
1.464719e+003,1.481330e+002
1.465683e+003,1.509245e+002
1.466647e+003,1.557118e+002
1.467611e+003,1.590814e+002
1.468576e+003,1.609205e+002
1.469540e+003,1.616036e+002
1.470504e+003,1.598611e+002
1.471468e+003,1.591374e+002
1.472433e+003,1.606898e+002
1.473397e+003,1.624476e+002
1.474361e+003,1.632152e+002
1.475325e+003,1.633165e+002
1.476290e+003,1.633970e+002
1.477254e+003,1.635721e+002
1.478218e+003,1.634307e+002
1.479182e+003,1.626807e+002
1.480146e+003,1.619391e+002
1.481111e+003,1.625851e+002
1.482075e+003,1.647636e+002
1.483039e+003,1.658929e+002
1.484003e+003,1.657922e+002
1.484968e+003,1.650373e+002
1.485932e+003,1.630601e+002
1.486896e+003,1.614515e+002
1.487860e+003,1.615847e+002
1.488825e+003,1.628941e+002
1.489789e+003,1.641184e+002
1.490753e+003,1.649910e+002
1.491717e+003,1.660973e+002
1.492682e+003,1.680688e+002
1.493646e+003,1.699157e+002
1.494610e+003,1.696778e+002
1.495574e+003,1.679448e+002
1.496538e+003,1.663831e+002
1.497503e+003,1.650721e+002
1.498467e+003,1.648457e+002
1.499431e+003,1.668652e+002
1.500395e+003,1.694406e+002
1.501360e+003,1.706949e+002
1.502324e+003,1.708510e+002
1.503288e+003,1.702377e+002
1.504252e+003,1.685538e+002
1.505217e+003,1.671864e+002
1.506181e+003,1.675349e+002
1.507145e+003,1.676336e+002
1.508109e+003,1.647821e+002
1.509073e+003,1.611833e+002
1.510038e+003,1.609241e+002
1.511002e+003,1.641303e+002
1.511966e+003,1.669614e+002
1.512930e+003,1.671002e+002
1.513895e+003,1.656649e+002
1.514859e+003,1.638633e+002
1.515823e+003,1.615900e+002
1.516787e+003,1.615143e+002
1.517752e+003,1.652433e+002
1.518716e+003,1.677803e+002
1.519680e+003,1.663705e+002
1.520644e+003,1.648867e+002
1.521609e+003,1.654880e+002
1.522573e+003,1.666973e+002
1.523537e+003,1.669739e+002
1.524501e+003,1.661424e+002
1.525465e+003,1.642214e+002
1.526430e+003,1.612465e+002
1.527394e+003,1.587078e+002
1.528358e+003,1.592452e+002
1.529322e+003,1.626562e+002
1.530287e+003,1.642609e+002
1.531251e+003,1.626446e+002
1.532215e+003,1.622218e+002
1.533179e+003,1.650227e+002
1.534144e+003,1.663591e+002
1.535108e+003,1.627437e+002
1.536072e+003,1.579548e+002
1.537036e+003,1.560425e+002
1.538000e+003,1.569011e+002
1.538965e+003,1.586260e+002
1.539929e+003,1.601465e+002
1.540893e+003,1.607569e+002
1.541857e+003,1.597107e+002
1.542822e+003,1.574350e+002
1.543786e+003,1.549968e+002
1.544750e+003,1.517928e+002
1.545714e+003,1.502263e+002
1.546679e+003,1.512971e+002
1.547643e+003,1.524276e+002
1.548607e+003,1.532923e+002
1.549571e+003,1.536743e+002
1.550536e+003,1.529933e+002
1.551500e+003,1.514552e+002
1.552464e+003,1.499606e+002
1.553428e+003,1.488978e+002
1.554392e+003,1.476726e+002
1.555357e+003,1.455198e+002
1.556321e+003,1.432502e+002
1.557285e+003,1.428877e+002
1.558249e+003,1.444236e+002
1.559214e+003,1.453293e+002
1.560178e+003,1.452965e+002
1.561142e+003,1.454704e+002
1.562106e+003,1.474693e+002
1.563071e+003,1.483102e+002
1.564035e+003,1.439921e+002
1.564999e+003,1.371783e+002
1.565963e+003,1.340134e+002
1.566927e+003,1.353268e+002
1.567892e+003,1.377531e+002
1.568856e+003,1.401587e+002
1.569820e+003,1.413991e+002
1.570784e+003,1.392427e+002
1.571749e+003,1.352810e+002
1.572713e+003,1.337452e+002
1.573677e+003,1.346792e+002
1.574641e+003,1.348777e+002
1.575606e+003,1.329712e+002
1.576570e+003,1.304997e+002
1.577534e+003,1.288889e+002
1.578498e+003,1.276095e+002
1.579463e+003,1.250736e+002
1.580427e+003,1.213876e+002
1.581391e+003,1.194291e+002
1.582355e+003,1.203143e+002
1.583319e+003,1.219153e+002
1.584284e+003,1.237058e+002
1.585248e+003,1.247909e+002
1.586212e+003,1.232552e+002
1.587176e+003,1.199348e+002
1.588141e+003,1.177365e+002
1.589105e+003,1.173831e+002
1.590069e+003,1.168280e+002
1.591033e+003,1.141238e+002
1.591998e+003,1.111550e+002
1.592962e+003,1.113867e+002
1.593926e+003,1.139962e+002
1.594890e+003,1.143279e+002
1.595854e+003,1.116711e+002
1.596819e+003,1.088577e+002
1.597783e+003,1.061784e+002
1.598747e+003,1.045318e+002
1.599711e+003,1.057890e+002
1.600676e+003,1.076202e+002
1.601640e+003,1.069739e+002
1.602604e+003,1.042354e+002
1.603568e+003,1.019238e+002
1.604533e+003,1.009686e+002
1.605497e+003,1.001957e+002
1.606461e+003,9.837169e+001
1.607425e+003,9.595680e+001
1.608390e+003,9.427222e+001
1.609354e+003,9.343105e+001
1.610318e+003,9.246725e+001
1.611282e+003,9.086539e+001
1.612246e+003,8.953223e+001
1.613211e+003,8.928773e+001
1.614175e+003,8.908356e+001
1.615139e+003,8.836178e+001
1.616103e+003,8.728654e+001
1.617068e+003,8.574015e+001
1.618032e+003,8.394366e+001
1.618996e+003,8.325607e+001
1.619960e+003,8.459691e+001
1.620925e+003,8.607660e+001
1.621889e+003,8.488094e+001
1.622853e+003,8.152007e+001
1.623817e+003,7.886179e+001
1.624781e+003,7.704808e+001
1.625746e+003,7.566703e+001
1.626710e+003,7.478965e+001
1.627674e+003,7.385403e+001
1.628638e+003,7.227162e+001
1.629603e+003,7.062013e+001
1.630567e+003,6.957225e+001
1.631531e+003,6.890813e+001
1.632495e+003,6.812230e+001
1.633460e+003,6.711540e+001
1.634424e+003,6.586495e+001
1.635388e+003,6.415279e+001
1.636352e+003,6.263895e+001
1.637317e+003,6.308523e+001
1.638281e+003,6.524813e+001
1.639245e+003,6.522115e+001
1.640209e+003,6.223414e+001
1.641173e+003,5.960651e+001
1.642138e+003,5.816798e+001
1.643102e+003,5.738041e+001
1.644066e+003,5.767362e+001
1.645030e+003,5.781791e+001
1.645995e+003,5.599066e+001
1.646959e+003,5.306223e+001
1.647923e+003,5.158525e+001
1.648887e+003,5.229125e+001
1.649852e+003,5.349116e+001
1.650816e+003,5.391077e+001
1.651780e+003,5.368105e+001
1.652744e+003,5.309032e+001
1.653708e+003,5.212225e+001
1.654673e+003,5.034395e+001
1.655637e+003,4.730304e+001
1.656601e+003,4.501518e+001
1.657565e+003,4.458509e+001
1.658530e+003,4.444163e+001
1.659494e+003,4.380247e+001
1.660458e+003,4.286516e+001
1.661422e+003,4.165818e+001
1.662387e+003,4.038335e+001
1.663351e+003,3.961196e+001
1.664315e+003,3.952051e+001
1.665279e+003,3.937476e+001
1.666244e+003,3.853063e+001
1.667208e+003,3.731419e+001
1.668172e+003,3.635527e+001
1.669136e+003,3.559745e+001
1.670100e+003,3.449834e+001
1.671065e+003,3.275454e+001
1.672029e+003,3.182230e+001
1.672993e+003,3.312055e+001
1.673957e+003,3.413248e+001
1.674922e+003,3.254277e+001
1.675886e+003,3.023589e+001
1.676850e+003,2.946400e+001
1.677814e+003,2.993424e+001
1.678779e+003,3.019785e+001
1.679743e+003,2.981359e+001
1.680707e+003,2.856937e+001
1.681671e+003,2.569194e+001
1.682635e+003,2.250231e+001
1.683600e+003,2.156932e+001
1.684564e+003,2.256174e+001
1.685528e+003,2.316829e+001
1.686492e+003,2.307501e+001
1.687457e+003,2.274925e+001
1.688421e+003,2.221849e+001
1.689385e+003,2.187939e+001
1.690349e+003,2.256520e+001
1.691314e+003,2.333868e+001
1.692278e+003,2.306716e+001
1.693242e+003,2.179202e+001
1.694206e+003,1.964022e+001
1.695171e+003,1.647042e+001
1.696135e+003,1.452072e+001
1.697099e+003,1.598559e+001
1.698063e+003,1.860084e+001
1.699027e+003,1.962756e+001
1.699992e+003,1.944266e+001
1.700956e+003,1.908817e+001
1.701920e+003,1.865184e+001
1.702884e+003,1.794023e+001
1.703849e+003,1.681827e+001
1.704813e+003,1.565551e+001
1.705777e+003,1.484221e+001
1.706741e+003,1.408723e+001
1.707706e+003,1.258113e+001
1.708670e+003,1.071965e+001
1.709634e+003,1.012411e+001
1.710598e+003,1.117422e+001
1.711563e+003,1.224082e+001
1.712527e+003,1.292130e+001
1.713491e+003,1.303850e+001
1.714455e+003,1.205373e+001
1.715419e+003,1.064238e+001
1.716384e+003,1.006555e+001
1.717348e+003,1.021352e+001
1.718312e+003,9.860144e+000
1.719276e+003,8.611902e+000
1.720241e+003,7.846869e+000
1.721205e+003,8.779101e+000
1.722169e+003,1.007038e+001
1.723133e+003,9.315613e+000
1.724098e+003,6.942035e+000
1.725062e+003,6.258832e+000
1.726026e+003,7.843848e+000
1.726990e+003,8.328669e+000
1.727954e+003,5.585938e+000
1.728919e+003,3.731567e+000
1.729883e+003,5.950263e+000
1.730847e+003,8.803492e+000
1.731811e+003,8.580585e+000
1.732776e+003,6.203321e+000
1.733740e+003,4.114947e+000
1.734704e+003,2.985107e+000
1.735668e+003,2.464743e+000
1.736633e+003,2.340600e+000
1.737597e+003,2.741443e+000
1.738561e+003,3.994281e+000
1.739525e+003,5.723126e+000
1.740490e+003,5.948578e+000
1.741454e+003,4.091363e+000
1.742418e+003,2.752881e+000
1.743382e+003,1.580966e+000
1.744346e+003,1.402872e+000
1.745311e+003,3.827646e+000
1.746275e+003,5.622760e+000
1.747239e+003,4.003503e+000
1.748203e+003,1.318860e+000
1.749168e+003,6.802643e-001
1.750132e+003,1.892554e+000
1.751096e+003,2.919949e+000
1.752060e+003,2.953247e+000
1.753025e+003,2.835306e+000
1.753989e+003,3.374912e+000
1.754953e+003,4.138019e+000
1.755917e+003,4.060529e+000
1.756881e+003,3.119049e+000
1.757846e+003,2.326984e+000
1.758810e+003,1.659427e+000
1.759774e+003,1.347488e+000
1.760738e+003,1.607544e+000
1.761703e+003,1.859378e+000
1.762667e+003,2.103479e+000
1.763631e+003,2.080322e+000
1.764595e+003,1.329596e+000
1.765560e+003,3.214447e-001
1.766524e+003,-2.384644e-002
1.767488e+003,2.869598e-001
1.768452e+003,2.310455e-001
1.769417e+003,-7.643616e-001
1.770381e+003,-1.685568e+000
1.771345e+003,-1.158096e+000
1.772309e+003,1.396728e-001
1.773273e+003,3.946442e-001
1.774238e+003,-3.050690e-001
1.775202e+003,-6.364533e-001
1.776166e+003,-3.385773e-001
1.777130e+003,-1.435577e-001
1.778095e+003,-3.326446e-001
1.779059e+003,-6.574341e-001
1.780023e+003,-1.006891e+000
1.780987e+003,-1.330600e+000
1.781952e+003,-1.502026e+000
1.782916e+003,-1.612158e+000
1.783880e+003,-1.987762e+000
1.784844e+003,-2.742035e+000
1.785808e+003,-3.225748e+000
1.786773e+003,-3.187271e+000
1.787737e+003,-2.769397e+000
1.788701e+003,-1.810330e+000
1.789665e+003,-7.454926e-001
1.790630e+003,5.352783e-002
1.791594e+003,3.630554e-001
1.792558e+003,-6.901733e-001
1.793522e+003,-3.134640e+000
1.794487e+003,-5.030871e+000
1.795451e+003,-5.167670e+000
1.796415e+003,-3.957092e+000
1.797379e+003,-1.737158e+000
1.798344e+003,1.027823e+000
1.799308e+003,2.157864e+000
1.800272e+003,1.189627e+000
1.801236e+003,1.989746e-001
1.802201e+003,-7.975250e-001
1.803165e+003,-1.712286e+000
1.804129e+003,-2.940570e+000
1.805093e+003,-3.606082e+000
1.806057e+003,-2.937625e+000
1.807022e+003,-1.723193e+000
1.807986e+003,-5.384308e-001
1.808950e+003,3.323059e-001
1.809914e+003,5.544831e-001
1.810879e+003,7.752381e-002
1.811843e+003,-8.830994e-001
1.812807e+003,-2.199188e+000
1.813771e+003,-3.342505e+000
1.814736e+003,-3.235696e+000
1.815700e+003,-2.219116e+000
1.816664e+003,-2.671573e+000
1.817628e+003,-4.908728e+000
1.818593e+003,-5.420627e+000
1.819557e+003,-3.110501e+000
1.820521e+003,-1.026386e+000
1.821485e+003,-7.679443e-002
1.822449e+003,4.324036e-002
1.823414e+003,-8.368164e-001
1.824378e+003,-2.213422e+000
1.825342e+003,-3.732953e+000
1.826306e+003,-5.108582e+000
1.827271e+003,-5.373129e+000
1.828235e+003,-4.213778e+000
1.829199e+003,-3.099878e+000
1.830163e+003,-2.646423e+000
1.831128e+003,-2.650671e+000
1.832092e+003,-3.521500e+000
1.833056e+003,-4.395490e+000
1.834020e+003,-3.560901e+000
1.834984e+003,-1.527664e+000
1.835949e+003,-1.138489e-001
1.836913e+003,2.890472e-001
1.837877e+003,7.132263e-002
1.838841e+003,-6.048126e-001
1.839806e+003,-1.559698e+000
1.840770e+003,-2.677634e+000
1.841734e+003,-3.710819e+000
1.842698e+003,-3.762689e+000
1.843663e+003,-2.605951e+000
1.844627e+003,-2.111139e+000
1.845591e+003,-2.927505e+000
1.846555e+003,-3.440945e+000
1.847520e+003,-3.910309e+000
1.848484e+003,-3.765555e+000
1.849448e+003,-2.253223e+000
1.850412e+003,-4.618805e-001
1.851376e+003,1.125342e+000
1.852341e+003,2.101712e+000
1.853305e+003,1.490729e+000
1.854269e+003,-3.179108e-001
1.855233e+003,-1.196124e+000
1.856198e+003,-1.749023e-001
1.857162e+003,1.013522e+000
1.858126e+003,6.215973e-001
1.859090e+003,-6.700012e-001
1.860055e+003,-1.767548e+000
1.861019e+003,-2.634003e+000
1.861983e+003,-2.573795e+000
1.862947e+003,-1.497830e+000
1.863911e+003,-1.026343e+000
1.864876e+003,-1.646503e+000
1.865840e+003,-2.306415e+000
1.866804e+003,-2.440234e+000
1.867768e+003,-2.405353e+000
1.868733e+003,-2.701447e+000
1.869697e+003,-3.142007e+000
1.870661e+003,-3.112329e+000
1.871625e+003,-2.611825e+000
1.872590e+003,-1.978897e+000
1.873554e+003,-7.497833e-001
1.874518e+003,-3.744568e-001
1.875482e+003,-2.348923e+000
1.876447e+003,-3.950204e+000
1.877411e+003,-2.871503e+000
1.878375e+003,-1.055753e+000
1.879339e+003,-8.764221e-001
1.880303e+003,-1.885257e+000
1.881268e+003,-2.674942e+000
1.882232e+003,-2.847058e+000
1.883196e+003,-2.569760e+000
1.884160e+003,-1.964764e+000
1.885125e+003,-1.394345e+000
1.886089e+003,-1.316617e+000
1.887053e+003,-1.523273e+000
1.888017e+003,-1.399158e+000
1.888982e+003,-9.286804e-001
1.889946e+003,-1.420074e-001
1.890910e+003,1.214804e+000
1.891874e+003,1.552222e+000
1.892839e+003,5.975647e-002
1.893803e+003,-1.368100e+000
1.894767e+003,-1.956277e+000
1.895731e+003,-1.970074e+000
1.896695e+003,-1.406497e+000
1.897660e+003,-5.901917e-001
1.898624e+003,1.499023e-002
1.899588e+003,3.731323e-001
1.900552e+003,3.944733e-001
1.901517e+003,-7.173157e-002
1.902481e+003,-4.904083e-001
1.903445e+003,-8.634247e-001
1.904409e+003,-7.972260e-001
1.905374e+003,7.833496e-001
1.906338e+003,2.323184e+000
1.907302e+003,1.367606e+000
1.908266e+003,-9.608002e-001
1.909230e+003,-1.967606e+000
1.910195e+003,-1.373718e+000
1.911159e+003,-7.257843e-001
1.912123e+003,-6.941345e-001
1.913087e+003,-3.492676e-001
1.914052e+003,1.247302e+000
1.915016e+003,2.820410e+000
1.915980e+003,1.402347e+000
1.916944e+003,-2.642172e+000
1.917909e+003,-4.288785e+000
1.918873e+003,-3.125601e+000
1.919837e+003,-1.826587e+000
1.920801e+003,-4.754516e-001
1.921766e+003,4.550018e-001
1.922730e+003,5.507690e-001
1.923694e+003,4.606690e-001
1.924658e+003,5.022613e-001
1.925622e+003,7.716187e-001
1.926587e+003,1.694040e+000
1.927551e+003,2.956397e+000
1.928515e+003,3.409940e+000
1.929479e+003,2.894363e+000
1.930444e+003,2.100189e+000
1.931408e+003,9.620758e-001
1.932372e+003,-8.403625e-002
1.933336e+003,-1.016031e+000
1.934301e+003,-1.571796e+000
1.935265e+003,-1.437692e+000
1.936229e+003,-8.332154e-001
1.937193e+003,1.912537e-001
1.938157e+003,1.285587e+000
1.939122e+003,1.781235e+000
1.940086e+003,1.539267e+000
1.941050e+003,7.295166e-001
1.942014e+003,-5.201263e-001
1.942979e+003,-1.384506e+000
1.943943e+003,-7.145233e-001
1.944907e+003,8.238037e-001
1.945871e+003,1.199011e+000
1.946836e+003,5.183197e-001
1.947800e+003,6.728180e-001
1.948764e+003,1.787262e+000
1.949728e+003,2.553409e+000
1.950693e+003,2.663870e+000
1.951657e+003,2.531210e+000
1.952621e+003,2.435498e+000
1.953585e+003,2.124188e+000
1.954549e+003,1.172549e+000
1.955514e+003,-8.311157e-002
1.956478e+003,-1.116586e+000
1.957442e+003,-1.880536e+000
1.958406e+003,-1.396701e+000
1.959371e+003,1.247995e+000
1.960335e+003,2.579779e+000
1.961299e+003,8.602722e-001
1.962263e+003,-4.092072e-001
1.963228e+003,6.877899e-001
1.964192e+003,1.822922e+000
1.965156e+003,9.076630e-001
1.966120e+003,-6.272370e-001
1.967084e+003,-9.078797e-001
1.968049e+003,-3.398437e-002
1.969013e+003,1.142126e+000
1.969977e+003,2.275095e+000
1.970941e+003,3.335135e+000
1.971906e+003,4.349890e+000
1.972870e+003,4.832520e+000
1.973834e+003,3.927634e+000
1.974798e+003,2.501389e+000
1.975763e+003,1.955887e+000
1.976727e+003,2.107205e+000
1.977691e+003,2.590796e+000
1.978655e+003,3.300940e+000
1.979620e+003,3.998498e+000
1.980584e+003,4.636624e+000
1.981548e+003,4.661795e+000
1.982512e+003,3.694546e+000
1.983476e+003,2.846835e+000
1.984441e+003,3.376639e+000
1.985405e+003,4.505493e+000
1.986369e+003,4.277823e+000
1.987333e+003,2.771994e+000
1.988298e+003,2.670657e+000
1.989262e+003,4.915067e+000
1.990226e+003,5.597674e+000
1.991190e+003,3.377713e+000
1.992155e+003,1.880685e+000
1.993119e+003,2.415558e+000
1.994083e+003,3.401422e+000
1.995047e+003,4.736588e+000
1.996011e+003,5.474991e+000
1.996976e+003,4.043189e+000
1.997940e+003,1.484250e+000
1.998904e+003,2.323029e-001
1.999868e+003,4.952087e-001
2.000833e+003,1.059576e+000
2.001797e+003,1.834790e+000
2.002761e+003,2.245181e+000
2.003725e+003,1.732614e+000
2.004690e+003,1.209940e+000
2.005654e+003,1.199481e+000
2.006618e+003,1.523795e+000
2.007582e+003,2.175714e+000
2.008547e+003,2.914133e+000
2.009511e+003,3.445807e+000
2.010475e+003,3.704278e+000
2.011439e+003,3.642276e+000
2.012403e+003,3.283484e+000
2.013368e+003,2.907114e+000
2.014332e+003,2.719614e+000
2.015296e+003,2.624582e+000
2.016260e+003,2.266019e+000
2.017225e+003,2.073441e+000
2.018189e+003,3.377682e+000
2.019153e+003,5.696902e+000
2.020117e+003,7.187555e+000
2.021082e+003,7.707208e+000
2.022046e+003,7.800153e+000
2.023010e+003,7.629492e+000
2.023974e+003,6.660315e+000
2.024938e+003,4.471210e+000
2.025903e+003,2.644336e+000
2.026867e+003,2.952048e+000
2.027831e+003,4.362643e+000
2.028795e+003,4.352432e+000
2.029760e+003,3.054788e+000
2.030724e+003,3.461560e+000
2.031688e+003,6.588416e+000
2.032652e+003,7.316125e+000
2.033617e+003,4.048071e+000
2.034581e+003,1.690396e+000
2.035545e+003,1.653339e+000
2.036509e+003,2.516028e+000
2.037474e+003,3.883319e+000
2.038438e+003,5.304132e+000
2.039402e+003,6.722015e+000
2.040366e+003,7.763251e+000
2.041330e+003,7.203522e+000
2.042295e+003,5.131280e+000
2.043259e+003,4.146683e+000
2.044223e+003,5.041379e+000
2.045187e+003,5.685647e+000
2.046152e+003,5.529712e+000
2.047116e+003,5.218076e+000
2.048080e+003,4.903833e+000
2.049044e+003,4.562604e+000
2.050009e+003,4.063025e+000
2.050973e+003,3.674393e+000
2.051937e+003,3.714935e+000
2.052901e+003,4.129508e+000
2.053865e+003,4.873181e+000
2.054830e+003,5.759870e+000
2.055794e+003,6.020996e+000
2.056758e+003,5.245279e+000
2.057722e+003,4.625363e+000
2.058687e+003,5.273077e+000
2.059651e+003,6.234876e+000
2.060615e+003,6.793457e+000
2.061579e+003,6.855603e+000
2.062544e+003,5.972964e+000
2.063508e+003,4.740497e+000
2.064472e+003,4.173730e+000
2.065436e+003,4.412829e+000
2.066401e+003,5.538712e+000
2.067365e+003,7.323627e+000
2.068329e+003,8.568194e+000
2.069293e+003,8.533648e+000
2.070258e+003,8.089411e+000
2.071222e+003,8.279437e+000
2.072186e+003,8.740186e+000
2.073150e+003,8.593134e+000
2.074115e+003,7.994897e+000
2.075079e+003,7.694342e+000
2.076043e+003,7.609942e+000
2.077007e+003,6.959509e+000
2.077971e+003,5.709067e+000
2.078936e+003,5.333945e+000
2.079900e+003,6.379224e+000
2.080864e+003,7.392011e+000
2.081828e+003,7.333502e+000
2.082792e+003,6.812952e+000
2.083757e+003,6.662231e+000
2.084721e+003,6.765491e+000
2.085685e+003,6.728381e+000
2.086649e+003,6.556372e+000
2.087614e+003,6.665155e+000
2.088578e+003,7.160376e+000
2.089542e+003,7.395617e+000
2.090506e+003,7.115625e+000
2.091471e+003,7.016290e+000
2.092435e+003,7.419244e+000
2.093399e+003,7.997479e+000
2.094363e+003,8.769605e+000
2.095328e+003,9.222943e+000
2.096292e+003,8.371241e+000
2.097256e+003,6.742407e+000
2.098220e+003,6.375028e+000
2.099185e+003,7.477759e+000
2.100149e+003,8.236963e+000
2.101113e+003,8.812225e+000
2.102077e+003,8.653351e+000
2.103042e+003,7.245038e+000
2.104006e+003,5.817880e+000
2.104970e+003,3.831458e+000
2.105934e+003,2.875156e+000
2.106898e+003,4.974505e+000
2.107863e+003,7.499158e+000
2.108827e+003,7.647699e+000
2.109791e+003,6.226123e+000
2.110755e+003,4.718698e+000
2.111719e+003,3.327310e+000
2.112684e+003,3.548904e+000
2.113648e+003,6.492822e+000
2.114612e+003,8.499975e+000
2.115576e+003,8.689776e+000
2.116541e+003,7.908246e+000
2.117505e+003,5.041827e+000
2.118469e+003,2.999103e+000
2.119433e+003,4.615781e+000
2.120398e+003,7.094324e+000
2.121362e+003,7.520062e+000
2.122326e+003,6.453540e+000
2.123290e+003,5.178650e+000
2.124255e+003,4.098181e+000
2.125219e+003,3.678613e+000
2.126183e+003,4.067291e+000
2.127147e+003,4.755630e+000
2.128112e+003,5.798822e+000
2.129076e+003,6.701477e+000
2.130040e+003,7.270673e+000
2.131004e+003,7.464996e+000
2.131969e+003,7.017792e+000
2.132933e+003,6.335391e+000
2.133897e+003,5.814847e+000
2.134861e+003,5.543533e+000
2.135825e+003,5.836282e+000
2.136790e+003,6.315021e+000
2.137754e+003,5.671982e+000
2.138718e+003,3.629352e+000
2.139682e+003,1.643573e+000
2.140646e+003,3.229462e-001
2.141611e+003,1.368072e-001
2.142575e+003,2.710223e+000
2.143539e+003,5.214719e+000
2.144503e+003,3.889771e+000
2.145468e+003,1.532523e+000
2.146432e+003,2.438943e+000
2.147396e+003,5.104102e+000
2.148360e+003,6.033234e+000
2.149325e+003,5.123660e+000
2.150289e+003,3.926416e+000
2.151253e+003,3.119360e+000
2.152217e+003,3.201675e+000
2.153182e+003,4.507864e+000
2.154146e+003,5.674814e+000
2.155110e+003,5.264529e+000
2.156074e+003,4.260983e+000
2.157039e+003,3.643564e+000
2.158003e+003,3.391989e+000
2.158967e+003,3.741083e+000
2.159931e+003,4.412216e+000
2.160896e+003,4.783404e+000
2.161860e+003,4.850952e+000
2.162824e+003,4.946023e+000
2.163788e+003,5.111096e+000
2.164752e+003,5.122342e+000
2.165717e+003,4.848846e+000
2.166681e+003,4.081186e+000
2.167645e+003,2.453378e+000
2.168609e+003,1.064056e+000
2.169573e+003,2.042267e+000
2.170538e+003,3.964249e+000
2.171502e+003,3.810098e+000
2.172466e+003,2.411441e+000
2.173430e+003,1.996036e+000
2.174395e+003,2.362958e+000
2.175359e+003,1.932169e+000
2.176323e+003,6.164795e-001
2.177287e+003,-2.605987e-001
2.178252e+003,-2.219879e-001
2.179216e+003,-5.597229e-002
2.180180e+003,-3.167938e-001
2.181144e+003,-4.443512e-001
2.182109e+003,3.472199e-001
2.183073e+003,1.464340e+000
2.184037e+003,2.067862e+000
2.185001e+003,1.986188e+000
2.185966e+003,1.392639e-001
2.186930e+003,-2.612143e+000
2.187894e+003,-3.429639e+000
2.188858e+003,-2.296204e+000
2.189823e+003,-9.664154e-001
2.190787e+003,-1.203949e-001
2.191751e+003,6.652222e-002
2.192715e+003,-4.357849e-001
2.193679e+003,-1.398962e+000
2.194644e+003,-2.777557e+000
2.195608e+003,-3.713928e+000
2.196572e+003,-2.302518e+000
2.197536e+003,3.356659e-001
2.198500e+003,1.774487e+000
2.199465e+003,2.045813e+000
2.200429e+003,4.328003e-001
2.201393e+003,-2.246295e+000
2.202357e+003,-2.465387e+000
2.203322e+003,-1.387512e-001
2.204286e+003,1.156335e+000
2.205250e+003,1.734711e-001
2.206214e+003,-9.053680e-001
2.207179e+003,-5.855774e-001
2.208143e+003,-3.330383e-002
2.209107e+003,-6.592315e-001
2.210071e+003,-1.889966e+000
2.211036e+003,-2.952600e+000
2.212000e+003,-3.680600e+000
2.212964e+003,-3.383557e+000
2.213928e+003,-2.478168e+000
2.214893e+003,-2.173007e+000
2.215857e+003,-2.455811e+000
2.216821e+003,-2.834198e+000
2.217785e+003,-3.109973e+000
2.218750e+003,-3.012268e+000
2.219714e+003,-2.445548e+000
2.220678e+003,-1.764447e+000
2.221642e+003,-1.222693e+000
2.222606e+003,-7.734955e-001
2.223571e+003,-2.075592e-001
2.224535e+003,1.055572e-001
2.225499e+003,-8.086182e-001
2.226463e+003,-2.278802e+000
2.227427e+003,-2.758508e+000
2.228392e+003,-2.608582e+000
2.229356e+003,-3.321100e+000
2.230320e+003,-4.637982e+000
2.231284e+003,-4.725324e+000
2.232249e+003,-3.287979e+000
2.233213e+003,-1.749948e+000
2.234177e+003,-8.956757e-001
2.235141e+003,-1.022159e+000
2.236106e+003,-2.850549e+000
2.237070e+003,-4.345044e+000
2.238034e+003,-2.027805e+000
2.238998e+003,1.195847e+000
2.239963e+003,1.080286e+000
2.240927e+003,-9.117279e-001
2.241891e+003,-2.573453e+000
2.242855e+003,-3.626697e+000
2.243820e+003,-4.010358e+000
2.244784e+003,-3.908456e+000
2.245748e+003,-3.942792e+000
2.246712e+003,-4.169989e+000
2.247677e+003,-3.545712e+000
2.248641e+003,-1.452426e+000
2.249605e+003,3.308319e-001
2.250569e+003,1.686829e-001
2.251533e+003,-5.688965e-001
2.252498e+003,-6.691589e-001
2.253462e+003,-6.727997e-001
2.254426e+003,-1.361688e+000
2.255390e+003,-2.129739e+000
2.256354e+003,-2.024368e+000
2.257319e+003,-1.411328e+000
2.258283e+003,-1.008343e+000
2.259247e+003,-9.352325e-001
2.260211e+003,-1.104254e+000
2.261176e+003,-1.450732e+000
2.262140e+003,-1.689932e+000
2.263104e+003,-1.602689e+000
2.264068e+003,-1.852136e+000
2.265033e+003,-3.269028e+000
2.265997e+003,-4.509305e+000
2.266961e+003,-4.915543e+000
2.267925e+003,-4.683572e+000
2.268890e+003,-3.275916e+000
2.269854e+003,-1.940366e+000
2.270818e+003,-2.218842e+000
2.271782e+003,-3.388348e+000
2.272747e+003,-4.156876e+000
2.273711e+003,-4.443454e+000
2.274675e+003,-4.653476e+000
2.275639e+003,-4.864358e+000
2.276604e+003,-5.287399e+000
2.277568e+003,-6.410022e+000
2.278532e+003,-6.804959e+000
2.279496e+003,-5.627472e+000
2.280460e+003,-4.432596e+000
2.281425e+003,-3.326779e+000
2.282389e+003,-2.903802e+000
2.283353e+003,-4.320401e+000
2.284317e+003,-5.732330e+000
2.285281e+003,-4.675018e+000
2.286246e+003,-2.855194e+000
2.287210e+003,-3.965228e+000
2.288174e+003,-7.306983e+000
2.289138e+003,-7.853702e+000
2.290103e+003,-4.576651e+000
2.291067e+003,-3.261939e+000
2.292031e+003,-5.542005e+000
2.292995e+003,-6.582248e+000
2.293960e+003,-5.475302e+000
2.294924e+003,-4.527926e+000
2.295888e+003,-4.198377e+000
2.296852e+003,-4.279465e+000
2.297817e+003,-4.988235e+000
2.298781e+003,-5.419196e+000
2.299745e+003,-4.388349e+000
2.300709e+003,-3.147315e+000
2.301674e+003,-4.127539e+000
2.302638e+003,-6.674759e+000
2.303602e+003,-7.327139e+000
2.304566e+003,-5.945230e+000
2.305531e+003,-5.163190e+000
2.306495e+003,-5.061557e+000
2.307459e+003,-4.424396e+000
2.308423e+003,-3.015756e+000
2.309387e+003,-2.621762e+000
2.310352e+003,-3.786639e+000
2.311316e+003,-4.983377e+000
2.312280e+003,-5.463562e+000
2.313244e+003,-5.497122e+000
2.314208e+003,-5.331336e+000
2.315173e+003,-4.910657e+000
2.316137e+003,-3.931976e+000
2.317101e+003,-3.094830e+000
2.318065e+003,-5.031415e+000
2.319030e+003,-8.591497e+000
2.319994e+003,-8.855557e+000
2.320958e+003,-6.543368e+000
2.321922e+003,-4.423102e+000
2.322887e+003,-2.959872e+000
2.323851e+003,-2.649121e+000
2.324815e+003,-3.384408e+000
2.325779e+003,-4.310724e+000
2.326744e+003,-5.015903e+000
2.327708e+003,-5.437051e+000
2.328672e+003,-5.542367e+000
2.329636e+003,-5.507135e+000
2.330601e+003,-5.445254e+000
2.331565e+003,-5.383924e+000
2.332529e+003,-5.322909e+000
2.333493e+003,-5.311682e+000
2.334458e+003,-5.606112e+000
2.335422e+003,-5.846036e+000
2.336386e+003,-5.309058e+000
2.337350e+003,-4.441760e+000
2.338314e+003,-3.953317e+000
2.339279e+003,-4.010904e+000
2.340243e+003,-4.899432e+000
2.341207e+003,-6.477090e+000
2.342171e+003,-7.257608e+000
2.343135e+003,-6.546039e+000
2.344100e+003,-6.141437e+000
2.345064e+003,-7.479541e+000
2.346028e+003,-8.079358e+000
2.346992e+003,-6.360522e+000
2.347957e+003,-4.633551e+000
2.348921e+003,-3.746735e+000
2.349885e+003,-3.581165e+000
2.350849e+003,-4.290042e+000
2.351814e+003,-5.492630e+000
2.352778e+003,-7.236056e+000
2.353742e+003,-8.908106e+000
2.354706e+003,-8.790442e+000
2.355671e+003,-7.052487e+000
2.356635e+003,-6.453387e+000
2.357599e+003,-7.500201e+000
2.358563e+003,-7.472107e+000
2.359528e+003,-5.735385e+000
2.360492e+003,-5.166235e+000
2.361456e+003,-6.403729e+000
2.362420e+003,-7.415765e+000
2.363385e+003,-7.634604e+000
2.364349e+003,-7.487198e+000
2.365313e+003,-7.188699e+000
2.366277e+003,-6.583215e+000
2.367241e+003,-5.469144e+000
2.368206e+003,-4.418982e+000
2.369170e+003,-4.406305e+000
2.370134e+003,-5.074658e+000
2.371098e+003,-5.321668e+000
2.372063e+003,-5.342044e+000
2.373027e+003,-6.095932e+000
2.373991e+003,-7.277738e+000
2.374955e+003,-7.873221e+000
2.375919e+003,-7.816058e+000
2.376884e+003,-7.100226e+000
2.377848e+003,-5.966220e+000
2.378812e+003,-5.236670e+000
2.379776e+003,-5.125946e+000
2.380741e+003,-4.966739e+000
2.381705e+003,-4.373569e+000
2.382669e+003,-3.982901e+000
2.383633e+003,-4.609305e+000
2.384598e+003,-5.022940e+000
2.385562e+003,-3.787268e+000
2.386526e+003,-2.569571e+000
2.387490e+003,-2.976553e+000
2.388455e+003,-3.728763e+000
2.389419e+003,-3.432666e+000
2.390383e+003,-2.771222e+000
2.391347e+003,-2.667181e+000
2.392312e+003,-3.122485e+000
2.393276e+003,-4.051636e+000
2.394240e+003,-5.324005e+000
2.395204e+003,-6.255469e+000
2.396168e+003,-6.873233e+000
2.397133e+003,-6.527493e+000
2.398097e+003,-4.282813e+000
2.399061e+003,-2.841226e+000
2.400025e+003,-2.261859e+000
2.400990e+003,-2.768259e+000
2.401954e+003,-5.141528e+000
2.402918e+003,-6.709973e+000
2.403882e+003,-6.013083e+000
2.404846e+003,-4.818255e+000
2.405811e+003,-4.497500e+000
2.406775e+003,-4.606671e+000
2.407739e+003,-4.534201e+000
2.408703e+003,-4.488791e+000
2.409668e+003,-5.170535e+000
2.410632e+003,-6.277527e+000
2.411596e+003,-6.089029e+000
2.412560e+003,-4.975967e+000
2.413525e+003,-4.527609e+000
2.414489e+003,-4.651660e+000
2.415453e+003,-4.478796e+000
2.416417e+003,-3.943530e+000
2.417382e+003,-3.377380e+000
2.418346e+003,-3.021518e+000
2.419310e+003,-3.416583e+000
2.420274e+003,-4.741473e+000
2.421239e+003,-5.958719e+000
2.422203e+003,-6.457232e+000
2.423167e+003,-6.485193e+000
2.424131e+003,-6.033356e+000
2.425095e+003,-5.409268e+000
2.426060e+003,-4.221118e+000
2.427024e+003,-3.631052e+000
2.427988e+003,-5.528427e+000
2.428952e+003,-7.477905e+000
2.429917e+003,-6.414328e+000
2.430881e+003,-4.209979e+000
2.431845e+003,-3.942709e+000
2.432809e+003,-5.261459e+000
2.433773e+003,-6.386859e+000
2.434738e+003,-7.282672e+000
2.435702e+003,-7.809289e+000
2.436666e+003,-8.381488e+000
2.437630e+003,-6.656882e+000
2.438595e+003,-1.468106e+000
2.439559e+003,4.585052e-001
2.440523e+003,-2.240268e+000
2.441487e+003,-4.148786e+000
2.442452e+003,-3.684943e+000
2.443416e+003,-2.389551e+000
2.444380e+003,-1.038846e+000
2.445344e+003,-8.646148e-001
2.446309e+003,-2.983737e+000
2.447273e+003,-4.743890e+000
2.448237e+003,-2.270541e+000
2.449201e+003,1.669339e+000
2.450166e+003,2.824383e+000
2.451130e+003,2.135544e+000
2.452094e+003,5.408173e-001
2.453058e+003,-1.466330e+000
2.454022e+003,-3.563678e+000
2.454987e+003,-5.354105e+000
2.455951e+003,-6.140451e+000
2.456915e+003,-6.146192e+000
2.457879e+003,-6.062323e+000
2.458844e+003,-5.993976e+000
2.459808e+003,-5.753342e+000
2.460772e+003,-5.318655e+000
2.461736e+003,-4.708911e+000
2.462700e+003,-3.443857e+000
2.463665e+003,-2.932629e+000
2.464629e+003,-3.968500e+000
2.465593e+003,-4.492609e+000
2.466557e+003,-3.761926e+000
2.467522e+003,-3.406162e+000
2.468486e+003,-4.359027e+000
2.469450e+003,-4.969668e+000
2.470414e+003,-3.910049e+000
2.471379e+003,-2.612384e+000
2.472343e+003,-2.863504e+000
2.473307e+003,-3.789847e+000
2.474271e+003,-3.482333e+000
2.475236e+003,-2.432388e+000
2.476200e+003,-2.106400e+000
2.477164e+003,-2.442081e+000
2.478128e+003,-3.541492e+000
2.479093e+003,-5.014984e+000
2.480057e+003,-6.060287e+000
2.481021e+003,-6.551962e+000
2.481985e+003,-6.423053e+000
2.482949e+003,-5.753680e+000
2.483914e+003,-4.630872e+000
2.484878e+003,-3.229855e+000
2.485842e+003,-2.407095e+000
2.486806e+003,-2.493997e+000
2.487771e+003,-2.981235e+000
2.488735e+003,-4.202182e+000
2.489699e+003,-4.954010e+000
2.490663e+003,-4.899179e+000
2.491627e+003,-4.407135e+000
2.492592e+003,-2.988580e+000
2.493556e+003,-2.026794e+000
2.494520e+003,-2.330295e+000
2.495484e+003,-3.069513e+000
2.496449e+003,-3.761853e+000
2.497413e+003,-4.070969e+000
2.498377e+003,-3.401392e+000
2.499341e+003,-2.203043e+000
2.500306e+003,-1.595950e+000
2.501270e+003,-1.536401e+000
2.502234e+003,-2.137518e+000
2.503198e+003,-3.107004e+000
2.504163e+003,-3.212030e+000
2.505127e+003,-2.817053e+000
2.506091e+003,-3.318759e+000
2.507055e+003,-4.434506e+000
2.508020e+003,-4.777631e+000
2.508984e+003,-4.244256e+000
2.509948e+003,-3.780518e+000
2.510912e+003,-3.669144e+000
2.511876e+003,-3.321915e+000
2.512841e+003,-2.372568e+000
2.513805e+003,-1.712640e+000
2.514769e+003,-1.826233e+000
2.515733e+003,-1.995779e+000
2.516698e+003,-1.976001e+000
2.517662e+003,-2.146045e+000
2.518626e+003,-2.918652e+000
2.519590e+003,-3.209006e+000
2.520554e+003,-2.348914e+000
2.521519e+003,-1.150931e+000
2.522483e+003,-2.428223e-001
2.523447e+003,3.698303e-001
2.524411e+003,7.613220e-001
2.525376e+003,7.216004e-001
2.526340e+003,-7.759216e-001
2.527304e+003,-2.991840e+000
2.528268e+003,-3.360404e+000
2.529233e+003,-2.475440e+000
2.530197e+003,-1.650452e+000
2.531161e+003,-8.678894e-001
2.532125e+003,4.097504e-001
2.533090e+003,1.775913e+000
2.534054e+003,2.219293e+000
2.535018e+003,1.733426e+000
2.535982e+003,9.153229e-001
2.536947e+003,-8.185730e-002
2.537911e+003,-1.287894e+000
2.538875e+003,-3.299173e+000
2.539839e+003,-3.746585e+000
2.540803e+003,-8.340271e-001
2.541768e+003,1.046930e+000
2.542732e+003,1.308606e+000
2.543696e+003,8.833801e-001
2.544660e+003,-2.738617e-001
2.545625e+003,-4.960266e-001
2.546589e+003,1.157544e+000
2.547553e+003,2.097089e+000
2.548517e+003,2.485992e-001
2.549482e+003,-1.855408e+000
2.550446e+003,-1.160284e+000
2.551410e+003,6.870178e-001
2.552374e+003,1.187024e+000
2.553339e+003,1.102060e+000
2.554303e+003,1.692093e+000
2.555267e+003,2.301813e+000
2.556231e+003,2.100058e+000
2.557196e+003,1.323724e+000
2.558160e+003,-2.017639e-001
2.559124e+003,-1.658890e+000
2.560088e+003,-1.352728e+000
2.561052e+003,1.307342e-001
2.562017e+003,2.404633e-001
2.562981e+003,-1.111194e+000
2.563945e+003,-1.665396e+000
2.564909e+003,-1.270422e+000
2.565874e+003,-9.594208e-001
2.566838e+003,-7.682648e-001
2.567802e+003,-2.336060e-001
2.568766e+003,6.931397e-001
2.569730e+003,2.124176e+000
2.570695e+003,3.907214e+000
2.571659e+003,4.178461e+000
2.572623e+003,2.562494e+000
2.573587e+003,1.501178e+000
2.574552e+003,2.241904e+000
2.575516e+003,2.738687e+000
2.576480e+003,1.446014e+000
2.577444e+003,7.229004e-002
2.578409e+003,-2.635010e-001
2.579373e+003,-4.667267e-001
2.580337e+003,-1.209814e+000
2.581301e+003,-1.604028e+000
2.582266e+003,-3.469177e-001
2.583230e+003,4.856781e-001
2.584194e+003,-1.085318e+000
2.585158e+003,-2.951560e+000
2.586123e+003,-3.098468e+000
2.587087e+003,-1.985645e+000
2.588051e+003,-1.915710e-001
2.589015e+003,1.776013e+000
2.589979e+003,2.114658e+000
2.590944e+003,1.338333e+000
2.591908e+003,1.653650e+000
2.592872e+003,2.492578e+000
2.593836e+003,2.335413e+000
2.594801e+003,1.570767e+000
2.595765e+003,1.173346e+000
2.596729e+003,1.140115e+000
2.597693e+003,1.265433e+000
2.598657e+003,1.342737e+000
2.599622e+003,7.166107e-001
2.600586e+003,-6.915161e-001
2.601550e+003,-1.269943e+000
2.602514e+003,-3.219452e-001
2.603479e+003,5.179138e-002
2.604443e+003,-5.031616e-001
2.605407e+003,-4.936127e-001
2.606371e+003,4.798584e-001
2.607336e+003,3.084106e-001
2.608300e+003,-1.507221e+000
2.609264e+003,-2.589914e+000
2.610228e+003,-2.102673e+000
2.611193e+003,-1.305356e+000
2.612157e+003,-9.319061e-001
2.613121e+003,-7.668915e-001
2.614085e+003,-6.597870e-001
2.615050e+003,-6.819000e-001
2.616014e+003,-9.420776e-001
2.616978e+003,-1.318912e+000
2.617942e+003,-2.083817e+000
2.618906e+003,-2.407398e+000
2.619871e+003,-5.765839e-001
2.620835e+003,3.799011e-001
2.621799e+003,-3.170343e+000
2.622763e+003,-6.511972e+000
2.623728e+003,-4.936307e+000
2.624692e+003,-1.275494e+000
2.625656e+003,-7.913208e-003
2.626620e+003,-1.622131e-001
2.627584e+003,1.049695e+000
2.628549e+003,2.935822e+000
2.629513e+003,3.257065e+000
2.630477e+003,2.386890e+000
2.631441e+003,5.075958e-001
2.632406e+003,-1.528995e+000
2.633370e+003,-2.191632e+000
2.634334e+003,-1.801566e+000
2.635298e+003,-1.136795e+000
2.636263e+003,-4.869080e-001
2.637227e+003,-2.391815e-001
2.638191e+003,-3.700012e-001
2.639155e+003,6.784058e-002
2.640120e+003,1.389246e+000
2.641084e+003,1.245316e+000
2.642048e+003,-9.570740e-001
2.643012e+003,-8.380371e-001
2.643977e+003,1.901730e+000
2.644941e+003,3.570401e+000
2.645905e+003,3.573544e+000
2.646869e+003,2.414176e+000
2.647833e+003,5.526978e-001
2.648798e+003,-4.933349e-001
2.649762e+003,-1.776642e-001
2.650726e+003,2.801178e-001
2.651690e+003,3.041382e-001
2.652655e+003,4.504089e-002
2.653619e+003,-8.771393e-001
2.654583e+003,-1.281583e+000
2.655547e+003,-5.651337e-001
2.656511e+003,3.405579e-001
2.657476e+003,1.312018e+000
2.658440e+003,2.068909e+000
2.659404e+003,2.583926e+000
2.660368e+003,2.312595e+000
2.661333e+003,8.468628e-001
2.662297e+003,-3.013000e-001
2.663261e+003,3.867370e-001
2.664225e+003,1.516898e+000
2.665190e+003,1.409698e+000
2.666154e+003,6.498718e-001
2.667118e+003,-4.111145e-001
2.668082e+003,-1.357825e+000
2.669047e+003,-1.986481e+000
2.670011e+003,-2.226065e+000
2.670975e+003,-2.045676e+000
2.671939e+003,-1.440332e+000
2.672904e+003,-9.705200e-002
2.673868e+003,1.403177e+000
2.674832e+003,2.183072e+000
2.675796e+003,2.561038e+000
2.676760e+003,3.504834e+000
2.677725e+003,4.592893e+000
2.678689e+003,3.884140e+000
2.679653e+003,2.061807e+000
2.680617e+003,8.038635e-001
2.681582e+003,1.619965e-001
2.682546e+003,3.775513e-001
2.683510e+003,1.040982e+000
2.684474e+003,1.456747e+000
2.685438e+003,1.546985e+000
2.686403e+003,1.232431e+000
2.687367e+003,7.189331e-001
2.688331e+003,1.355328e+000
2.689295e+003,3.252667e+000
2.690260e+003,4.154633e+000
2.691224e+003,4.014090e+000
2.692188e+003,2.781155e+000
2.693152e+003,5.569611e-001
2.694117e+003,1.003113e-001
2.695081e+003,1.267682e+000
2.696045e+003,1.479779e+000
2.697009e+003,6.172241e-001
2.697974e+003,6.494995e-001
2.698938e+003,1.861938e+000
2.699902e+003,2.418133e+000
2.700866e+003,1.660172e+000
2.701831e+003,1.355475e+000
2.702795e+003,2.398489e+000
2.703759e+003,2.987204e+000
2.704723e+003,2.867389e+000
2.705688e+003,2.997269e+000
2.706652e+003,3.644128e+000
2.707616e+003,2.992249e+000
2.708580e+003,6.535705e-001
2.709544e+003,-1.516208e+000
2.710509e+003,-2.684711e+000
2.711473e+003,-2.737726e+000
2.712437e+003,-1.641663e+000
2.713401e+003,9.898987e-002
2.714365e+003,2.828037e+000
2.715330e+003,4.343909e+000
2.716294e+003,2.301459e+000
2.717258e+003,6.929535e-001
2.718222e+003,1.564911e+000
2.719187e+003,2.089798e+000
2.720151e+003,1.126978e+000
2.721115e+003,5.609986e-001
2.722079e+003,1.357016e+000
2.723044e+003,2.391303e+000
2.724008e+003,2.839047e+000
2.724972e+003,2.756952e+000
2.725936e+003,2.051492e+000
2.726901e+003,1.518817e+000
2.727865e+003,2.368387e+000
2.728829e+003,3.380792e+000
2.729793e+003,3.764535e+000
2.730758e+003,3.653870e+000
2.731722e+003,3.007690e+000
2.732686e+003,1.972861e+000
2.733650e+003,1.126678e-001
2.734615e+003,-9.579529e-001
2.735579e+003,3.626465e-001
2.736543e+003,2.295593e+000
2.737507e+003,2.493542e+000
2.738471e+003,1.574747e+000
2.739436e+003,5.287781e-002
2.740400e+003,-1.144476e+000
2.741364e+003,-3.569641e-002
2.742328e+003,1.903351e+000
2.743292e+003,3.518735e+000
2.744257e+003,4.426416e+000
2.745221e+003,4.044891e+000
2.746185e+003,3.028500e+000
2.747149e+003,1.837311e+000
2.748114e+003,9.764465e-001
2.749078e+003,1.251212e+000
2.750042e+003,2.284244e+000
2.751006e+003,3.099365e+000
2.751971e+003,3.700461e+000
2.752935e+003,4.176867e+000
2.753899e+003,4.425165e+000
2.754863e+003,4.460571e+000
2.755828e+003,3.948966e+000
2.756792e+003,1.447592e+000
2.757756e+003,-1.289319e+000
2.758720e+003,-1.337335e+000
2.759685e+003,4.640961e-001
2.760649e+003,2.203552e+000
2.761613e+003,3.467877e+000
2.762577e+003,2.928680e+000
2.763542e+003,9.596466e-001
2.764506e+003,8.130890e-001
2.765470e+003,2.035785e+000
2.766434e+003,2.201221e+000
2.767398e+003,1.653235e+000
2.768363e+003,1.238712e+000
2.769327e+003,1.012552e+000
2.770291e+003,8.134216e-001
2.771255e+003,8.438934e-001
2.772219e+003,1.856201e+000
2.773184e+003,3.473911e+000
2.774148e+003,3.683524e+000
2.775112e+003,2.563669e+000
2.776076e+003,1.748779e+000
2.777041e+003,1.251385e+000
2.778005e+003,1.879028e+000
2.778969e+003,3.359931e+000
2.779933e+003,4.509286e+000
2.780898e+003,5.042999e+000
2.781862e+003,3.964136e+000
2.782826e+003,2.122919e+000
2.783790e+003,2.183441e+000
2.784755e+003,3.869080e+000
2.785719e+003,4.096115e+000
2.786683e+003,2.482108e+000
2.787647e+003,2.264499e+000
2.788612e+003,3.787900e+000
2.789576e+003,2.949649e+000
2.790540e+003,-7.187500e-002
2.791504e+003,-9.448548e-002
2.792469e+003,2.444525e+000
2.793433e+003,4.082400e+000
2.794397e+003,4.406287e+000
2.795361e+003,3.832175e+000
2.796325e+003,2.860721e+000
2.797290e+003,2.794196e+000
2.798254e+003,3.814630e+000
2.799218e+003,4.077005e+000
2.800182e+003,3.193375e+000
2.801146e+003,2.956262e+000
2.802111e+003,3.381573e+000
2.803075e+003,5.474457e+000
2.804039e+003,8.871625e+000
2.805003e+003,1.034894e+001
2.805968e+003,9.789355e+000
2.806932e+003,8.838251e+000
2.807896e+003,7.893457e+000
2.808860e+003,6.159741e+000
2.809825e+003,3.712714e+000
2.810789e+003,2.674500e+000
2.811753e+003,3.754819e+000
2.812717e+003,3.955255e+000
2.813682e+003,2.816525e+000
2.814646e+003,3.393350e+000
2.815610e+003,5.672644e+000
2.816574e+003,6.089496e+000
2.817539e+003,4.704773e+000
2.818503e+003,3.662128e+000
2.819467e+003,3.431778e+000
2.820431e+003,4.289169e+000
2.821396e+003,5.888532e+000
2.822360e+003,5.784436e+000
2.823324e+003,3.135651e+000
2.824288e+003,3.215366e+000
2.825252e+003,7.745282e+000
2.826217e+003,8.290631e+000
2.827181e+003,4.716474e+000
2.828145e+003,4.478271e+000
2.829109e+003,7.245893e+000
2.830073e+003,6.722961e+000
2.831038e+003,3.030804e+000
2.832002e+003,4.548157e-001
2.832966e+003,1.037903e-002
2.833930e+003,1.098236e+000
2.834895e+003,3.543317e+000
2.835859e+003,5.296369e+000
2.836823e+003,6.237549e+000
2.837787e+003,6.210516e+000
2.838752e+003,5.143622e+000
2.839716e+003,4.846002e+000
2.840680e+003,5.208106e+000
2.841644e+003,4.312991e+000
2.842609e+003,2.567560e+000
2.843573e+003,2.668509e+000
2.844537e+003,4.487708e+000
2.845501e+003,5.422919e+000
2.846466e+003,4.963178e+000
2.847430e+003,4.528562e+000
2.848394e+003,4.293655e+000
2.849358e+003,3.802945e+000
2.850323e+003,3.024640e+000
2.851287e+003,3.396567e+000
2.852251e+003,4.590625e+000
2.853215e+003,3.860764e+000
2.854179e+003,1.922739e+000
2.855144e+003,2.376337e+000
2.856108e+003,4.608701e+000
2.857072e+003,4.420459e+000
2.858036e+003,1.763480e+000
2.859000e+003,2.018225e+000
2.859965e+003,5.533801e+000
2.860929e+003,6.055573e+000
2.861893e+003,3.436508e+000
2.862857e+003,2.963458e+000
2.863822e+003,4.184085e+000
2.864786e+003,3.909976e+000
2.865750e+003,2.717200e+000
2.866714e+003,3.442249e+000
2.867679e+003,5.181933e+000
2.868643e+003,4.293008e+000
2.869607e+003,1.421994e+000
2.870571e+003,1.559555e+000
2.871536e+003,4.432816e+000
2.872500e+003,6.762811e+000
2.873464e+003,8.451947e+000
2.874428e+003,7.996716e+000
2.875393e+003,5.963898e+000
2.876357e+003,3.661578e+000
2.877321e+003,1.760013e+000
2.878285e+003,1.626370e+000
2.879250e+003,2.480298e+000
2.880214e+003,2.377545e+000
2.881178e+003,1.909644e+000
2.882142e+003,3.698773e+000
2.883106e+003,6.622632e+000
2.884071e+003,5.739752e+000
2.885035e+003,2.137598e+000
2.885999e+003,1.748242e+000
2.886963e+003,3.386160e+000
2.887927e+003,4.959527e+000
2.888892e+003,5.955072e+000
2.889856e+003,5.132208e+000
2.890820e+003,3.836997e+000
2.891784e+003,4.252997e+000
2.892749e+003,5.633471e+000
2.893713e+003,6.798590e+000
2.894677e+003,7.392663e+000
2.895641e+003,6.446002e+000
2.896606e+003,4.469842e+000
2.897570e+003,2.122943e+000
2.898534e+003,5.621307e-001
2.899498e+003,2.906937e+000
2.900463e+003,5.808197e+000
2.901427e+003,5.273157e+000
2.902391e+003,3.313834e+000
2.903355e+003,1.905478e+000
2.904320e+003,8.651856e-001
2.905284e+003,-1.822876e-001
2.906248e+003,-3.892975e-001
2.907212e+003,1.889685e+000
2.908177e+003,4.698511e+000
2.909141e+003,4.626794e+000
2.910105e+003,3.457953e+000
2.911069e+003,2.588092e+000
2.912033e+003,2.102661e+000
2.912998e+003,2.507892e+000
2.913962e+003,2.687268e+000
2.914926e+003,1.709662e+000
2.915890e+003,1.113251e+000
2.916854e+003,2.088107e+000
2.917819e+003,3.219852e+000
2.918783e+003,3.043845e+000
2.919747e+003,2.598764e+000
2.920711e+003,3.423743e+000
2.921676e+003,3.760895e+000
2.922640e+003,1.481711e+000
2.923604e+003,3.843384e-002
2.924568e+003,1.006949e+000
2.925533e+003,2.586456e+000
2.926497e+003,4.234982e+000
2.927461e+003,4.055640e+000
2.928425e+003,1.698892e+000
2.929390e+003,3.946747e+000
2.930354e+003,1.533552e+001
2.931318e+003,2.246993e+001
2.932282e+003,1.348793e+001
2.933247e+003,5.158319e+000
2.934211e+003,4.054550e+000
2.935175e+003,3.308185e+000
2.936139e+003,1.383298e+000
2.937104e+003,7.651764e-001
2.938068e+003,2.019678e+000
2.939032e+003,3.608844e+000
2.939996e+003,4.866156e+000
2.940960e+003,5.548993e+000
2.941925e+003,5.545783e+000
2.942889e+003,5.102536e+000
2.943853e+003,4.220840e+000
2.944817e+003,3.254559e+000
2.945781e+003,2.218591e+000
2.946746e+003,8.216766e-001
2.947710e+003,-8.166291e-001
2.948674e+003,-5.277466e-001
2.949638e+003,1.402765e+000
2.950603e+003,2.822641e+000
2.951567e+003,3.413949e+000
2.952531e+003,3.924158e+000
2.953495e+003,4.453546e+000
2.954460e+003,4.698947e+000
2.955424e+003,4.679608e+000
2.956388e+003,3.552225e+000
2.957352e+003,1.537454e+000
2.958317e+003,1.079065e+000
2.959281e+003,1.733246e+000
2.960245e+003,2.355417e+000
2.961209e+003,2.739938e+000
2.962174e+003,2.686408e+000
2.963138e+003,2.348959e+000
2.964102e+003,1.894757e+000
2.965066e+003,1.695074e+000
2.966031e+003,2.696079e+000
2.966995e+003,4.312137e+000
2.967959e+003,4.626678e+000
2.968923e+003,4.125852e+000
2.969887e+003,3.332288e+000
2.970852e+003,2.919095e+000
2.971816e+003,4.529489e+000
2.972780e+003,6.036255e+000
2.973744e+003,4.760117e+000
2.974708e+003,3.050485e+000
2.975673e+003,2.886072e+000
2.976637e+003,3.066010e+000
2.977601e+003,2.100494e+000
2.978565e+003,9.033111e-001
2.979530e+003,5.897400e-001
2.980494e+003,8.345459e-001
2.981458e+003,2.183499e+000
2.982422e+003,2.802499e+000
2.983387e+003,8.683380e-001
2.984351e+003,-1.877411e-001
2.985315e+003,1.011395e+000
2.986279e+003,1.802927e+000
2.987244e+003,8.715760e-001
2.988208e+003,4.719726e-001
2.989172e+003,2.059564e+000
2.990136e+003,3.644202e+000
2.991101e+003,4.500443e+000
2.992065e+003,4.267758e+000
2.993029e+003,1.943454e+000
2.993993e+003,1.339862e+000
2.994958e+003,2.927985e+000
2.995922e+003,3.849371e+000
2.996886e+003,3.592255e+000
2.997850e+003,2.590344e+000
2.998814e+003,1.332129e+000
2.999779e+003,1.554944e+000
3.000743e+003,3.668545e+000
3.001707e+003,3.986948e+000
3.002671e+003,1.875696e+000
3.003635e+003,1.854657e+000
3.004600e+003,3.671939e+000
3.005564e+003,2.966928e+000
3.006528e+003,6.427978e-001
3.007492e+003,3.244629e-002
3.008457e+003,9.103546e-001
3.009421e+003,2.172327e+000
3.010385e+003,3.451923e+000
3.011349e+003,4.836099e+000
3.012314e+003,5.566504e+000
3.013278e+003,3.095908e+000
3.014242e+003,-1.156290e+000
3.015206e+003,-2.830807e+000
3.016171e+003,-2.646838e+000
3.017135e+003,-1.227124e+000
3.018099e+003,7.399262e-001
3.019063e+003,3.575992e+000
3.020028e+003,5.282376e+000
3.020992e+003,4.022141e+000
3.021956e+003,2.096207e+000
3.022920e+003,1.424106e+000
3.023885e+003,1.416971e+000
3.024849e+003,1.494015e+000
3.025813e+003,1.787338e+000
3.026777e+003,2.819546e+000
3.027741e+003,3.487647e+000
3.028706e+003,3.083997e+000
3.029670e+003,2.370609e+000
3.030634e+003,1.404388e+000
3.031598e+003,1.037176e+000
3.032563e+003,1.481589e+000
3.033527e+003,2.233197e+000
3.034491e+003,3.032126e+000
3.035455e+003,3.422611e+000
3.036420e+003,3.178674e+000
3.037384e+003,2.734500e+000
3.038348e+003,2.174582e+000
3.039312e+003,1.063589e+000
3.040277e+003,-5.713867e-001
3.041241e+003,-4.979584e-001
3.042205e+003,9.492981e-001
3.043169e+003,1.702808e+000
3.044134e+003,1.627270e+000
3.045098e+003,1.401318e+000
3.046062e+003,1.115195e+000
3.047026e+003,6.510407e-001
3.047990e+003,1.300812e-001
3.048955e+003,1.023987e-001
3.049919e+003,3.525208e-001
3.050883e+003,-3.151459e-001
3.051847e+003,-1.147141e+000
3.052812e+003,-5.695740e-001
3.053776e+003,3.486084e-001
3.054740e+003,-1.748352e-002
3.055704e+003,-5.277313e-001
3.056668e+003,4.197388e-002
3.057633e+003,8.256531e-001
3.058597e+003,8.149444e-001
3.059561e+003,7.221222e-001
3.060525e+003,2.149643e+000
3.061490e+003,2.612439e+000
3.062454e+003,-1.724487e+000
3.063418e+003,-4.285522e+000
3.064382e+003,-1.676514e+000
3.065347e+003,1.601807e-001
3.066311e+003,-3.853211e-001
3.067275e+003,-1.015546e+000
3.068239e+003,-7.421997e-001
3.069204e+003,6.695984e-001
3.070168e+003,3.280292e+000
3.071132e+003,3.948279e+000
3.072096e+003,3.474243e-001
3.073061e+003,-1.093854e+000
3.074025e+003,-7.253113e-002
3.074989e+003,5.546356e-001
3.075953e+003,5.811188e-001
3.076917e+003,1.314697e-002
3.077882e+003,-8.192596e-001
3.078846e+003,-9.883789e-001
3.079810e+003,-7.195526e-001
3.080774e+003,-1.301376e+000
3.081739e+003,-2.388477e+000
3.082703e+003,-2.894733e+000
3.083667e+003,-2.814612e+000
3.084631e+003,-1.506299e+000
3.085595e+003,-1.003876e-001
3.086560e+003,-1.045944e+000
3.087524e+003,-2.091284e+000
3.088488e+003,-8.920288e-003
3.089452e+003,1.488913e+000
3.090417e+003,-2.993286e-001
3.091381e+003,-2.340552e+000
3.092345e+003,-2.280341e+000
3.093309e+003,-1.551398e+000
3.094274e+003,-1.402200e+000
3.095238e+003,-1.250858e+000
3.096202e+003,-1.029446e+000
3.097166e+003,1.111908e-001
3.098131e+003,2.947903e+000
3.099095e+003,3.535861e+000
3.100059e+003,1.336087e+000
3.101023e+003,-9.120697e-001
3.101988e+003,-2.367670e+000
3.102952e+003,-3.201276e+000
3.103916e+003,-3.444278e+000
3.104880e+003,-2.552804e+000
3.105844e+003,-4.443817e-001
3.106809e+003,1.103790e+000
3.107773e+003,2.022363e+000
3.108737e+003,9.327850e-001
3.109701e+003,-1.164960e+000
3.110666e+003,-1.818784e+000
3.111630e+003,-1.576529e+000
3.112594e+003,-1.574722e+000
3.113558e+003,-1.570499e+000
3.114522e+003,-1.105341e+000
3.115487e+003,-4.200775e-001
3.116451e+003,3.501221e-001
3.117415e+003,4.348175e-001
3.118379e+003,-2.198514e+000
3.119344e+003,-4.699655e+000
3.120308e+003,-5.084665e+000
3.121272e+003,-4.214002e+000
3.122236e+003,-1.858054e+000
3.123201e+003,-1.012177e+000
3.124165e+003,-2.562683e+000
3.125129e+003,-3.006717e+000
3.126093e+003,-1.179858e+000
3.127058e+003,-1.002780e+000
3.128022e+003,-4.513971e+000
3.128986e+003,-5.784936e+000
3.129950e+003,-3.230258e+000
3.130915e+003,-1.736627e+000
3.131879e+003,-1.303348e+000
3.132843e+003,-2.363534e+000
3.133807e+003,-4.167996e+000
3.134771e+003,-4.948142e+000
3.135736e+003,-4.659915e+000
3.136700e+003,-2.998312e+000
3.137664e+003,-1.330219e+000
3.138628e+003,-2.325937e+000
3.139593e+003,-4.496866e+000
3.140557e+003,-4.474826e+000
3.141521e+003,-3.324738e+000
3.142485e+003,-1.890686e+000
3.143449e+003,-1.079510e+000
3.144414e+003,-1.703812e+000
3.145378e+003,-3.358829e+000
3.146342e+003,-6.304883e+000
3.147306e+003,-7.089063e+000
3.148271e+003,-4.254816e+000
3.149235e+003,-2.275388e+000
3.150199e+003,-3.725082e+000
3.151163e+003,-4.772955e+000
3.152128e+003,-3.006110e+000
3.153092e+003,-2.808124e+000
3.154056e+003,-4.604752e+000
3.155020e+003,-4.247412e+000
3.155985e+003,-2.224820e+000
3.156949e+003,-2.244916e+000
3.157913e+003,-3.779437e+000
3.158877e+003,-4.317069e+000
3.159842e+003,-3.898071e+000
3.160806e+003,-3.769025e+000
3.161770e+003,-3.756451e+000
3.162734e+003,-3.202792e+000
3.163698e+003,-2.599097e+000
3.164663e+003,-3.517978e+000
3.165627e+003,-4.409879e+000
3.166591e+003,-3.212949e+000
3.167555e+003,-1.946158e+000
3.168520e+003,-1.672601e+000
3.169484e+003,-2.073947e+000
3.170448e+003,-2.988843e+000
3.171412e+003,-3.956573e+000
3.172376e+003,-4.714279e+000
3.173341e+003,-4.816687e+000
3.174305e+003,-3.730646e+000
3.175269e+003,-2.843817e+000
3.176233e+003,-2.154572e+000
3.177198e+003,-2.747723e+000
3.178162e+003,-4.343326e+000
3.179126e+003,-4.563132e+000
3.180090e+003,-3.745322e+000
3.181055e+003,-3.731805e+000
3.182019e+003,-4.324079e+000
3.182983e+003,-4.171866e+000
3.183947e+003,-3.577094e+000
3.184912e+003,-3.313687e+000
3.185876e+003,-3.271735e+000
3.186840e+003,-3.061471e+000
3.187804e+003,-3.150909e+000
3.188769e+003,-4.469055e+000
3.189733e+003,-5.571237e+000
3.190697e+003,-5.670319e+000
3.191661e+003,-5.543851e+000
3.192625e+003,-5.506076e+000
3.193590e+003,-5.235239e+000
3.194554e+003,-4.577096e+000
3.195518e+003,-3.864243e+000
3.196482e+003,-3.172333e+000
3.197447e+003,-2.850980e+000
3.198411e+003,-3.040372e+000
3.199375e+003,-2.773706e+000
3.200339e+003,-2.003262e+000
3.201303e+003,4.894409e-002
3.202268e+003,2.172623e+000
3.203232e+003,1.149954e+000
3.204196e+003,-1.759949e+000
3.205160e+003,-3.436774e+000
3.206125e+003,-4.015332e+000
3.207089e+003,-3.677521e+000
3.208053e+003,-2.945667e+000
3.209017e+003,-2.180154e+000
3.209982e+003,-2.246878e+000
3.210946e+003,-5.527316e+000
3.211910e+003,-6.793942e+000
3.212874e+003,-3.758792e+000
3.213839e+003,-1.302081e+000
3.214803e+003,-1.081915e+000
3.215767e+003,-2.188275e+000
3.216731e+003,-4.073554e+000
3.217696e+003,-5.714935e+000
3.218660e+003,-6.929031e+000
3.219624e+003,-5.927051e+000
3.220588e+003,-2.637994e+000
3.221552e+003,-2.124408e+000
3.222517e+003,-3.496667e+000
3.223481e+003,-4.285876e+000
3.224445e+003,-4.524817e+000
3.225409e+003,-4.285205e+000
3.226374e+003,-4.243634e+000
3.227338e+003,-5.407516e+000
3.228302e+003,-5.880094e+000
3.229266e+003,-2.893414e+000
3.230230e+003,-5.521851e-002
3.231195e+003,-2.242410e+000
3.232159e+003,-4.224927e+000
3.233123e+003,-2.920129e+000
3.234087e+003,-3.064639e+000
3.235052e+003,-5.381577e+000
3.236016e+003,-6.049026e+000
3.236980e+003,-4.688446e+000
3.237944e+003,-4.441461e+000
3.238909e+003,-5.802051e+000
3.239873e+003,-6.089398e+000
3.240837e+003,-5.254456e+000
3.241801e+003,-4.256110e+000
3.242766e+003,-3.384860e+000
3.243730e+003,-4.210025e+000
3.244694e+003,-5.596313e+000
3.245658e+003,-6.064706e+000
3.246623e+003,-6.083392e+000
3.247587e+003,-6.133966e+000
3.248551e+003,-5.898718e+000
3.249515e+003,-5.151346e+000
3.250479e+003,-4.719739e+000
3.251444e+003,-5.307053e+000
3.252408e+003,-5.798181e+000
3.253372e+003,-4.971655e+000
3.254336e+003,-5.720376e+000
3.255301e+003,-8.426611e+000
3.256265e+003,-7.775955e+000
3.257229e+003,-4.504385e+000
3.258193e+003,-3.743265e+000
3.259157e+003,-5.156134e+000
3.260122e+003,-5.991052e+000
3.261086e+003,-5.930051e+000
3.262050e+003,-4.978070e+000
3.263014e+003,-3.831226e+000
3.263979e+003,-4.115933e+000
3.264943e+003,-5.062762e+000
3.265907e+003,-6.589328e+000
3.266871e+003,-7.021014e+000
3.267836e+003,-4.876040e+000
3.268800e+003,-3.232257e+000
3.269764e+003,-2.940680e+000
3.270728e+003,-3.307843e+000
3.271693e+003,-4.014822e+000
3.272657e+003,-5.127884e+000
3.273621e+003,-6.721240e+000
3.274585e+003,-5.736276e+000
3.275550e+003,-1.946783e+000
3.276514e+003,-1.299933e+000
3.277478e+003,-2.606375e+000
3.278442e+003,-2.576868e+000
3.279406e+003,-2.086066e+000
3.280371e+003,-2.815662e+000
3.281335e+003,-3.958414e+000
3.282299e+003,-4.821134e+000
3.283263e+003,-4.981982e+000
3.284228e+003,-3.943017e+000
3.285192e+003,-3.122183e+000
3.286156e+003,-4.206604e+000
3.287120e+003,-4.722497e+000
3.288084e+003,-4.037921e+000
3.289049e+003,-2.845145e+000
3.290013e+003,-1.384103e+000
3.290977e+003,-1.344647e+000
3.291941e+003,-2.400745e+000
3.292906e+003,-2.665817e+000
3.293870e+003,-2.247952e+000
3.294834e+003,-2.548422e+000
3.295798e+003,-3.260480e+000
3.296763e+003,-3.868176e+000
3.297727e+003,-3.925110e+000
3.298691e+003,-1.279532e+000
3.299655e+003,3.770111e-001
3.300620e+003,-3.794547e+000
3.301584e+003,-5.804825e+000
3.302548e+003,-3.319937e+000
3.303512e+003,-1.417856e+000
3.304477e+003,-1.837463e+000
3.305441e+003,-1.839594e+000
3.306405e+003,-4.365601e-001
3.307369e+003,-8.398743e-002
3.308333e+003,-9.667908e-001
3.309298e+003,-1.140457e+000
3.310262e+003,-9.756897e-001
3.311226e+003,-2.220923e+000
3.312190e+003,-3.338333e+000
3.313155e+003,-1.325665e+000
3.314119e+003,9.937866e-001
3.315083e+003,1.370016e+000
3.316047e+003,1.051477e+000
3.317011e+003,1.069623e+000
3.317976e+003,5.973969e-001
3.318940e+003,-1.688211e+000
3.319904e+003,-2.821948e+000
3.320868e+003,-2.156229e+000
3.321833e+003,-1.400388e+000
3.322797e+003,-7.315613e-001
3.323761e+003,-5.181397e-001
3.324725e+003,-4.156159e-001
3.325690e+003,9.415649e-001
3.326654e+003,2.651328e+000
3.327618e+003,2.643070e+000
3.328582e+003,1.643283e+000
3.329547e+003,8.472198e-001
3.330511e+003,3.359497e-001
3.331475e+003,4.458679e-001
3.332439e+003,3.773743e-001
3.333404e+003,-3.869324e-001
3.334368e+003,-4.157227e-001
3.335332e+003,5.052673e-001
3.336296e+003,6.589752e-001
3.337260e+003,-1.502106e-001
3.338225e+003,3.117951e-001
3.339189e+003,2.145615e+000
3.340153e+003,1.139944e+000
3.341117e+003,-1.871796e+000
3.342082e+003,-2.439183e+000
3.343046e+003,-1.561508e+000
3.344010e+003,-4.418030e-002
3.344974e+003,1.196268e+000
3.345938e+003,1.692819e+000
3.346903e+003,1.019141e+000
3.347867e+003,-1.008090e+000
3.348831e+003,-2.094090e+000
3.349795e+003,-9.447357e-001
3.350760e+003,3.419190e-002
3.351724e+003,-1.859955e-001
3.352688e+003,-1.110931e-001
3.353652e+003,3.353851e-001
3.354617e+003,2.340488e+000
3.355581e+003,4.752853e+000
3.356545e+003,5.032889e+000
3.357509e+003,4.028384e+000
3.358474e+003,3.094977e+000
3.359438e+003,2.162393e+000
3.360402e+003,1.039194e+000
3.361366e+003,8.343506e-001
3.362331e+003,3.437543e+000
3.363295e+003,4.990234e+000
3.364259e+003,3.334027e+000
3.365223e+003,2.979507e+000
3.366188e+003,4.073810e+000
3.367152e+003,4.089242e+000
3.368116e+003,3.117337e+000
3.369080e+003,2.436255e+000
3.370044e+003,2.249091e+000
3.371009e+003,2.391666e+000
3.371973e+003,2.864722e+000
3.372937e+003,4.035657e+000
3.373901e+003,4.701300e+000
3.374865e+003,2.295517e+000
3.375830e+003,8.037140e-001
3.376794e+003,2.157474e+000
3.377758e+003,3.059699e+000
3.378722e+003,2.930362e+000
3.379687e+003,3.297318e+000
3.380651e+003,4.393863e+000
3.381615e+003,5.237967e+000
3.382579e+003,5.575143e+000
3.383544e+003,5.092990e+000
3.384508e+003,4.203952e+000
3.385472e+003,4.557254e+000
3.386436e+003,5.224851e+000
3.387401e+003,5.164832e+000
3.388365e+003,4.640128e+000
3.389329e+003,3.706275e+000
3.390293e+003,3.371872e+000
3.391258e+003,3.972333e+000
3.392222e+003,4.429587e+000
3.393186e+003,4.320077e+000
3.394150e+003,4.574527e+000
3.395115e+003,5.239469e+000
3.396079e+003,7.476977e+000
3.397043e+003,1.017278e+001
3.398007e+003,9.013324e+000
3.398971e+003,6.901340e+000
3.399936e+003,8.698163e+000
3.400900e+003,9.979116e+000
3.401864e+003,7.833792e+000
3.402828e+003,5.729349e+000
3.403792e+003,6.054245e+000
3.404757e+003,6.840738e+000
3.405721e+003,7.201416e+000
3.406685e+003,7.397632e+000
3.407649e+003,7.430466e+000
3.408614e+003,6.562048e+000
3.409578e+003,5.521074e+000
3.410542e+003,6.790256e+000
3.411506e+003,8.561007e+000
3.412471e+003,7.700873e+000
3.413435e+003,6.337522e+000
3.414399e+003,6.577783e+000
3.415363e+003,7.269791e+000
3.416328e+003,7.099124e+000
3.417292e+003,7.585474e+000
3.418256e+003,9.643277e+000
3.419220e+003,1.081243e+001
3.420185e+003,1.101737e+001
3.421149e+003,1.099812e+001
3.422113e+003,1.072479e+001
3.423077e+003,9.212216e+000
3.424042e+003,7.798090e+000
3.425006e+003,8.985410e+000
3.425970e+003,1.099635e+001
3.426934e+003,1.122877e+001
