7.140112e+001,3.912553e+001
7.236536e+001,3.930654e+001
7.332959e+001,4.203301e+001
7.429382e+001,4.522192e+001
7.525806e+001,4.946674e+001
7.622229e+001,5.088750e+001
7.718652e+001,4.602864e+001
7.815076e+001,3.066831e+001
7.911499e+001,2.276030e+001
8.007922e+001,2.270116e+001
8.104346e+001,2.722220e+001
8.200769e+001,3.403609e+001
8.297192e+001,4.522751e+001
8.393616e+001,5.431614e+001
8.490039e+001,6.042373e+001
8.586462e+001,6.340692e+001
8.682886e+001,6.331330e+001
8.779310e+001,5.806115e+001
8.875733e+001,5.079674e+001
8.972157e+001,4.245922e+001
9.068580e+001,3.379750e+001
9.165003e+001,2.553790e+001
9.261427e+001,2.193264e+001
9.357850e+001,2.154257e+001
9.454273e+001,2.289360e+001
9.550697e+001,2.529277e+001
9.647120e+001,2.987101e+001
9.743543e+001,3.081293e+001
9.839967e+001,2.601030e+001
9.936390e+001,1.932332e+001
1.003281e+002,1.533693e+001
1.012924e+002,1.679519e+001
1.022566e+002,1.822816e+001
1.032208e+002,1.900868e+001
1.041851e+002,1.919456e+001
1.051493e+002,1.918943e+001
1.061135e+002,1.990441e+001
1.070778e+002,1.997070e+001
1.080420e+002,1.835306e+001
1.090062e+002,1.493070e+001
1.099705e+002,1.063618e+001
1.109347e+002,7.146375e+000
1.118989e+002,4.523053e+000
1.128632e+002,3.768127e+000
1.138274e+002,5.646039e+000
1.147916e+002,1.074810e+001
1.157559e+002,1.394778e+001
1.167201e+002,1.539077e+001
1.176843e+002,1.552770e+001
1.186486e+002,1.477635e+001
1.196128e+002,1.192426e+001
1.205770e+002,9.745087e+000
1.215413e+002,8.599414e+000
1.225055e+002,8.245081e+000
1.234697e+002,8.110614e+000
1.244340e+002,8.494867e+000
1.253982e+002,8.416388e+000
1.263624e+002,6.644080e+000
1.273267e+002,3.464325e+000
1.282909e+002,8.360535e-001
1.292551e+002,4.440094e+000
1.302194e+002,1.020673e+001
1.311836e+002,1.478749e+001
1.321478e+002,1.601643e+001
1.331121e+002,1.374161e+001
1.340763e+002,1.074044e+001
1.350405e+002,6.888629e+000
1.360048e+002,3.338104e+000
1.369690e+002,1.233960e+000
1.379332e+002,1.083490e+000
1.388975e+002,2.248224e+000
1.398617e+002,5.858398e+000
1.408259e+002,1.028916e+001
1.417902e+002,1.298901e+001
1.427544e+002,1.175059e+001
1.437186e+002,9.745337e+000
1.446829e+002,7.274939e+000
1.456471e+002,4.696143e+000
1.466113e+002,2.454059e+000
1.475756e+002,6.359375e-001
1.485398e+002,-1.502502e-001
1.495040e+002,1.556470e+000
1.504683e+002,5.979370e+000
1.514325e+002,1.205564e+001
1.523967e+002,1.324846e+001
1.533610e+002,1.070514e+001
1.543252e+002,7.375238e+000
1.552894e+002,5.328454e+000
1.562537e+002,5.081671e+000
1.572179e+002,4.700555e+000
1.581821e+002,3.332446e+000
1.591464e+002,2.351123e+000
1.601106e+002,3.540546e+000
1.610748e+002,9.941480e+000
1.620391e+002,1.380407e+001
1.630033e+002,1.221838e+001
1.639676e+002,7.441345e+000
1.649318e+002,2.977087e+000
1.658960e+002,2.378241e+000
1.668603e+002,3.202606e+000
1.678245e+002,4.313361e+000
1.687887e+002,5.322766e+000
1.697530e+002,5.999042e+000
1.707172e+002,5.269128e+000
1.716814e+002,3.700354e+000
1.726457e+002,2.807397e+000
1.736099e+002,3.225616e+000
1.745741e+002,5.028333e+000
1.755384e+002,5.552246e+000
1.765026e+002,4.013598e+000
1.774668e+002,2.483710e+000
1.784311e+002,2.308844e+000
1.793953e+002,4.360175e+000
1.803595e+002,5.110083e+000
1.813238e+002,2.963391e+000
1.822880e+002,2.235413e-001
1.832522e+002,-1.104773e+000
1.842165e+002,8.343078e-001
1.851807e+002,2.753534e+000
1.861449e+002,1.833118e+000
1.871092e+002,-6.109192e-001
1.880734e+002,-2.890680e+000
1.890376e+002,-2.706891e+000
1.900019e+002,-5.346680e-001
1.909661e+002,2.053479e+000
1.919303e+002,4.900146e+000
1.928946e+002,7.580401e+000
1.938588e+002,8.548334e+000
1.948230e+002,6.619873e+000
1.957873e+002,5.581787e+000
1.967515e+002,5.448657e+000
1.977157e+002,6.311206e+000
1.986800e+002,1.027305e+001
1.996442e+002,1.758381e+001
2.006084e+002,2.746423e+001
2.015727e+002,4.339667e+001
2.025369e+002,6.604347e+001
2.035011e+002,8.184206e+001
2.044654e+002,7.832209e+001
2.054296e+002,6.727245e+001
2.063938e+002,5.330946e+001
2.073581e+002,3.970808e+001
2.083223e+002,2.881679e+001
2.092865e+002,2.571931e+001
2.102508e+002,2.838604e+001
2.112150e+002,3.455193e+001
2.121792e+002,4.199475e+001
2.131435e+002,5.140981e+001
2.141077e+002,5.643010e+001
2.150719e+002,5.556451e+001
2.160362e+002,5.185873e+001
2.170004e+002,4.967576e+001
2.179646e+002,4.949443e+001
2.189289e+002,5.064312e+001
2.198931e+002,5.163277e+001
2.208573e+002,5.379026e+001
2.218216e+002,5.984813e+001
2.227858e+002,7.626830e+001
2.237500e+002,9.241043e+001
2.247143e+002,1.073858e+002
2.256785e+002,1.188518e+002
2.266427e+002,1.231548e+002
2.276070e+002,1.075263e+002
2.285712e+002,8.192589e+001
2.295354e+002,5.810653e+001
2.304997e+002,3.968053e+001
2.314639e+002,2.644590e+001
2.324281e+002,1.861799e+001
2.333924e+002,1.710352e+001
2.343566e+002,1.589506e+001
2.353208e+002,1.238225e+001
2.362851e+002,5.914721e+000
2.372493e+002,1.361060e+000
2.382135e+002,-3.640747e-001
2.391778e+002,-1.331049e+000
2.401420e+002,-2.416089e+000
2.411062e+002,-3.915173e+000
2.420705e+002,-5.358832e+000
2.430347e+002,-6.829968e+000
2.439989e+002,-8.014868e+000
2.449632e+002,-8.514544e+000
2.459274e+002,-7.981500e+000
2.468916e+002,-6.901459e+000
2.478559e+002,-6.318305e+000
2.488201e+002,-6.137030e+000
2.497843e+002,-6.295941e+000
2.507486e+002,-6.737927e+000
2.517128e+002,-7.557922e+000
2.526770e+002,-7.503833e+000
2.536413e+002,-6.229010e+000
2.546055e+002,-4.500110e+000
2.555697e+002,-3.527991e+000
2.565340e+002,-4.143829e+000
2.574982e+002,-4.378558e+000
2.584625e+002,-3.787152e+000
2.594267e+002,-2.695972e+000
2.603909e+002,-1.680933e+000
2.613552e+002,-9.070312e-001
2.623194e+002,-7.203430e-001
2.632836e+002,-1.505872e+000
2.642479e+002,-2.983496e+000
2.652121e+002,-4.630816e+000
2.661763e+002,-5.901697e+000
2.671406e+002,-6.587762e+000
2.681048e+002,-6.102698e+000
2.690690e+002,-4.424524e+000
2.700333e+002,-2.071625e+000
2.709975e+002,-1.214441e+000
2.719617e+002,-2.155853e+000
2.729260e+002,-3.340613e+000
2.738902e+002,-4.715228e+000
2.748544e+002,-6.263086e+000
2.758187e+002,-7.128851e+000
2.767829e+002,-6.467700e+000
2.777471e+002,-6.044159e+000
2.787114e+002,-6.422913e+000
2.796756e+002,-7.656500e+000
2.806398e+002,-8.986163e+000
2.816041e+002,-1.061424e+001
2.825683e+002,-1.173188e+001
2.835325e+002,-1.143134e+001
2.844968e+002,-9.485614e+000
2.854610e+002,-6.992267e+000
2.864252e+002,-7.113092e+000
2.873895e+002,-8.556598e+000
2.883537e+002,-9.261523e+000
2.893179e+002,-7.892529e+000
2.902822e+002,-4.240564e+000
2.912464e+002,-2.809222e+000
2.922106e+002,-3.922095e+000
2.931749e+002,-5.735608e+000
2.941391e+002,-7.304230e+000
2.951033e+002,-8.848383e+000
2.960676e+002,-9.428503e+000
2.970318e+002,-8.018140e+000
2.979960e+002,-6.466882e+000
2.989603e+002,-6.379449e+000
2.999245e+002,-8.905683e+000
3.008887e+002,-1.102920e+001
3.018530e+002,-1.042385e+001
3.028172e+002,-8.523089e+000
3.037814e+002,-6.485211e+000
3.047457e+002,-5.263922e+000
3.057099e+002,-4.742493e+000
3.066741e+002,-4.304828e+000
3.076384e+002,-4.003320e+000
3.086026e+002,-4.053992e+000
3.095668e+002,-4.708636e+000
3.105311e+002,-6.225549e+000
3.114953e+002,-7.189191e+000
3.124595e+002,-7.479590e+000
3.134238e+002,-7.442401e+000
3.143880e+002,-7.504303e+000
3.153522e+002,-7.940344e+000
3.163165e+002,-8.037702e+000
3.172807e+002,-7.628601e+000
3.182449e+002,-6.794604e+000
3.192092e+002,-5.566638e+000
3.201734e+002,-3.760138e+000
3.211376e+002,-2.120001e+000
3.221019e+002,-1.256598e+000
3.230661e+002,-8.762573e-001
3.240303e+002,-4.890320e-001
3.249946e+002,5.394287e-001
3.259588e+002,1.933008e+000
3.269230e+002,2.209662e+000
3.278873e+002,1.316235e+000
3.288515e+002,4.747314e-002
3.298157e+002,-1.746948e-001
3.307800e+002,1.774573e+000
3.317442e+002,3.069983e+000
3.327084e+002,3.167261e+000
3.336727e+002,2.689215e+000
3.346369e+002,2.754907e+000
3.356011e+002,4.003345e+000
3.365654e+002,5.379730e+000
3.375296e+002,6.781256e+000
3.384938e+002,8.132654e+000
3.394581e+002,9.194928e+000
3.404223e+002,9.166071e+000
3.413865e+002,9.666479e+000
3.423508e+002,1.202573e+001
3.433150e+002,1.614073e+001
3.442792e+002,2.153713e+001
3.452435e+002,2.756892e+001
3.462077e+002,3.438740e+001
3.471719e+002,4.167309e+001
3.481362e+002,4.876099e+001
3.491004e+002,5.719344e+001
3.500646e+002,7.047099e+001
3.510289e+002,8.886266e+001
3.519931e+002,1.140347e+002
3.529573e+002,1.472064e+002
3.539216e+002,1.866665e+002
3.548858e+002,2.316401e+002
3.558500e+002,2.982231e+002
3.568143e+002,3.455107e+002
3.577785e+002,3.597923e+002
3.587427e+002,3.459887e+002
3.597070e+002,3.123543e+002
3.606712e+002,2.586000e+002
3.616354e+002,1.989209e+002
3.625997e+002,1.504587e+002
3.635639e+002,1.140672e+002
3.645281e+002,8.784988e+001
3.654924e+002,6.840936e+001
3.664566e+002,5.776713e+001
3.674208e+002,4.835370e+001
3.683851e+002,4.001630e+001
3.693493e+002,3.292133e+001
3.703135e+002,2.759070e+001
3.712778e+002,2.601274e+001
3.722420e+002,2.392802e+001
3.732062e+002,2.004067e+001
3.741705e+002,1.567484e+001
3.751347e+002,1.309131e+001
3.760989e+002,1.480024e+001
3.770632e+002,1.660180e+001
3.780274e+002,1.594930e+001
3.789916e+002,1.370372e+001
3.799559e+002,1.143232e+001
3.809201e+002,1.094427e+001
3.818844e+002,1.166200e+001
3.828486e+002,1.133647e+001
3.838128e+002,1.008033e+001
3.847771e+002,8.850904e+000
3.857413e+002,9.097058e+000
3.867055e+002,1.166109e+001
3.876698e+002,1.380128e+001
3.886340e+002,1.522238e+001
3.895982e+002,1.629705e+001
3.905625e+002,1.769602e+001
3.915267e+002,2.027078e+001
3.924909e+002,2.163085e+001
3.934552e+002,2.109741e+001
3.944194e+002,1.948256e+001
3.953836e+002,1.745660e+001
3.963479e+002,1.508981e+001
3.973121e+002,1.329249e+001
3.982763e+002,1.300132e+001
3.992406e+002,1.361608e+001
4.002048e+002,1.430866e+001
4.011690e+002,1.427031e+001
4.021333e+002,1.360862e+001
4.030975e+002,1.322820e+001
4.040617e+002,1.307127e+001
4.050260e+002,1.378572e+001
4.059902e+002,1.617632e+001
4.069544e+002,2.103456e+001
4.079187e+002,2.541527e+001
4.088829e+002,2.877592e+001
4.098471e+002,3.213497e+001
4.108114e+002,3.605611e+001
4.117756e+002,4.049667e+001
4.127398e+002,4.631524e+001
4.137041e+002,5.633926e+001
4.146683e+002,6.597279e+001
4.156325e+002,7.193095e+001
4.165968e+002,7.247567e+001
4.175610e+002,6.899950e+001
4.185252e+002,6.191816e+001
4.194895e+002,5.361573e+001
4.204537e+002,4.727003e+001
4.214179e+002,4.486688e+001
4.223822e+002,4.615623e+001
4.233464e+002,4.649861e+001
4.243106e+002,4.527427e+001
4.252749e+002,4.491685e+001
4.262391e+002,4.619813e+001
4.272033e+002,4.909404e+001
4.281676e+002,5.510435e+001
4.291318e+002,6.423513e+001
4.300960e+002,7.621535e+001
4.310603e+002,9.050623e+001
4.320245e+002,1.071220e+002
4.329887e+002,1.276594e+002
4.339530e+002,1.577132e+002
4.349172e+002,1.895677e+002
4.358814e+002,2.229340e+002
4.368457e+002,2.554373e+002
4.378099e+002,2.826011e+002
4.387741e+002,2.940155e+002
4.397384e+002,2.917804e+002
4.407026e+002,2.816170e+002
4.416668e+002,2.640153e+002
4.426311e+002,2.406944e+002
4.435953e+002,2.174212e+002
4.445595e+002,1.904443e+002
4.455238e+002,1.690738e+002
4.464880e+002,1.557930e+002
4.474522e+002,1.481933e+002
4.484165e+002,1.414264e+002
4.493807e+002,1.354085e+002
4.503449e+002,1.289662e+002
4.513092e+002,1.222068e+002
4.522734e+002,1.145766e+002
4.532376e+002,1.049676e+002
4.542019e+002,9.168439e+001
4.551661e+002,7.787125e+001
4.561303e+002,6.707851e+001
4.570946e+002,5.909840e+001
4.580588e+002,5.351134e+001
4.590230e+002,4.990053e+001
4.599873e+002,4.850684e+001
4.609515e+002,4.657970e+001
4.619157e+002,4.343288e+001
4.628800e+002,4.087332e+001
4.638442e+002,4.067027e+001
4.648084e+002,4.362521e+001
4.657727e+002,4.672129e+001
4.667369e+002,5.005979e+001
4.677011e+002,5.332871e+001
4.686654e+002,5.657919e+001
4.696296e+002,5.984542e+001
4.705938e+002,6.194012e+001
4.715581e+002,6.180695e+001
4.725223e+002,6.037323e+001
4.734865e+002,5.796553e+001
4.744508e+002,5.484040e+001
4.754150e+002,5.119394e+001
4.763792e+002,4.713441e+001
4.773435e+002,4.284690e+001
4.783077e+002,3.892344e+001
4.792719e+002,3.558025e+001
4.802362e+002,3.278085e+001
4.812004e+002,3.024502e+001
4.821646e+002,2.790167e+001
4.831289e+002,2.582328e+001
4.840931e+002,2.426433e+001
4.850573e+002,2.291350e+001
4.860216e+002,2.089573e+001
4.869858e+002,1.698902e+001
4.879500e+002,1.403403e+001
4.889143e+002,1.325806e+001
4.898785e+002,1.387717e+001
4.908427e+002,1.468713e+001
4.918070e+002,1.477903e+001
4.927712e+002,1.424996e+001
4.937354e+002,1.316892e+001
4.946997e+002,1.185065e+001
4.956639e+002,1.110083e+001
4.966281e+002,1.176230e+001
4.975924e+002,1.401297e+001
4.985566e+002,1.514814e+001
4.995208e+002,1.415757e+001
5.004851e+002,1.374893e+001
5.014493e+002,1.638522e+001
5.024135e+002,2.303296e+001
5.033778e+002,2.811856e+001
5.043420e+002,2.996457e+001
5.053063e+002,3.157273e+001
5.062705e+002,3.507582e+001
5.072347e+002,4.050312e+001
5.081990e+002,4.428651e+001
5.091632e+002,4.162385e+001
5.101274e+002,3.653064e+001
5.110917e+002,3.015434e+001
5.120559e+002,2.340959e+001
5.130201e+002,1.735079e+001
5.139844e+002,1.434180e+001
5.149486e+002,1.412538e+001
5.159128e+002,1.313647e+001
5.168771e+002,1.091173e+001
5.178413e+002,7.867529e+000
5.188055e+002,4.821149e+000
5.197698e+002,9.611816e-001
5.207340e+002,-1.473077e+000
5.216982e+002,-1.507507e+000
5.226625e+002,-6.936218e-001
5.236267e+002,-8.928955e-001
5.245909e+002,-3.132831e+000
5.255552e+002,-4.970062e+000
5.265194e+002,-4.956323e+000
5.274836e+002,-4.170911e+000
5.284479e+002,-3.351654e+000
5.294121e+002,-2.932031e+000
5.303763e+002,-2.964795e+000
5.313406e+002,-4.260443e+000
5.323048e+002,-6.161621e+000
5.332690e+002,-7.140741e+000
5.342333e+002,-6.401801e+000
5.351975e+002,-4.223328e+000
5.361617e+002,-2.927661e+000
5.371260e+002,-2.836096e+000
5.380902e+002,-3.017175e+000
5.390544e+002,-3.538812e+000
5.400187e+002,-4.311658e+000
5.409829e+002,-4.948425e+000
5.419471e+002,-5.150928e+000
5.429114e+002,-5.341553e+000
5.438756e+002,-5.763220e+000
5.448398e+002,-6.257208e+000
5.458041e+002,-6.527301e+000
5.467683e+002,-6.280939e+000
5.477325e+002,-5.885828e+000
5.486968e+002,-5.880200e+000
5.496610e+002,-6.173358e+000
5.506252e+002,-6.649981e+000
5.515895e+002,-7.218329e+000
5.525537e+002,-7.873444e+000
5.535179e+002,-8.069818e+000
5.544822e+002,-7.791724e+000
5.554464e+002,-7.272021e+000
5.564106e+002,-6.482459e+000
5.573749e+002,-5.445971e+000
5.583391e+002,-4.859992e+000
5.593033e+002,-5.036499e+000
5.602676e+002,-5.364947e+000
5.612318e+002,-5.745184e+000
5.621960e+002,-6.158435e+000
5.631603e+002,-6.613245e+000
5.641245e+002,-7.085711e+000
5.650887e+002,-7.640882e+000
5.660530e+002,-8.720465e+000
5.670172e+002,-9.951251e+000
5.679814e+002,-1.044514e+001
5.689457e+002,-9.183154e+000
5.699099e+002,-6.400256e+000
5.708741e+002,-5.430841e+000
5.718384e+002,-6.397986e+000
5.728026e+002,-7.724256e+000
5.737668e+002,-8.027166e+000
5.747311e+002,-6.965918e+000
5.756953e+002,-6.705054e+000
5.766595e+002,-7.845782e+000
5.776238e+002,-9.024115e+000
5.785880e+002,-9.711487e+000
5.795522e+002,-9.897326e+000
5.805165e+002,-1.003020e+001
5.814807e+002,-1.050173e+001
5.824449e+002,-1.086123e+001
5.834092e+002,-1.077968e+001
5.843734e+002,-1.037455e+001
5.853376e+002,-1.003456e+001
5.863019e+002,-1.028412e+001
5.872661e+002,-1.084431e+001
5.882303e+002,-1.028420e+001
5.891946e+002,-8.561157e+000
5.901588e+002,-6.698877e+000
5.911230e+002,-5.776672e+000
5.920873e+002,-6.075763e+000
5.930515e+002,-6.338458e+000
5.940157e+002,-6.024115e+000
5.949800e+002,-6.169861e+000
5.959442e+002,-7.894556e+000
5.969084e+002,-1.112904e+001
5.978727e+002,-1.326975e+001
5.988369e+002,-1.158128e+001
5.998011e+002,-9.407099e+000
6.007654e+002,-7.642303e+000
6.017296e+002,-6.600702e+000
6.026938e+002,-6.447412e+000
6.036581e+002,-7.657758e+000
6.046223e+002,-9.591761e+000
6.055865e+002,-1.023746e+001
6.065508e+002,-9.633746e+000
6.075150e+002,-8.599787e+000
6.084792e+002,-8.018763e+000
6.094435e+002,-8.018799e+000
6.104077e+002,-7.738666e+000
6.113719e+002,-6.914880e+000
6.123362e+002,-6.232758e+000
6.133004e+002,-6.341657e+000
6.142646e+002,-7.226288e+000
6.152289e+002,-7.390741e+000
6.161931e+002,-4.884302e+000
6.171573e+002,-2.743237e+000
6.181216e+002,-2.338135e+000
6.190858e+002,-3.268976e+000
6.200500e+002,-4.296826e+000
6.210143e+002,-4.429437e+000
6.219785e+002,-3.624176e+000
6.229427e+002,-1.979114e+000
6.239070e+002,3.463257e-001
6.248712e+002,2.817493e+000
6.258354e+002,4.961780e+000
6.267997e+002,6.848358e+000
6.277639e+002,8.310064e+000
6.287281e+002,9.224475e+000
6.296924e+002,9.868286e+000
6.306566e+002,1.057922e+001
6.316208e+002,1.127779e+001
6.325851e+002,1.104821e+001
6.335493e+002,7.891925e+000
6.345135e+002,5.578735e+000
6.354778e+002,5.656854e+000
6.364420e+002,7.341901e+000
6.374063e+002,9.056036e+000
6.383705e+002,9.747107e+000
6.393347e+002,9.432409e+000
6.402990e+002,8.354212e+000
6.412632e+002,6.701959e+000
6.422274e+002,4.640741e+000
6.431917e+002,2.243579e+000
6.441559e+002,-4.210877e-001
6.451201e+002,-8.910583e-001
6.460844e+002,2.250275e+000
6.470486e+002,4.452100e+000
6.480128e+002,3.846094e+000
6.489771e+002,1.085431e+000
6.499413e+002,-1.079858e+000
6.509055e+002,-2.037909e+000
6.518698e+002,-2.463562e+000
6.528340e+002,-2.269367e+000
6.537982e+002,-1.744525e+000
6.547625e+002,-1.135852e+000
6.557267e+002,-5.501892e-001
6.566909e+002,-2.506104e-001
6.576552e+002,-1.013324e+000
6.586194e+002,-2.186932e+000
6.595836e+002,-2.619281e+000
6.605479e+002,-1.747992e+000
6.615121e+002,9.045410e-003
6.624763e+002,7.627991e-001
6.634406e+002,1.178284e-001
6.644048e+002,-5.772766e-001
6.653690e+002,-1.375507e+000
6.663333e+002,-2.167206e+000
6.672975e+002,-2.627362e+000
6.682617e+002,-2.403332e+000
6.692260e+002,-2.339600e+000
6.701902e+002,-3.214984e+000
6.711544e+002,-3.927685e+000
6.721187e+002,-3.224494e+000
6.730829e+002,-8.068298e-001
6.740471e+002,1.598566e+000
6.750114e+002,1.020514e+000
6.759756e+002,-6.173096e-001
6.769398e+002,-1.467035e+000
6.779041e+002,-1.134857e+000
6.788683e+002,-2.083130e-001
6.798325e+002,2.434814e-001
6.807968e+002,-2.461548e-002
6.817610e+002,2.939270e-001
6.827252e+002,1.970630e+000
6.836895e+002,3.592609e+000
6.846537e+002,3.662512e+000
6.856179e+002,1.783838e+000
6.865822e+002,4.736206e-001
6.875464e+002,5.972107e-001
6.885106e+002,1.111230e+000
6.894749e+002,1.771777e+000
6.904391e+002,2.438794e+000
6.914034e+002,2.984497e+000
6.923676e+002,3.217072e+000
6.933318e+002,3.378168e+000
6.942961e+002,3.790002e+000
6.952603e+002,4.417066e+000
6.962245e+002,5.100818e+000
6.971888e+002,5.687604e+000
6.981530e+002,6.147803e+000
6.991172e+002,6.692468e+000
7.000815e+002,7.162829e+000
7.010457e+002,7.881457e+000
7.020099e+002,9.252124e+000
7.029742e+002,1.111070e+001
7.039384e+002,1.256061e+001
7.049026e+002,1.344318e+001
7.058669e+002,1.367773e+001
7.068311e+002,1.233568e+001
7.077953e+002,1.072293e+001
7.087596e+002,1.074086e+001
7.097238e+002,1.351421e+001
7.106880e+002,1.692282e+001
7.116523e+002,1.720198e+001
7.126165e+002,1.582152e+001
7.135807e+002,1.485385e+001
7.145450e+002,1.510764e+001
7.155092e+002,1.606845e+001
7.164734e+002,1.627717e+001
7.174377e+002,1.526464e+001
7.184019e+002,1.436602e+001
7.193661e+002,1.372095e+001
7.203304e+002,1.302045e+001
7.212946e+002,1.183673e+001
7.222589e+002,9.983343e+000
7.232231e+002,8.587585e+000
7.241873e+002,8.171344e+000
7.251516e+002,8.098383e+000
7.261158e+002,8.122278e+000
7.270800e+002,8.131671e+000
7.280443e+002,8.108874e+000
7.290085e+002,8.088989e+000
7.299727e+002,8.040051e+000
7.309370e+002,8.053431e+000
7.319012e+002,8.054626e+000
7.328654e+002,7.532983e+000
7.338297e+002,5.930804e+000
7.347939e+002,3.146454e+000
7.357581e+002,1.461560e+000
7.367224e+002,9.199158e-001
7.376866e+002,1.155975e+000
7.386508e+002,2.844727e+000
7.396151e+002,5.268548e+000
7.405793e+002,6.324603e+000
7.415435e+002,4.512323e+000
7.425078e+002,2.937634e+000
7.434720e+002,2.910468e+000
7.444362e+002,3.710700e+000
7.454005e+002,4.710254e+000
7.463647e+002,5.577728e+000
7.473289e+002,6.264594e+000
7.482932e+002,6.597046e+000
7.492574e+002,6.737555e+000
7.502216e+002,6.939288e+000
7.511859e+002,7.216504e+000
7.521501e+002,7.572375e+000
7.531143e+002,8.132007e+000
7.540786e+002,9.364392e+000
7.550428e+002,9.675140e+000
7.560070e+002,8.295880e+000
7.569713e+002,6.914459e+000
7.579355e+002,6.740881e+000
7.588997e+002,7.740173e+000
7.598640e+002,8.408747e+000
7.608282e+002,7.645844e+000
7.617924e+002,6.647229e+000
7.627567e+002,5.489496e+000
7.637209e+002,4.632898e+000
7.646851e+002,4.944275e+000
7.656494e+002,7.160089e+000
7.666136e+002,1.057964e+001
7.675778e+002,1.243777e+001
7.685421e+002,1.300047e+001
7.695063e+002,1.315802e+001
7.704705e+002,1.322119e+001
7.714348e+002,1.319319e+001
7.723990e+002,1.305788e+001
7.733632e+002,1.247885e+001
7.743275e+002,1.228531e+001
7.752917e+002,1.279340e+001
7.762559e+002,1.355219e+001
7.772202e+002,1.396793e+001
7.781844e+002,1.388450e+001
7.791486e+002,1.427076e+001
7.801129e+002,1.703873e+001
7.810771e+002,1.995647e+001
7.820413e+002,2.144085e+001
7.830056e+002,2.147632e+001
7.839698e+002,2.086459e+001
7.849340e+002,2.046564e+001
7.858983e+002,2.032585e+001
7.868625e+002,2.109278e+001
7.878267e+002,2.311273e+001
7.887910e+002,2.463940e+001
7.897552e+002,2.408808e+001
7.907194e+002,2.189382e+001
7.916837e+002,2.156080e+001
7.926479e+002,2.544825e+001
7.936121e+002,2.850782e+001
7.945764e+002,2.931578e+001
7.955406e+002,2.903012e+001
7.965048e+002,2.897074e+001
7.974691e+002,2.970175e+001
7.984333e+002,3.081707e+001
7.993975e+002,3.162237e+001
8.003618e+002,3.242139e+001
8.013260e+002,3.365550e+001
8.022902e+002,3.538530e+001
8.032545e+002,3.731384e+001
8.042187e+002,3.900256e+001
8.051829e+002,4.033659e+001
8.061472e+002,4.243920e+001
8.071114e+002,4.582632e+001
8.080756e+002,4.913404e+001
8.090399e+002,5.133390e+001
8.100041e+002,5.272384e+001
8.109683e+002,5.525736e+001
8.119326e+002,6.034180e+001
8.128968e+002,6.549794e+001
8.138610e+002,6.934481e+001
8.148253e+002,7.290903e+001
8.157895e+002,7.756458e+001
8.167537e+002,8.399153e+001
8.177180e+002,9.119814e+001
8.186822e+002,9.744253e+001
8.196464e+002,1.031166e+002
8.206107e+002,1.095307e+002
8.215749e+002,1.170754e+002
8.225391e+002,1.238889e+002
8.235034e+002,1.269184e+002
8.244676e+002,1.250607e+002
8.254318e+002,1.223234e+002
8.263961e+002,1.184750e+002
8.273603e+002,1.146021e+002
8.283245e+002,1.113676e+002
8.292888e+002,1.084706e+002
8.302530e+002,1.047053e+002
8.312172e+002,9.879940e+001
8.321815e+002,9.314478e+001
8.331457e+002,8.974270e+001
8.341099e+002,8.754284e+001
8.350742e+002,8.489644e+001
8.360384e+002,8.106137e+001
8.370026e+002,7.698949e+001
8.379669e+002,7.517957e+001
8.389311e+002,7.571943e+001
8.398953e+002,7.458941e+001
8.408596e+002,7.107675e+001
8.418238e+002,6.622319e+001
8.427880e+002,6.071539e+001
8.437523e+002,5.400446e+001
8.447165e+002,4.962739e+001
8.456807e+002,5.008904e+001
8.466450e+002,5.060976e+001
8.476092e+002,4.937677e+001
8.485734e+002,4.685006e+001
8.495377e+002,4.452494e+001
8.505019e+002,4.339194e+001
8.514661e+002,4.248181e+001
8.524304e+002,3.996256e+001
8.533946e+002,3.686611e+001
8.543588e+002,3.499876e+001
8.553231e+002,3.500781e+001
8.562873e+002,3.606895e+001
8.572515e+002,3.638331e+001
8.582158e+002,3.582238e+001
8.591800e+002,3.459423e+001
8.601442e+002,3.138770e+001
8.611085e+002,2.874706e+001
8.620727e+002,2.895999e+001
8.630369e+002,3.182703e+001
8.640012e+002,3.387117e+001
8.649654e+002,3.332209e+001
8.659296e+002,3.229490e+001
8.668939e+002,3.128406e+001
8.678581e+002,3.057516e+001
8.688223e+002,3.053808e+001
8.697866e+002,3.132172e+001
8.707508e+002,3.250343e+001
8.717150e+002,3.320646e+001
8.726793e+002,3.352257e+001
8.736435e+002,3.403414e+001
8.746077e+002,3.500083e+001
8.755720e+002,3.570570e+001
8.765362e+002,3.511986e+001
8.775004e+002,3.295739e+001
8.784647e+002,3.073620e+001
8.794289e+002,2.785846e+001
8.803931e+002,2.559057e+001
8.813574e+002,2.486837e+001
8.823216e+002,2.494536e+001
8.832858e+002,2.421683e+001
8.842501e+002,2.177874e+001
8.852143e+002,1.930719e+001
8.861785e+002,1.849521e+001
8.871428e+002,1.853904e+001
8.881070e+002,1.874725e+001
8.890712e+002,1.884684e+001
8.900355e+002,1.879046e+001
8.909997e+002,1.850843e+001
8.919639e+002,1.800120e+001
8.929282e+002,1.732123e+001
8.938924e+002,1.624119e+001
8.948566e+002,1.529221e+001
8.958209e+002,1.488510e+001
8.967851e+002,1.486730e+001
8.977493e+002,1.454980e+001
8.987136e+002,1.358673e+001
8.996778e+002,1.253784e+001
9.006420e+002,1.153377e+001
9.016063e+002,1.065072e+001
9.025705e+002,1.005173e+001
9.035347e+002,9.738935e+000
9.044990e+002,9.437830e+000
9.054632e+002,8.689850e+000
9.064274e+002,7.617450e+000
9.073917e+002,7.015326e+000
9.083559e+002,6.952447e+000
9.093201e+002,6.896094e+000
9.102844e+002,6.466559e+000
9.112486e+002,5.659546e+000
9.122128e+002,4.536536e+000
9.131771e+002,2.097986e+000
9.141413e+002,7.455505e-001
9.151055e+002,1.701129e+000
9.160698e+002,3.199792e+000
9.170340e+002,3.303461e+000
9.179982e+002,1.609564e+000
9.189625e+002,-1.020142e-001
9.199267e+002,3.623047e-002
9.208909e+002,5.690247e-001
9.218552e+002,-3.485107e-003
9.228194e+002,-1.481726e+000
9.237836e+002,-3.043597e+000
9.247479e+002,-4.045761e+000
9.257121e+002,-4.493314e+000
9.266763e+002,-4.362048e+000
9.276406e+002,-3.304303e+000
9.286048e+002,-2.470630e+000
9.295690e+002,-1.830243e+000
9.305333e+002,-1.538715e+000
9.314975e+002,-1.950262e+000
9.324617e+002,-3.184360e+000
9.334260e+002,-4.181793e+000
9.343902e+002,-4.382867e+000
9.353545e+002,-4.317682e+000
9.363187e+002,-4.195279e+000
9.372830e+002,-3.972900e+000
9.382472e+002,-3.323987e+000
9.392114e+002,-2.054150e+000
9.401757e+002,-7.333679e-001
9.411399e+002,-1.136237e+000
9.421041e+002,-2.997125e+000
9.430684e+002,-4.308823e+000
9.440326e+002,-4.753119e+000
9.449968e+002,-4.548499e+000
9.459611e+002,-3.686551e+000
9.469253e+002,-1.897565e+000
9.478895e+002,-8.610169e-001
9.488538e+002,-1.456592e+000
9.498180e+002,-2.007245e+000
9.507822e+002,-2.043976e+000
9.517465e+002,-1.796698e+000
9.527107e+002,-1.734228e+000
9.536749e+002,-2.039282e+000
9.546392e+002,-2.146405e+000
9.556034e+002,-1.201044e+000
9.565676e+002,2.649475e-001
9.575319e+002,1.888165e+000
9.584961e+002,3.543976e+000
9.594603e+002,4.736548e+000
9.604246e+002,4.835272e+000
9.613888e+002,3.807013e+000
9.623530e+002,3.617920e+000
9.633173e+002,3.948016e+000
9.642815e+002,5.516187e+000
9.652457e+002,8.641607e+000
9.662100e+002,1.303717e+001
9.671742e+002,1.799919e+001
9.681384e+002,2.329512e+001
9.691027e+002,3.056304e+001
9.700669e+002,4.096177e+001
9.710311e+002,5.392416e+001
9.719954e+002,7.370353e+001
9.729596e+002,9.569429e+001
9.739238e+002,1.101769e+002
9.748881e+002,1.105737e+002
9.758523e+002,9.979246e+001
9.768165e+002,8.650304e+001
9.777808e+002,6.971716e+001
9.787450e+002,5.625517e+001
9.797092e+002,4.830711e+001
9.806735e+002,4.273854e+001
9.816377e+002,3.633702e+001
9.826019e+002,2.906096e+001
9.835662e+002,2.378532e+001
9.845304e+002,2.253995e+001
9.854946e+002,2.211132e+001
9.864589e+002,2.184576e+001
9.874231e+002,2.155967e+001
9.883873e+002,2.090532e+001
9.893516e+002,1.983107e+001
9.903158e+002,1.901420e+001
9.912800e+002,1.950120e+001
9.922443e+002,2.128224e+001
9.932085e+002,2.325070e+001
9.941727e+002,2.532329e+001
9.951370e+002,2.848252e+001
9.961012e+002,3.297994e+001
9.970654e+002,3.884507e+001
9.980297e+002,4.713337e+001
9.989939e+002,5.516039e+001
9.999581e+002,7.133360e+001
1.000922e+003,9.189998e+001
1.001887e+003,1.237881e+002
1.002851e+003,1.768273e+002
1.003815e+003,2.479445e+002
1.004779e+003,3.253129e+002
1.005744e+003,4.123372e+002
1.006708e+003,4.783589e+002
1.007672e+003,4.757460e+002
1.008636e+003,4.229973e+002
1.009600e+003,3.544014e+002
1.010565e+003,2.841081e+002
1.011529e+003,2.173841e+002
1.012493e+003,1.660530e+002
1.013457e+003,1.337679e+002
1.014422e+003,1.074580e+002
1.015386e+003,8.749580e+001
1.016350e+003,7.130418e+001
1.017314e+003,5.864616e+001
1.018279e+003,4.873702e+001
1.019243e+003,4.040276e+001
1.020207e+003,3.333801e+001
1.021171e+003,2.773027e+001
1.022135e+003,2.482321e+001
1.023100e+003,2.274694e+001
1.024064e+003,1.966338e+001
1.025028e+003,1.562262e+001
1.025992e+003,1.205079e+001
1.026957e+003,1.024638e+001
1.027921e+003,9.981619e+000
1.028885e+003,9.477496e+000
1.029849e+003,8.591284e+000
1.030814e+003,7.792773e+000
1.031778e+003,7.020200e+000
1.032742e+003,6.298868e+000
1.033706e+003,5.684384e+000
1.034671e+003,5.229032e+000
1.035635e+003,5.010422e+000
1.036599e+003,5.368772e+000
1.037563e+003,5.558646e+000
1.038527e+003,4.852286e+000
1.039492e+003,3.867276e+000
1.040456e+003,3.528998e+000
1.041420e+003,4.105646e+000
1.042384e+003,4.917929e+000
1.043349e+003,4.938995e+000
1.044313e+003,4.166693e+000
1.045277e+003,3.723291e+000
1.046241e+003,3.659741e+000
1.047206e+003,3.683469e+000
1.048170e+003,3.810773e+000
1.049134e+003,3.910962e+000
1.050098e+003,3.543716e+000
1.051063e+003,2.414502e+000
1.052027e+003,1.797601e+000
1.052991e+003,2.445587e+000
1.053955e+003,3.220529e+000
1.054919e+003,3.682410e+000
1.055884e+003,3.725714e+000
1.056848e+003,3.261340e+000
1.057812e+003,2.266208e+000
1.058776e+003,1.177402e+000
1.059741e+003,9.658691e-001
1.060705e+003,1.436081e+000
1.061669e+003,1.329465e+000
1.062633e+003,3.272308e-001
1.063598e+003,-8.742126e-001
1.064562e+003,-1.640219e+000
1.065526e+003,-1.954321e+000
1.066490e+003,-2.166269e+000
1.067454e+003,-2.694183e+000
1.068419e+003,-2.417297e+000
1.069383e+003,-3.864929e-001
1.070347e+003,1.808072e+000
1.071311e+003,2.771680e+000
1.072276e+003,2.563263e+000
1.073240e+003,2.391644e+000
1.074204e+003,3.228928e+000
1.075168e+003,4.508728e+000
1.076133e+003,5.068350e+000
1.077097e+003,4.988678e+000
1.078061e+003,4.167139e+000
1.079025e+003,2.357019e+000
1.079990e+003,4.093201e-001
1.080954e+003,-4.755615e-001
1.081918e+003,-1.892487e-001
1.082882e+003,4.683746e-001
1.083846e+003,1.951288e+000
1.084811e+003,3.212109e+000
1.085775e+003,4.268732e+000
1.086739e+003,4.858502e+000
1.087703e+003,4.445691e+000
1.088668e+003,3.125168e+000
1.089632e+003,2.122800e+000
1.090596e+003,2.672143e+000
1.091560e+003,3.857205e+000
1.092525e+003,3.682166e+000
1.093489e+003,2.476505e+000
1.094453e+003,1.639957e+000
1.095417e+003,1.828796e+000
1.096381e+003,2.695630e+000
1.097346e+003,3.641229e+000
1.098310e+003,4.865637e+000
1.099274e+003,5.438928e+000
1.100238e+003,4.955157e+000
1.101203e+003,4.422272e+000
1.102167e+003,4.231488e+000
1.103131e+003,4.074921e+000
1.104095e+003,3.434015e+000
1.105060e+003,2.185111e+000
1.106024e+003,8.020386e-001
1.106988e+003,-7.273620e-001
1.107952e+003,-1.564502e+000
1.108917e+003,2.305298e-002
1.109881e+003,3.371683e+000
1.110845e+003,5.736273e+000
1.111809e+003,5.557886e+000
1.112773e+003,3.888324e+000
1.113738e+003,3.230884e+000
1.114702e+003,4.055603e+000
1.115666e+003,4.722888e+000
1.116630e+003,4.935342e+000
1.117595e+003,5.299548e+000
1.118559e+003,6.679086e+000
1.119523e+003,8.071637e+000
1.120487e+003,7.509223e+000
1.121452e+003,4.523553e+000
1.122416e+003,2.028824e+000
1.123380e+003,3.117038e+000
1.124344e+003,5.648810e+000
1.125308e+003,6.690387e+000
1.126273e+003,6.484702e+000
1.127237e+003,6.233344e+000
1.128201e+003,6.582153e+000
1.129165e+003,7.251489e+000
1.130130e+003,7.597876e+000
1.131094e+003,7.546686e+000
1.132058e+003,7.225967e+000
1.133022e+003,6.016379e+000
1.133987e+003,5.374353e+000
1.134951e+003,6.391159e+000
1.135915e+003,8.033984e+000
1.136879e+003,8.674597e+000
1.137844e+003,7.926251e+000
1.138808e+003,7.073944e+000
1.139772e+003,7.062137e+000
1.140736e+003,7.513019e+000
1.141700e+003,8.109662e+000
1.142665e+003,8.773462e+000
1.143629e+003,9.199240e+000
1.144593e+003,9.235651e+000
1.145557e+003,9.125742e+000
1.146522e+003,9.352246e+000
1.147486e+003,1.005201e+001
1.148450e+003,1.015582e+001
1.149414e+003,9.054443e+000
1.150379e+003,8.335474e+000
1.151343e+003,8.728144e+000
1.152307e+003,9.543988e+000
1.153271e+003,9.871539e+000
1.154235e+003,9.527990e+000
1.155200e+003,9.085047e+000
1.156164e+003,8.886759e+000
1.157128e+003,9.067495e+000
1.158092e+003,9.738482e+000
1.159057e+003,1.079667e+001
1.160021e+003,1.205862e+001
1.160985e+003,1.344583e+001
1.161949e+003,1.483464e+001
1.162914e+003,1.611879e+001
1.163878e+003,1.737705e+001
1.164842e+003,1.811193e+001
1.165806e+003,1.781585e+001
1.166771e+003,1.753849e+001
1.167735e+003,1.722749e+001
1.168699e+003,1.712947e+001
1.169663e+003,1.759536e+001
1.170627e+003,1.852653e+001
1.171592e+003,1.937042e+001
1.172556e+003,1.981175e+001
1.173520e+003,2.002313e+001
1.174484e+003,1.985225e+001
1.175449e+003,1.967791e+001
1.176413e+003,2.048700e+001
1.177377e+003,2.248940e+001
1.178341e+003,2.480119e+001
1.179306e+003,2.668162e+001
1.180270e+003,2.814041e+001
1.181234e+003,2.890305e+001
1.182198e+003,2.835700e+001
1.183162e+003,2.807059e+001
1.184127e+003,2.845217e+001
1.185091e+003,2.883205e+001
1.186055e+003,2.915262e+001
1.187019e+003,2.915684e+001
1.187984e+003,2.809194e+001
1.188948e+003,2.555313e+001
1.189912e+003,2.289200e+001
1.190876e+003,2.192140e+001
1.191841e+003,2.217171e+001
1.192805e+003,2.237524e+001
1.193769e+003,2.248226e+001
1.194733e+003,2.282379e+001
1.195698e+003,2.383557e+001
1.196662e+003,2.499967e+001
1.197626e+003,2.489424e+001
1.198590e+003,2.315885e+001
1.199554e+003,2.139816e+001
1.200519e+003,1.917006e+001
1.201483e+003,1.780239e+001
1.202447e+003,1.849920e+001
1.203411e+003,1.989008e+001
1.204376e+003,1.997834e+001
1.205340e+003,1.845431e+001
1.206304e+003,1.708215e+001
1.207268e+003,1.761432e+001
1.208233e+003,1.943252e+001
1.209197e+003,2.058428e+001
1.210161e+003,2.109507e+001
1.211125e+003,2.101937e+001
1.212089e+003,2.012012e+001
1.213054e+003,1.891354e+001
1.214018e+003,1.788630e+001
1.214982e+003,1.713145e+001
1.215946e+003,1.709086e+001
1.216911e+003,1.815671e+001
1.217875e+003,1.917679e+001
1.218839e+003,1.988972e+001
1.219803e+003,2.028867e+001
1.220768e+003,2.040564e+001
1.221732e+003,2.030375e+001
1.222696e+003,1.998251e+001
1.223660e+003,1.943743e+001
1.224625e+003,1.879022e+001
1.225589e+003,1.822619e+001
1.226553e+003,1.773075e+001
1.227517e+003,1.759337e+001
1.228481e+003,1.780725e+001
1.229446e+003,1.845235e+001
1.230410e+003,1.979575e+001
1.231374e+003,2.146094e+001
1.232338e+003,2.313788e+001
1.233303e+003,2.490741e+001
1.234267e+003,2.534352e+001
1.235231e+003,2.277372e+001
1.236195e+003,2.014755e+001
1.237160e+003,1.855138e+001
1.238124e+003,1.808299e+001
1.239088e+003,1.960515e+001
1.240052e+003,2.267832e+001
1.241016e+003,2.496955e+001
1.241981e+003,2.420217e+001
1.242945e+003,2.111174e+001
1.243909e+003,1.913104e+001
1.244873e+003,1.879063e+001
1.245838e+003,1.853638e+001
1.246802e+003,1.787566e+001
1.247766e+003,1.780816e+001
1.248730e+003,1.920600e+001
1.249695e+003,2.153385e+001
1.250659e+003,2.387583e+001
1.251623e+003,2.611643e+001
1.252587e+003,2.730457e+001
1.253552e+003,2.601883e+001
1.254516e+003,2.405656e+001
1.255480e+003,2.328536e+001
1.256444e+003,2.329369e+001
1.257408e+003,2.284725e+001
1.258373e+003,2.150684e+001
1.259337e+003,2.037471e+001
1.260301e+003,2.117001e+001
1.261265e+003,2.394522e+001
1.262230e+003,2.527422e+001
1.263194e+003,2.348348e+001
1.264158e+003,2.235271e+001
1.265122e+003,2.214391e+001
1.266087e+003,2.264165e+001
1.267051e+003,2.432702e+001
1.268015e+003,2.653712e+001
1.268979e+003,2.780844e+001
1.269943e+003,2.752792e+001
1.270908e+003,2.640217e+001
1.271872e+003,2.448712e+001
1.272836e+003,2.275399e+001
1.273800e+003,2.378243e+001
1.274765e+003,2.735926e+001
1.275729e+003,3.048093e+001
1.276693e+003,3.190388e+001
1.277657e+003,3.191766e+001
1.278622e+003,3.045675e+001
1.279586e+003,2.735555e+001
1.280550e+003,2.546285e+001
1.281514e+003,2.566600e+001
1.282479e+003,2.633556e+001
1.283443e+003,2.755286e+001
1.284407e+003,2.853385e+001
1.285371e+003,2.821618e+001
1.286335e+003,2.711680e+001
1.287300e+003,2.696710e+001
1.288264e+003,2.864355e+001
1.289228e+003,3.054703e+001
1.290192e+003,2.987101e+001
1.291157e+003,2.681653e+001
1.292121e+003,2.631141e+001
1.293085e+003,2.917130e+001
1.294049e+003,3.140735e+001
1.295014e+003,3.139637e+001
1.295978e+003,3.044177e+001
1.296942e+003,2.982225e+001
1.297906e+003,2.963029e+001
1.298870e+003,3.005696e+001
1.299835e+003,3.143858e+001
1.300799e+003,3.262045e+001
1.301763e+003,3.247094e+001
1.302727e+003,3.205598e+001
1.303692e+003,3.254107e+001
1.304656e+003,3.381382e+001
1.305620e+003,3.500370e+001
1.306584e+003,3.556963e+001
1.307549e+003,3.565023e+001
1.308513e+003,3.553072e+001
1.309477e+003,3.516994e+001
1.310441e+003,3.462545e+001
1.311406e+003,3.301754e+001
1.312370e+003,3.258252e+001
1.313334e+003,3.474754e+001
1.314298e+003,3.727379e+001
1.315263e+003,3.814909e+001
1.316227e+003,3.765998e+001
1.317191e+003,3.742581e+001
1.318155e+003,3.815917e+001
1.319120e+003,3.881745e+001
1.320084e+003,3.799497e+001
1.321048e+003,3.642228e+001
1.322012e+003,3.589394e+001
1.322976e+003,3.634899e+001
1.323941e+003,3.657713e+001
1.324905e+003,3.602138e+001
1.325869e+003,3.514178e+001
1.326833e+003,3.439260e+001
1.327798e+003,3.376134e+001
1.328762e+003,3.387936e+001
1.329726e+003,3.523391e+001
1.330690e+003,3.648193e+001
1.331655e+003,3.734985e+001
1.332619e+003,3.793979e+001
1.333583e+003,3.829485e+001
1.334547e+003,3.842286e+001
1.335511e+003,3.817524e+001
1.336476e+003,3.757264e+001
1.337440e+003,3.715383e+001
1.338404e+003,3.766508e+001
1.339368e+003,3.893250e+001
1.340333e+003,3.914509e+001
1.341297e+003,3.756148e+001
1.342261e+003,3.710252e+001
1.343225e+003,3.955455e+001
1.344190e+003,4.172942e+001
1.345154e+003,4.078716e+001
1.346118e+003,3.803784e+001
1.347082e+003,3.682972e+001
1.348047e+003,3.794276e+001
1.349011e+003,3.917982e+001
1.349975e+003,3.926553e+001
1.350939e+003,3.886162e+001
1.351903e+003,3.855494e+001
1.352868e+003,3.836584e+001
1.353832e+003,3.829129e+001
1.354796e+003,3.834949e+001
1.355760e+003,3.882231e+001
1.356725e+003,4.014842e+001
1.357689e+003,4.200048e+001
1.358653e+003,4.273978e+001
1.359617e+003,4.177354e+001
1.360582e+003,4.139511e+001
1.361546e+003,4.246457e+001
1.362510e+003,4.326939e+001
1.363474e+003,4.332659e+001
1.364438e+003,4.291842e+001
1.365403e+003,4.202039e+001
1.366367e+003,4.086213e+001
1.367331e+003,4.014188e+001
1.368295e+003,4.033454e+001
1.369260e+003,4.097079e+001
1.370224e+003,4.122768e+001
1.371188e+003,4.120675e+001
1.372152e+003,4.168116e+001
1.373117e+003,4.278953e+001
1.374081e+003,4.364989e+001
1.375045e+003,4.361626e+001
1.376009e+003,4.348525e+001
1.376974e+003,4.458379e+001
1.377938e+003,4.659513e+001
1.378902e+003,4.710229e+001
1.379866e+003,4.479356e+001
1.380830e+003,4.310965e+001
1.381795e+003,4.600059e+001
1.382759e+003,4.943689e+001
1.383723e+003,4.920013e+001
1.384687e+003,4.645951e+001
1.385652e+003,4.486341e+001
1.386616e+003,4.579726e+001
1.387580e+003,4.777231e+001
1.388544e+003,4.915263e+001
1.389509e+003,4.988408e+001
1.390473e+003,4.973285e+001
1.391437e+003,4.823237e+001
1.392401e+003,4.709182e+001
1.393365e+003,4.627227e+001
1.394330e+003,4.588424e+001
1.395294e+003,4.651081e+001
1.396258e+003,4.720451e+001
1.397222e+003,4.629603e+001
1.398187e+003,4.422368e+001
1.399151e+003,4.387644e+001
1.400115e+003,4.726443e+001
1.401079e+003,5.172466e+001
1.402044e+003,5.205576e+001
1.403008e+003,4.818635e+001
1.403972e+003,4.643984e+001
1.404936e+003,4.742866e+001
1.405901e+003,4.900795e+001
1.406865e+003,5.110006e+001
1.407829e+003,5.291631e+001
1.408793e+003,5.336395e+001
1.409757e+003,5.278831e+001
1.410722e+003,5.278194e+001
1.411686e+003,5.383229e+001
1.412650e+003,5.465724e+001
1.413614e+003,5.438423e+001
1.414579e+003,5.356029e+001
1.415543e+003,5.252797e+001
1.416507e+003,5.151110e+001
1.417471e+003,5.107774e+001
1.418436e+003,5.135883e+001
1.419400e+003,5.160486e+001
1.420364e+003,5.083694e+001
1.421328e+003,4.965351e+001
1.422292e+003,5.067292e+001
1.423257e+003,5.471744e+001
1.424221e+003,5.769337e+001
1.425185e+003,5.885631e+001
1.426149e+003,5.889342e+001
1.427114e+003,5.706734e+001
1.428078e+003,5.511485e+001
1.429042e+003,5.441711e+001
1.430006e+003,5.500417e+001
1.430971e+003,5.662609e+001
1.431935e+003,5.902819e+001
1.432899e+003,6.121718e+001
1.433863e+003,6.175903e+001
1.434828e+003,6.080308e+001
1.435792e+003,5.961156e+001
1.436756e+003,5.721249e+001
1.437720e+003,5.632136e+001
1.438684e+003,5.844724e+001
1.439649e+003,6.079883e+001
1.440613e+003,6.176063e+001
1.441577e+003,6.192031e+001
1.442541e+003,6.241898e+001
1.443506e+003,6.332272e+001
1.444470e+003,6.364988e+001
1.445434e+003,6.277406e+001
1.446398e+003,6.160540e+001
1.447363e+003,6.116055e+001
1.448327e+003,6.135459e+001
1.449291e+003,6.230457e+001
1.450255e+003,6.407749e+001
1.451219e+003,6.544440e+001
1.452184e+003,6.573734e+001
1.453148e+003,6.536198e+001
1.454112e+003,6.433760e+001
1.455076e+003,6.294923e+001
1.456041e+003,6.331632e+001
1.457005e+003,6.633413e+001
1.457969e+003,6.896999e+001
1.458933e+003,6.969180e+001
1.459898e+003,6.985918e+001
1.460862e+003,7.038243e+001
1.461826e+003,7.082479e+001
1.462790e+003,7.013667e+001
1.463755e+003,6.844135e+001
1.464719e+003,6.736455e+001
1.465683e+003,6.812312e+001
1.466647e+003,7.015034e+001
1.467611e+003,7.242209e+001
1.468576e+003,7.525011e+001
1.469540e+003,7.568501e+001
1.470504e+003,7.124156e+001
1.471468e+003,6.829736e+001
1.472433e+003,6.871299e+001
1.473397e+003,6.972861e+001
1.474361e+003,6.961747e+001
1.475325e+003,6.895600e+001
1.476290e+003,6.903465e+001
1.477254e+003,7.001483e+001
1.478218e+003,7.075017e+001
1.479182e+003,7.032986e+001
1.480146e+003,6.953297e+001
1.481111e+003,7.014903e+001
1.482075e+003,7.235612e+001
1.483039e+003,7.364922e+001
1.484003e+003,7.395828e+001
1.484968e+003,7.357267e+001
1.485932e+003,7.217505e+001
1.486896e+003,7.063488e+001
1.487860e+003,6.948381e+001
1.488825e+003,6.868727e+001
1.489789e+003,6.803266e+001
1.490753e+003,6.752679e+001
1.491717e+003,6.783443e+001
1.492682e+003,6.971388e+001
1.493646e+003,7.198854e+001
1.494610e+003,7.282436e+001
1.495574e+003,7.244138e+001
1.496538e+003,7.110741e+001
1.497503e+003,6.860991e+001
1.498467e+003,6.704372e+001
1.499431e+003,6.806627e+001
1.500395e+003,7.001346e+001
1.501360e+003,7.089000e+001
1.502324e+003,7.092894e+001
1.503288e+003,7.111675e+001
1.504252e+003,7.169595e+001
1.505217e+003,7.144474e+001
1.506181e+003,6.888957e+001
1.507145e+003,6.645070e+001
1.508109e+003,6.627148e+001
1.509073e+003,6.740796e+001
1.510038e+003,6.867051e+001
1.511002e+003,6.968167e+001
1.511966e+003,6.974132e+001
1.512930e+003,6.826406e+001
1.513895e+003,6.635635e+001
1.514859e+003,6.594638e+001
1.515823e+003,6.694767e+001
1.516787e+003,6.776204e+001
1.517752e+003,6.864833e+001
1.518716e+003,6.889971e+001
1.519680e+003,6.738357e+001
1.520644e+003,6.608807e+001
1.521609e+003,6.583549e+001
1.522573e+003,6.634354e+001
1.523537e+003,6.790050e+001
1.524501e+003,6.994604e+001
1.525465e+003,7.072192e+001
1.526430e+003,6.920781e+001
1.527394e+003,6.654228e+001
1.528358e+003,6.446910e+001
1.529322e+003,6.301011e+001
1.530287e+003,6.260114e+001
1.531251e+003,6.455970e+001
1.532215e+003,6.507937e+001
1.533179e+003,6.215958e+001
1.534144e+003,6.024089e+001
1.535108e+003,6.234432e+001
1.536072e+003,6.528871e+001
1.537036e+003,6.527940e+001
1.538000e+003,6.288768e+001
1.538965e+003,6.129073e+001
1.539929e+003,6.184138e+001
1.540893e+003,6.291190e+001
1.541857e+003,6.272859e+001
1.542822e+003,6.150834e+001
1.543786e+003,5.972488e+001
1.544750e+003,5.658922e+001
1.545714e+003,5.560827e+001
1.546679e+003,5.867308e+001
1.547643e+003,6.116660e+001
1.548607e+003,6.142744e+001
1.549571e+003,6.074456e+001
1.550536e+003,5.997337e+001
1.551500e+003,5.930741e+001
1.552464e+003,5.917254e+001
1.553428e+003,5.968201e+001
1.554392e+003,5.982501e+001
1.555357e+003,5.857380e+001
1.556321e+003,5.686312e+001
1.557285e+003,5.678955e+001
1.558249e+003,5.831154e+001
1.559214e+003,5.938165e+001
1.560178e+003,6.014119e+001
1.561142e+003,5.997590e+001
1.562106e+003,5.783767e+001
1.563071e+003,5.537183e+001
1.564035e+003,5.407643e+001
1.564999e+003,5.368175e+001
1.565963e+003,5.345263e+001
1.566927e+003,5.320604e+001
1.567892e+003,5.264394e+001
1.568856e+003,5.146420e+001
1.569820e+003,5.041466e+001
1.570784e+003,5.043948e+001
1.571749e+003,5.120825e+001
1.572713e+003,5.211187e+001
1.573677e+003,5.313823e+001
1.574641e+003,5.351660e+001
1.575606e+003,5.264727e+001
1.576570e+003,5.161108e+001
1.577534e+003,5.168141e+001
1.578498e+003,5.204998e+001
1.579463e+003,5.075039e+001
1.580427e+003,4.786697e+001
1.581391e+003,4.592616e+001
1.582355e+003,4.575426e+001
1.583319e+003,4.618779e+001
1.584284e+003,4.706333e+001
1.585248e+003,4.763926e+001
1.586212e+003,4.642275e+001
1.587176e+003,4.410536e+001
1.588141e+003,4.292024e+001
1.589105e+003,4.338146e+001
1.590069e+003,4.392181e+001
1.591033e+003,4.352030e+001
1.591998e+003,4.263222e+001
1.592962e+003,4.191558e+001
1.593926e+003,4.131219e+001
1.594890e+003,4.049179e+001
1.595854e+003,3.939544e+001
1.596819e+003,3.850557e+001
1.597783e+003,3.799251e+001
1.598747e+003,3.762537e+001
1.599711e+003,3.745613e+001
1.600676e+003,3.718241e+001
1.601640e+003,3.626168e+001
1.602604e+003,3.490921e+001
1.603568e+003,3.417993e+001
1.604533e+003,3.452586e+001
1.605497e+003,3.454373e+001
1.606461e+003,3.235006e+001
1.607425e+003,2.903726e+001
1.608390e+003,2.764106e+001
1.609354e+003,2.823876e+001
1.610318e+003,2.961582e+001
1.611282e+003,3.217670e+001
1.612246e+003,3.382123e+001
1.613211e+003,3.288154e+001
1.614175e+003,3.134218e+001
1.615139e+003,3.032944e+001
1.616103e+003,2.981900e+001
1.617068e+003,2.994186e+001
1.618032e+003,3.049658e+001
1.618996e+003,3.035629e+001
1.619960e+003,2.875863e+001
1.620925e+003,2.673863e+001
1.621889e+003,2.575254e+001
1.622853e+003,2.569054e+001
1.623817e+003,2.584310e+001
1.624781e+003,2.634229e+001
1.625746e+003,2.652581e+001
1.626710e+003,2.634854e+001
1.627674e+003,2.554959e+001
1.628638e+003,2.301868e+001
1.629603e+003,2.062477e+001
1.630567e+003,2.045053e+001
1.631531e+003,2.155408e+001
1.632495e+003,2.174568e+001
1.633460e+003,2.054803e+001
1.634424e+003,1.895244e+001
1.635388e+003,1.751418e+001
1.636352e+003,1.651506e+001
1.637317e+003,1.686762e+001
1.638281e+003,1.841272e+001
1.639245e+003,1.853190e+001
1.640209e+003,1.666437e+001
1.641173e+003,1.528548e+001
1.642138e+003,1.521920e+001
1.643102e+003,1.552994e+001
1.644066e+003,1.626222e+001
1.645030e+003,1.668632e+001
1.645995e+003,1.577649e+001
1.646959e+003,1.398825e+001
1.647923e+003,1.245929e+001
1.648887e+003,1.159988e+001
1.649852e+003,1.151294e+001
1.650816e+003,1.244541e+001
1.651780e+003,1.383513e+001
1.652744e+003,1.452751e+001
1.653708e+003,1.453827e+001
1.654673e+003,1.439731e+001
1.655637e+003,1.430421e+001
1.656601e+003,1.337048e+001
1.657565e+003,1.033049e+001
1.658530e+003,7.776538e+000
1.659494e+003,7.351492e+000
1.660458e+003,7.908798e+000
1.661422e+003,8.623520e+000
1.662387e+003,9.159039e+000
1.663351e+003,8.910113e+000
1.664315e+003,7.707916e+000
1.665279e+003,6.361746e+000
1.666244e+003,5.521930e+000
1.667208e+003,5.054923e+000
1.668172e+003,4.739102e+000
1.669136e+003,4.542856e+000
1.670100e+003,4.159522e+000
1.671065e+003,3.478458e+000
1.672029e+003,2.952325e+000
1.672993e+003,2.712234e+000
1.673957e+003,2.770242e+000
1.674922e+003,3.538727e+000
1.675886e+003,4.257486e+000
1.676850e+003,3.698682e+000
1.677814e+003,2.310059e+000
1.678779e+003,2.038333e+000
1.679743e+003,3.508847e+000
1.680707e+003,4.462125e+000
1.681671e+003,2.605588e+000
1.682635e+003,-2.616791e-001
1.683600e+003,-7.355774e-001
1.684564e+003,7.706665e-001
1.685528e+003,1.424557e+000
1.686492e+003,8.008698e-001
1.687457e+003,3.537567e-001
1.688421e+003,8.563538e-001
1.689385e+003,1.197586e+000
1.690349e+003,1.573456e-001
1.691314e+003,-1.230472e+000
1.692278e+003,-1.696838e+000
1.693242e+003,-1.486661e+000
1.694206e+003,-1.673859e+000
1.695171e+003,-2.548084e+000
1.696135e+003,-3.448920e+000
1.697099e+003,-4.107944e+000
1.698063e+003,-4.431430e+000
1.699027e+003,-4.070025e+000
1.699992e+003,-3.293112e+000
1.700956e+003,-3.088165e+000
1.701920e+003,-3.541019e+000
1.702884e+003,-3.529047e+000
1.703849e+003,-2.450626e+000
1.704813e+003,-1.702564e+000
1.705777e+003,-2.521610e+000
1.706741e+003,-4.139984e+000
1.707706e+003,-5.525552e+000
1.708670e+003,-6.609732e+000
1.709634e+003,-7.082202e+000
1.710598e+003,-6.839871e+000
1.711563e+003,-6.436059e+000
1.712527e+003,-5.979730e+000
1.713491e+003,-5.589731e+000
1.714455e+003,-5.365445e+000
1.715419e+003,-5.258395e+000
1.716384e+003,-5.144284e+000
1.717348e+003,-5.064758e+000
1.718312e+003,-5.340985e+000
1.719276e+003,-6.078778e+000
1.720241e+003,-6.650302e+000
1.721205e+003,-6.538144e+000
1.722169e+003,-6.208407e+000
1.723133e+003,-6.439505e+000
1.724098e+003,-7.123755e+000
1.725062e+003,-7.579022e+000
1.726026e+003,-7.854474e+000
1.726990e+003,-7.847986e+000
1.727954e+003,-7.538275e+000
1.728919e+003,-6.951315e+000
1.729883e+003,-5.425067e+000
1.730847e+003,-4.198096e+000
1.731811e+003,-4.964648e+000
1.732776e+003,-6.897644e+000
1.733740e+003,-8.045496e+000
1.734704e+003,-8.017962e+000
1.735668e+003,-7.502341e+000
1.736633e+003,-6.911142e+000
1.737597e+003,-6.917648e+000
1.738561e+003,-8.611079e+000
1.739525e+003,-1.122792e+001
1.740490e+003,-1.105074e+001
1.741454e+003,-6.703110e+000
1.742418e+003,-4.783789e+000
1.743382e+003,-7.134875e+000
1.744346e+003,-9.008230e+000
1.745311e+003,-9.554224e+000
1.746275e+003,-9.554698e+000
1.747239e+003,-9.347391e+000
1.748203e+003,-8.935216e+000
1.749168e+003,-8.057590e+000
1.750132e+003,-6.959433e+000
1.751096e+003,-6.239679e+000
1.752060e+003,-6.162231e+000
1.753025e+003,-6.684405e+000
1.753989e+003,-7.794318e+000
1.754953e+003,-9.158336e+000
1.755917e+003,-1.006893e+001
1.756881e+003,-1.053155e+001
1.757846e+003,-1.033711e+001
1.758810e+003,-8.959925e+000
1.759774e+003,-8.381825e+000
1.760738e+003,-9.874929e+000
1.761703e+003,-1.087735e+001
1.762667e+003,-1.023461e+001
1.763631e+003,-9.003390e+000
1.764595e+003,-7.358170e+000
1.765560e+003,-6.009692e+000
1.766524e+003,-6.467950e+000
1.767488e+003,-8.606100e+000
1.768452e+003,-1.020334e+001
1.769417e+003,-1.004356e+001
1.770381e+003,-9.318364e+000
1.771345e+003,-9.316518e+000
1.772309e+003,-9.788780e+000
1.773273e+003,-1.012291e+001
1.774238e+003,-1.034115e+001
1.775202e+003,-1.065952e+001
1.776166e+003,-1.116607e+001
1.777130e+003,-1.119335e+001
1.778095e+003,-1.023689e+001
1.779059e+003,-9.225830e+000
1.780023e+003,-9.052114e+000
1.780987e+003,-9.265413e+000
1.781952e+003,-8.914355e+000
1.782916e+003,-8.238164e+000
1.783880e+003,-8.614813e+000
1.784844e+003,-1.061382e+001
1.785808e+003,-1.176798e+001
1.786773e+003,-1.019088e+001
1.787737e+003,-8.401378e+000
1.788701e+003,-8.682093e+000
1.789665e+003,-9.758336e+000
1.790630e+003,-9.454808e+000
1.791594e+003,-8.175862e+000
1.792558e+003,-8.049292e+000
1.793522e+003,-9.517713e+000
1.794487e+003,-1.088231e+001
1.795451e+003,-1.108605e+001
1.796415e+003,-1.056471e+001
1.797379e+003,-9.809604e+000
1.798344e+003,-8.997543e+000
1.799308e+003,-8.990662e+000
1.800272e+003,-1.026357e+001
1.801236e+003,-1.054541e+001
1.802201e+003,-8.681433e+000
1.803165e+003,-7.631692e+000
1.804129e+003,-8.662356e+000
1.805093e+003,-9.615193e+000
1.806057e+003,-8.859612e+000
1.807022e+003,-7.775766e+000
1.807986e+003,-8.214714e+000
1.808950e+003,-9.688295e+000
1.809914e+003,-1.043663e+001
1.810879e+003,-1.005357e+001
1.811843e+003,-9.809454e+000
1.812807e+003,-1.065687e+001
1.813771e+003,-1.175543e+001
1.814736e+003,-1.170173e+001
1.815700e+003,-1.070414e+001
1.816664e+003,-9.965418e+000
1.817628e+003,-9.490091e+000
1.818593e+003,-9.252708e+000
1.819557e+003,-9.237494e+000
1.820521e+003,-9.480833e+000
1.821485e+003,-1.063656e+001
1.822449e+003,-1.121909e+001
1.823414e+003,-9.242343e+000
1.824378e+003,-6.706522e+000
1.825342e+003,-6.401248e+000
1.826306e+003,-7.859973e+000
1.827271e+003,-8.799707e+000
1.828235e+003,-8.708641e+000
1.829199e+003,-8.340610e+000
1.830163e+003,-7.906590e+000
1.831128e+003,-7.535619e+000
1.832092e+003,-7.515871e+000
1.833056e+003,-7.528852e+000
1.834020e+003,-6.774660e+000
1.834984e+003,-5.628113e+000
1.835949e+003,-5.507367e+000
1.836913e+003,-6.603003e+000
1.837877e+003,-7.788821e+000
1.838841e+003,-8.483566e+000
1.839806e+003,-8.822125e+000
1.840770e+003,-8.962530e+000
1.841734e+003,-8.816714e+000
1.842698e+003,-7.954534e+000
1.843663e+003,-6.119995e+000
1.844627e+003,-5.658463e+000
1.845591e+003,-8.264910e+000
1.846555e+003,-9.598116e+000
1.847520e+003,-9.014796e+000
1.848484e+003,-7.880658e+000
1.849448e+003,-5.842810e+000
1.850412e+003,-4.222140e+000
1.851376e+003,-4.656466e+000
1.852341e+003,-5.990744e+000
1.853305e+003,-6.121567e+000
1.854269e+003,-4.968094e+000
1.855233e+003,-3.905045e+000
1.856198e+003,-3.585880e+000
1.857162e+003,-3.978903e+000
1.858126e+003,-5.325830e+000
1.859090e+003,-6.891977e+000
1.860055e+003,-6.886584e+000
1.861019e+003,-5.704462e+000
1.861983e+003,-5.876742e+000
1.862947e+003,-7.582329e+000
1.863911e+003,-8.295301e+000
1.864876e+003,-7.184587e+000
1.865840e+003,-5.989587e+000
1.866804e+003,-5.623563e+000
1.867768e+003,-5.715039e+000
1.868733e+003,-6.258695e+000
1.869697e+003,-6.794454e+000
1.870661e+003,-5.560638e+000
1.871625e+003,-2.540054e+000
1.872590e+003,-1.113574e+000
1.873554e+003,-2.484637e+000
1.874518e+003,-3.709152e+000
1.875482e+003,-3.912879e+000
1.876447e+003,-3.799442e+000
1.877411e+003,-3.591568e+000
1.878375e+003,-3.436554e+000
1.879339e+003,-3.433997e+000
1.880303e+003,-3.663870e+000
1.881268e+003,-4.453137e+000
1.882232e+003,-5.618127e+000
1.883196e+003,-6.161012e+000
1.884160e+003,-5.574890e+000
1.885125e+003,-4.637802e+000
1.886089e+003,-4.244153e+000
1.887053e+003,-4.175815e+000
1.888017e+003,-3.683215e+000
1.888982e+003,-2.743463e+000
1.889946e+003,-2.622311e+000
1.890910e+003,-3.544861e+000
1.891874e+003,-4.113431e+000
1.892839e+003,-3.951459e+000
1.893803e+003,-3.757226e+000
1.894767e+003,-4.040396e+000
1.895731e+003,-4.153049e+000
1.896695e+003,-3.282480e+000
1.897660e+003,-1.983347e+000
1.898624e+003,-1.073840e+000
1.899588e+003,-6.019714e-001
1.900552e+003,-6.364929e-001
1.901517e+003,-1.420679e+000
1.902481e+003,-1.915695e+000
1.903445e+003,-1.459613e+000
1.904409e+003,-8.470246e-001
1.905374e+003,-7.196716e-001
1.906338e+003,-5.839508e-001
1.907302e+003,4.668976e-001
1.908266e+003,1.801566e+000
1.909230e+003,1.982526e+000
1.910195e+003,9.639496e-001
1.911159e+003,-3.296417e-001
1.912123e+003,-1.370807e+000
1.913087e+003,-1.656772e+000
1.914052e+003,-6.544372e-001
1.915016e+003,6.695984e-001
1.915980e+003,2.001434e-001
1.916944e+003,-1.886423e+000
1.917909e+003,-3.265909e+000
1.918873e+003,-3.879150e+000
1.919837e+003,-4.049475e+000
1.920801e+003,-3.766388e+000
1.921766e+003,-3.140826e+000
1.922730e+003,-1.708127e+000
1.923694e+003,-7.247192e-001
1.924658e+003,-1.551495e+000
1.925622e+003,-2.966843e+000
1.926587e+003,-3.652164e+000
1.927551e+003,-3.654361e+000
1.928515e+003,-3.114822e+000
1.929479e+003,-1.964688e+000
1.930444e+003,-1.312201e+000
1.931408e+003,-1.698544e+000
1.932372e+003,-2.332877e+000
1.933336e+003,-3.097522e+000
1.934301e+003,-3.694122e+000
1.935265e+003,-3.742096e+000
1.936229e+003,-3.542270e+000
1.937193e+003,-3.567651e+000
1.938157e+003,-3.766235e+000
1.939122e+003,-3.791675e+000
1.940086e+003,-3.565259e+000
1.941050e+003,-3.293961e+000
1.942014e+003,-3.111554e+000
1.942979e+003,-2.994293e+000
1.943943e+003,-2.938629e+000
1.944907e+003,-2.810614e+000
1.945871e+003,-2.118304e+000
1.946836e+003,-8.906494e-001
1.947800e+003,-3.131714e-002
1.948764e+003,4.442139e-001
1.949728e+003,2.051697e-002
1.950693e+003,-1.769904e+000
1.951657e+003,-3.128442e+000
1.952621e+003,-3.074207e+000
1.953585e+003,-2.395880e+000
1.954549e+003,-1.459369e+000
1.955514e+003,-6.960236e-001
1.956478e+003,-1.583612e+000
1.957442e+003,-3.913174e+000
1.958406e+003,-4.102591e+000
1.959371e+003,-9.248810e-001
1.960335e+003,1.126007e+000
1.961299e+003,7.792572e-001
1.962263e+003,1.829102e-001
1.963228e+003,1.611023e-002
1.964192e+003,-1.118072e-001
1.965156e+003,-5.726776e-001
1.966120e+003,-1.111502e+000
1.967084e+003,-1.495389e+000
1.968049e+003,-1.593375e+000
1.969013e+003,-1.223755e+000
1.969977e+003,-4.103668e-001
1.970941e+003,6.708893e-001
1.971906e+003,1.985187e+000
1.972870e+003,2.753540e+000
1.973834e+003,1.743948e+000
1.974798e+003,5.445862e-002
1.975763e+003,-3.568634e-001
1.976727e+003,9.468079e-002
1.977691e+003,1.482880e-001
1.978655e+003,-1.922211e-001
1.979620e+003,-4.985046e-002
1.980584e+003,7.672577e-001
1.981548e+003,1.278302e+000
1.982512e+003,9.290283e-001
1.983476e+003,3.483673e-001
1.984441e+003,2.112518e-001
1.985405e+003,2.724518e-001
1.986369e+003,-4.876099e-002
1.987333e+003,-7.264954e-001
1.988298e+003,-1.600354e+000
1.989262e+003,-3.338895e+000
1.990226e+003,-3.334979e+000
1.991190e+003,-1.016876e-001
1.992155e+003,2.313867e+000
1.993119e+003,2.626907e+000
1.994083e+003,2.271680e+000
1.995047e+003,1.635257e+000
1.996011e+003,9.559997e-001
1.996976e+003,2.447357e-001
1.997940e+003,-2.217316e-001
1.998904e+003,3.558289e-001
1.999868e+003,1.985959e+000
2.000833e+003,3.250110e+000
2.001797e+003,3.757858e+000
2.002761e+003,3.893134e+000
2.003725e+003,3.489624e+000
2.004690e+003,3.170740e+000
2.005654e+003,3.405658e+000
2.006618e+003,3.859668e+000
2.007582e+003,4.445279e+000
2.008547e+003,4.845788e+000
2.009511e+003,4.442453e+000
2.010475e+003,3.409680e+000
2.011439e+003,2.548434e+000
2.012403e+003,2.128702e+000
2.013368e+003,1.739249e+000
2.014332e+003,1.060727e+000
2.015296e+003,5.926056e-001
2.016260e+003,1.306988e+000
2.017225e+003,2.514825e+000
2.018189e+003,2.423468e+000
2.019153e+003,1.378027e+000
2.020117e+003,7.500641e-001
2.021082e+003,6.455963e-001
2.022046e+003,8.599548e-001
2.023010e+003,1.343930e+000
2.023974e+003,1.693002e+000
2.024938e+003,1.654028e+000
2.025903e+003,1.631442e+000
2.026867e+003,2.119928e+000
2.027831e+003,2.670776e+000
2.028795e+003,2.135052e+000
2.029760e+003,6.057861e-001
2.030724e+003,1.874542e-001
2.031688e+003,1.344495e+000
2.032652e+003,1.755576e+000
2.033617e+003,1.089072e+000
2.034581e+003,2.145203e-001
2.035545e+003,-1.376883e+000
2.036509e+003,-1.914499e+000
2.037474e+003,5.250763e-001
2.038438e+003,3.496066e+000
2.039402e+003,4.509458e+000
2.040366e+003,4.157562e+000
2.041330e+003,3.543128e+000
2.042295e+003,2.735632e+000
2.043259e+003,2.164325e+000
2.044223e+003,1.746420e+000
2.045187e+003,1.890793e+000
2.046152e+003,3.710641e+000
2.047116e+003,4.648233e+000
2.048080e+003,2.805994e+000
2.049044e+003,7.458496e-001
2.050009e+003,4.667755e-001
2.050973e+003,9.045807e-001
2.051937e+003,5.225647e-001
2.052901e+003,-2.869629e-001
2.053865e+003,-2.205749e-001
2.054830e+003,8.379059e-001
2.055794e+003,1.958401e+000
2.056758e+003,2.799460e+000
2.057722e+003,3.053244e+000
2.058687e+003,2.071567e+000
2.059651e+003,9.200348e-001
2.060615e+003,6.760376e-001
2.061579e+003,8.213043e-001
2.062544e+003,6.708801e-001
2.063508e+003,3.941010e-001
2.064472e+003,3.867523e-001
2.065436e+003,6.687592e-001
2.066401e+003,1.233341e+000
2.067365e+003,1.941327e+000
2.068329e+003,2.097061e+000
2.069293e+003,1.282639e+000
2.070258e+003,3.171936e-001
2.071222e+003,1.562805e-001
2.072186e+003,5.496521e-001
2.073150e+003,1.102121e+000
2.074115e+003,1.712463e+000
2.075079e+003,1.900000e+000
2.076043e+003,1.669992e+000
2.077007e+003,1.243063e+000
2.077971e+003,6.992950e-001
2.078936e+003,6.359192e-001
2.079900e+003,1.279153e+000
2.080864e+003,1.500778e+000
2.081828e+003,4.098114e-001
2.082792e+003,-6.615448e-001
2.083757e+003,2.451508e-001
2.084721e+003,2.431400e+000
2.085685e+003,3.453534e+000
2.086649e+003,3.282993e+000
2.087614e+003,2.844824e+000
2.088578e+003,1.897705e+000
2.089542e+003,2.031824e+000
2.090506e+003,3.910364e+000
2.091471e+003,5.113724e+000
2.092435e+003,4.671790e+000
2.093399e+003,3.860587e+000
2.094363e+003,3.527615e+000
2.095328e+003,3.216940e+000
2.096292e+003,2.022858e+000
2.097256e+003,4.841126e-001
2.098220e+003,7.213532e-001
2.099185e+003,3.006284e+000
2.100149e+003,4.532733e+000
2.101113e+003,5.062238e+000
2.102077e+003,5.213647e+000
2.103042e+003,4.972022e+000
2.104006e+003,4.379458e+000
2.104970e+003,3.071774e+000
2.105934e+003,1.877573e+000
2.106898e+003,7.876740e-001
2.107863e+003,3.865967e-001
2.108827e+003,1.878098e+000
2.109791e+003,4.320044e+000
2.110755e+003,5.666922e+000
2.111719e+003,5.799957e+000
2.112684e+003,5.542224e+000
2.113648e+003,4.936053e+000
2.114612e+003,4.241202e+000
2.115576e+003,3.124225e+000
2.116541e+003,2.427768e+000
2.117505e+003,2.750705e+000
2.118469e+003,3.256775e+000
2.119433e+003,3.579688e+000
2.120398e+003,3.697012e+000
2.121362e+003,3.386310e+000
2.122326e+003,2.953354e+000
2.123290e+003,2.990561e+000
2.124255e+003,3.506360e+000
2.125219e+003,4.119281e+000
2.126183e+003,4.733792e+000
2.127147e+003,5.133554e+000
2.128112e+003,5.235095e+000
2.129076e+003,5.121881e+000
2.130040e+003,4.345325e+000
2.131004e+003,3.893088e+000
2.131969e+003,5.152759e+000
2.132933e+003,6.628665e+000
2.133897e+003,6.454053e+000
2.134861e+003,5.274234e+000
2.135825e+003,4.387598e+000
2.136790e+003,3.976764e+000
2.137754e+003,3.774402e+000
2.138718e+003,3.646384e+000
2.139682e+003,3.081714e+000
2.140646e+003,1.470572e+000
2.141611e+003,5.389832e-001
2.142575e+003,2.407495e+000
2.143539e+003,4.845404e+000
2.144503e+003,5.665305e+000
2.145468e+003,5.672296e+000
2.146432e+003,5.936862e+000
2.147396e+003,6.304724e+000
2.148360e+003,6.098187e+000
2.149325e+003,5.496902e+000
2.150289e+003,5.353284e+000
2.151253e+003,5.879514e+000
2.152217e+003,6.635633e+000
2.153182e+003,7.398456e+000
2.154146e+003,7.946533e+000
2.155110e+003,7.972531e+000
2.156074e+003,7.812940e+000
2.157039e+003,8.001312e+000
2.158003e+003,8.152105e+000
2.158967e+003,7.336322e+000
2.159931e+003,6.186560e+000
2.160896e+003,6.354007e+000
2.161860e+003,7.532117e+000
2.162824e+003,7.957544e+000
2.163788e+003,7.397504e+000
2.164752e+003,7.448547e+000
2.165717e+003,8.816653e+000
2.166681e+003,9.830005e+000
2.167645e+003,8.931189e+000
2.168609e+003,7.418527e+000
2.169573e+003,7.227609e+000
2.170538e+003,7.633337e+000
2.171502e+003,7.097769e+000
2.172466e+003,6.027658e+000
2.173430e+003,5.295733e+000
2.174395e+003,5.079309e+000
2.175359e+003,5.891019e+000
2.176323e+003,7.475238e+000
2.177287e+003,8.255417e+000
2.178252e+003,7.690970e+000
2.179216e+003,6.909784e+000
2.180180e+003,6.733365e+000
2.181144e+003,6.910727e+000
2.182109e+003,7.147559e+000
2.183073e+003,7.440689e+000
2.184037e+003,8.114141e+000
2.185001e+003,8.723352e+000
2.185966e+003,7.650278e+000
2.186930e+003,5.628723e+000
2.187894e+003,5.281671e+000
2.188858e+003,6.578491e+000
2.189823e+003,7.596909e+000
2.190787e+003,7.734317e+000
2.191751e+003,7.414636e+000
2.192715e+003,6.949774e+000
2.193679e+003,6.783136e+000
2.194644e+003,7.339242e+000
2.195608e+003,8.250079e+000
2.196572e+003,9.365024e+000
2.197536e+003,1.015410e+001
2.198500e+003,8.686951e+000
2.199465e+003,5.989865e+000
2.200429e+003,5.317645e+000
2.201393e+003,6.356253e+000
2.202357e+003,6.809167e+000
2.203322e+003,6.347211e+000
2.204286e+003,6.051947e+000
2.205250e+003,6.357498e+000
2.206214e+003,7.027307e+000
2.207179e+003,7.904752e+000
2.208143e+003,8.633121e+000
2.209107e+003,8.717108e+000
2.210071e+003,8.537689e+000
2.211036e+003,8.873312e+000
2.212000e+003,9.446713e+000
2.212964e+003,9.296817e+000
2.213928e+003,8.848196e+000
2.214893e+003,1.007346e+001
2.215857e+003,1.239256e+001
2.216821e+003,1.217733e+001
2.217785e+003,9.217502e+000
2.218750e+003,7.979446e+000
2.219714e+003,1.035640e+001
2.220678e+003,1.290190e+001
2.221642e+003,1.281677e+001
2.222606e+003,1.200868e+001
2.223571e+003,1.310166e+001
2.224535e+003,1.497958e+001
2.225499e+003,1.562274e+001
2.226463e+003,1.557018e+001
2.227427e+003,1.581817e+001
2.228392e+003,1.640248e+001
2.229356e+003,1.722849e+001
2.230320e+003,1.824541e+001
2.231284e+003,1.946191e+001
2.232249e+003,2.077900e+001
2.233213e+003,2.179537e+001
2.234177e+003,2.232295e+001
2.235141e+003,2.266516e+001
2.236106e+003,2.292776e+001
2.237070e+003,2.360578e+001
2.238034e+003,2.561657e+001
2.238998e+003,2.806443e+001
2.239963e+003,2.968486e+001
2.240927e+003,3.091331e+001
2.241891e+003,3.238026e+001
2.242855e+003,3.421878e+001
2.243820e+003,3.663158e+001
2.244784e+003,3.944291e+001
2.245748e+003,4.232634e+001
2.246712e+003,4.499320e+001
2.247677e+003,4.631479e+001
2.248641e+003,4.562031e+001
2.249605e+003,4.593737e+001
2.250569e+003,5.095560e+001
2.251533e+003,5.586177e+001
2.252498e+003,5.589249e+001
2.253462e+003,5.387237e+001
2.254426e+003,5.207274e+001
2.255390e+003,5.073337e+001
2.256354e+003,5.036501e+001
2.257319e+003,5.024034e+001
2.258283e+003,4.908780e+001
2.259247e+003,4.691906e+001
2.260211e+003,4.430928e+001
2.261176e+003,4.152567e+001
2.262140e+003,3.930287e+001
2.263104e+003,3.814186e+001
2.264068e+003,3.668025e+001
2.265033e+003,3.374320e+001
2.265997e+003,3.083879e+001
2.266961e+003,2.892651e+001
2.267925e+003,2.731274e+001
2.268890e+003,2.569363e+001
2.269854e+003,2.385752e+001
2.270818e+003,2.098071e+001
2.271782e+003,1.815854e+001
2.272747e+003,1.783371e+001
2.273711e+003,1.928418e+001
2.274675e+003,1.881572e+001
2.275639e+003,1.568756e+001
2.276604e+003,1.341589e+001
2.277568e+003,1.346031e+001
2.278532e+003,1.323558e+001
2.279496e+003,1.149454e+001
2.280460e+003,1.014818e+001
2.281425e+003,1.043468e+001
2.282389e+003,1.064676e+001
2.283353e+003,9.516504e+000
2.284317e+003,8.184113e+000
2.285281e+003,7.856262e+000
2.286246e+003,8.001987e+000
2.287210e+003,7.550751e+000
2.288174e+003,6.626187e+000
2.289138e+003,6.286185e+000
2.290103e+003,6.794861e+000
2.291067e+003,6.626138e+000
2.292031e+003,5.181155e+000
2.292995e+003,4.213525e+000
2.293960e+003,3.605011e+000
2.294924e+003,3.859357e+000
2.295888e+003,6.063303e+000
2.296852e+003,7.283862e+000
2.297817e+003,5.343085e+000
2.298781e+003,3.245355e+000
2.299745e+003,3.926550e+000
2.300709e+003,5.801721e+000
2.301674e+003,6.143378e+000
2.302638e+003,5.238223e+000
2.303602e+003,4.593140e+000
2.304566e+003,4.208292e+000
2.305531e+003,3.702094e+000
2.306495e+003,2.980347e+000
2.307459e+003,3.325546e+000
2.308423e+003,5.016595e+000
2.309387e+003,6.081607e+000
2.310352e+003,6.007309e+000
2.311316e+003,5.107099e+000
2.312280e+003,3.471344e+000
2.313244e+003,2.515610e+000
2.314208e+003,3.495343e+000
2.315173e+003,4.709939e+000
2.316137e+003,3.595627e+000
2.317101e+003,1.082434e+000
2.318065e+003,-7.198212e-001
2.319030e+003,-1.682031e+000
2.319994e+003,-9.316894e-001
2.320958e+003,1.081119e+000
2.321922e+003,2.815717e+000
2.322887e+003,3.962231e+000
2.323851e+003,3.849591e+000
2.324815e+003,2.665393e+000
2.325779e+003,2.018384e+000
2.326744e+003,2.417444e+000
2.327708e+003,2.367389e+000
2.328672e+003,8.831879e-001
2.329636e+003,-5.630798e-001
2.330601e+003,-3.754211e-001
2.331565e+003,2.113464e-001
2.332529e+003,-3.348480e-001
2.333493e+003,-1.111630e+000
2.334458e+003,-8.293244e-001
2.335422e+003,-2.809357e-001
2.336386e+003,-8.479065e-001
2.337350e+003,-1.856337e+000
2.338314e+003,-1.672784e+000
2.339279e+003,-7.083527e-001
2.340243e+003,-9.885772e-001
2.341207e+003,-2.698879e+000
2.342171e+003,-3.529642e+000
2.343135e+003,-2.546452e+000
2.344100e+003,-1.650014e+000
2.345064e+003,-1.351694e+000
2.346028e+003,-1.566585e+000
2.346992e+003,-2.664278e+000
2.347957e+003,-3.706352e+000
2.348921e+003,-4.496570e+000
2.349885e+003,-4.796394e+000
2.350849e+003,-4.128072e+000
2.351814e+003,-3.154510e+000
2.352778e+003,-2.629393e+000
2.353742e+003,-2.421687e+000
2.354706e+003,-2.082950e+000
2.355671e+003,-1.646935e+000
2.356635e+003,-1.869423e+000
2.357599e+003,-3.035536e+000
2.358563e+003,-3.656596e+000
2.359528e+003,-3.482146e+000
2.360492e+003,-3.683292e+000
2.361456e+003,-4.590265e+000
2.362420e+003,-4.940826e+000
2.363385e+003,-4.256751e+000
2.364349e+003,-3.508031e+000
2.365313e+003,-3.171085e+000
2.366277e+003,-3.246504e+000
2.367241e+003,-3.794234e+000
2.368206e+003,-4.348460e+000
2.369170e+003,-4.080930e+000
2.370134e+003,-3.394601e+000
2.371098e+003,-3.527803e+000
2.372063e+003,-4.258017e+000
2.373027e+003,-4.714580e+000
2.373991e+003,-4.887799e+000
2.374955e+003,-4.901576e+000
2.375919e+003,-4.730728e+000
2.376884e+003,-4.088506e+000
2.377848e+003,-3.073756e+000
2.378812e+003,-2.180209e+000
2.379776e+003,-1.624661e+000
2.380741e+003,-1.606941e+000
2.381705e+003,-2.261616e+000
2.382669e+003,-2.656705e+000
2.383633e+003,-1.821245e+000
2.384598e+003,-9.543961e-001
2.385562e+003,-1.042357e+000
2.386526e+003,-1.490784e+000
2.387490e+003,-2.050397e+000
2.388455e+003,-2.431735e+000
2.389419e+003,-2.023573e+000
2.390383e+003,-1.561348e+000
2.391347e+003,-2.286461e+000
2.392312e+003,-3.665903e+000
2.393276e+003,-4.301793e+000
2.394240e+003,-4.156064e+000
2.395204e+003,-4.122396e+000
2.396168e+003,-4.328101e+000
2.397133e+003,-4.419782e+000
2.398097e+003,-4.926641e+000
2.399061e+003,-4.190038e+000
2.400025e+003,-8.777450e-001
2.400990e+003,9.051422e-001
2.401954e+003,-3.859619e-001
2.402918e+003,-1.809929e+000
2.403882e+003,-1.989180e+000
2.404846e+003,-1.953818e+000
2.405811e+003,-2.573198e+000
2.406775e+003,-3.181046e+000
2.407739e+003,-2.748904e+000
2.408703e+003,-1.927939e+000
2.409668e+003,-2.807044e+000
2.410632e+003,-4.757376e+000
2.411596e+003,-4.123218e+000
2.412560e+003,-1.636951e+000
2.413525e+003,-3.909485e-001
2.414489e+003,-3.792725e-001
2.415453e+003,-6.531784e-001
2.416417e+003,-1.000508e+000
2.417382e+003,-1.580687e+000
2.418346e+003,-2.335680e+000
2.419310e+003,-2.827306e+000
2.420274e+003,-2.848280e+000
2.421239e+003,-2.348836e+000
2.422203e+003,-1.088052e+000
2.423167e+003,-1.799011e-002
2.424131e+003,-2.102051e-002
2.425095e+003,-1.675690e-001
2.426060e+003,2.377014e-001
2.427024e+003,6.308349e-001
2.427988e+003,5.558594e-001
2.428952e+003,2.709381e-001
2.429917e+003,-9.887696e-004
2.430881e+003,-2.408844e-001
2.431845e+003,-5.279068e-001
2.432809e+003,-8.103287e-001
2.433773e+003,-8.829956e-001
2.434738e+003,-7.388946e-001
2.435702e+003,-3.589935e-001
2.436666e+003,3.033417e-001
2.437630e+003,1.129669e+000
2.438595e+003,2.274298e+000
2.439559e+003,2.732733e+000
2.440523e+003,2.244974e+000
2.441487e+003,2.358212e+000
2.442452e+003,3.564011e+000
2.443416e+003,4.376056e+000
2.444380e+003,4.040262e+000
2.445344e+003,3.011081e+000
2.446309e+003,1.613666e+000
2.447273e+003,7.502197e-001
2.448237e+003,1.798996e+000
2.449201e+003,3.599408e+000
2.450166e+003,4.343381e+000
2.451130e+003,4.491010e+000
2.452094e+003,4.683212e+000
2.453058e+003,4.827194e+000
2.454022e+003,4.625909e+000
2.454987e+003,4.304547e+000
2.455951e+003,4.444681e+000
2.456915e+003,4.808856e+000
2.457879e+003,4.532593e+000
2.458844e+003,3.659149e+000
2.459808e+003,3.097519e+000
2.460772e+003,2.974313e+000
2.461736e+003,3.729767e+000
2.462700e+003,6.642386e+000
2.463665e+003,8.323359e+000
2.464629e+003,7.970026e+000
2.465593e+003,7.211105e+000
2.466557e+003,6.042609e+000
2.467522e+003,4.956723e+000
2.468486e+003,3.904022e+000
2.469450e+003,3.885074e+000
2.470414e+003,5.946551e+000
2.471379e+003,7.978754e+000
2.472343e+003,7.336865e+000
2.473307e+003,5.449094e+000
2.474271e+003,5.303207e+000
2.475236e+003,6.338342e+000
2.476200e+003,6.780264e+000
2.477164e+003,6.835431e+000
2.478128e+003,7.262689e+000
2.479093e+003,7.781183e+000
2.480057e+003,7.258115e+000
2.481021e+003,6.157702e+000
2.481985e+003,5.940598e+000
2.482949e+003,6.738901e+000
2.483914e+003,8.062460e+000
2.484878e+003,9.593842e+000
2.485842e+003,1.035025e+001
2.486806e+003,9.857763e+000
2.487771e+003,9.312338e+000
2.488735e+003,8.908368e+000
2.489699e+003,8.903058e+000
2.490663e+003,9.744940e+000
2.491627e+003,1.038926e+001
2.492592e+003,1.058894e+001
2.493556e+003,1.034915e+001
2.494520e+003,9.148489e+000
2.495484e+003,8.601639e+000
2.496449e+003,1.035496e+001
2.497413e+003,1.265442e+001
2.498377e+003,1.295628e+001
2.499341e+003,1.196100e+001
2.500306e+003,1.143129e+001
2.501270e+003,1.128041e+001
2.502234e+003,1.095987e+001
2.503198e+003,1.066234e+001
2.504163e+003,1.130510e+001
2.505127e+003,1.250444e+001
2.506091e+003,1.297429e+001
2.507055e+003,1.285238e+001
2.508020e+003,1.312082e+001
2.508984e+003,1.385225e+001
2.509948e+003,1.440321e+001
2.510912e+003,1.455288e+001
2.511876e+003,1.434482e+001
2.512841e+003,1.352308e+001
2.513805e+003,1.348669e+001
2.514769e+003,1.550958e+001
2.515733e+003,1.705941e+001
2.516698e+003,1.722230e+001
2.517662e+003,1.714310e+001
2.518626e+003,1.678672e+001
2.519590e+003,1.720089e+001
2.520554e+003,1.933080e+001
2.521519e+003,2.128265e+001
2.522483e+003,2.134402e+001
2.523447e+003,2.056977e+001
2.524411e+003,2.044272e+001
2.525376e+003,2.094652e+001
2.526340e+003,2.203739e+001
2.527304e+003,2.361552e+001
2.528268e+003,2.597479e+001
2.529233e+003,2.835781e+001
2.530197e+003,2.839466e+001
2.531161e+003,2.717472e+001
2.532125e+003,2.701274e+001
2.533090e+003,2.805532e+001
2.534054e+003,3.015753e+001
2.535018e+003,3.285142e+001
2.535982e+003,3.488103e+001
2.536947e+003,3.596622e+001
2.537911e+003,3.673322e+001
2.538875e+003,3.714097e+001
2.539839e+003,3.776203e+001
2.540803e+003,3.910733e+001
2.541768e+003,3.976957e+001
2.542732e+003,3.877092e+001
2.543696e+003,3.929772e+001
2.544660e+003,4.267769e+001
2.545625e+003,4.610925e+001
2.546589e+003,4.842056e+001
2.547553e+003,4.884910e+001
2.548517e+003,4.666122e+001
2.549482e+003,4.422488e+001
2.550446e+003,4.436181e+001
2.551410e+003,4.578369e+001
2.552374e+003,4.725756e+001
2.553339e+003,4.791810e+001
2.554303e+003,4.561208e+001
2.555267e+003,4.264743e+001
2.556231e+003,4.226065e+001
2.557196e+003,4.285983e+001
2.558160e+003,4.227690e+001
2.559124e+003,4.079732e+001
2.560088e+003,3.874879e+001
2.561052e+003,3.681271e+001
2.562017e+003,3.730653e+001
2.562981e+003,4.008779e+001
2.563945e+003,4.005548e+001
2.564909e+003,3.650928e+001
2.565874e+003,3.384866e+001
2.566838e+003,3.210236e+001
2.567802e+003,3.158470e+001
2.568766e+003,3.232765e+001
2.569730e+003,3.202988e+001
2.570695e+003,3.029927e+001
2.571659e+003,2.837717e+001
2.572623e+003,2.675334e+001
2.573587e+003,2.560272e+001
2.574552e+003,2.500285e+001
2.575516e+003,2.384718e+001
2.576480e+003,2.104695e+001
2.577444e+003,1.868447e+001
2.578409e+003,1.851772e+001
2.579373e+003,1.853249e+001
2.580337e+003,1.760587e+001
2.581301e+003,1.669745e+001
2.582266e+003,1.663010e+001
2.583230e+003,1.648341e+001
2.584194e+003,1.551181e+001
2.585158e+003,1.419006e+001
2.586123e+003,1.272077e+001
2.587087e+003,1.194276e+001
2.588051e+003,1.355215e+001
2.589015e+003,1.630304e+001
2.589979e+003,1.603106e+001
2.590944e+003,1.364699e+001
2.591908e+003,1.290232e+001
2.592872e+003,1.298440e+001
2.593836e+003,1.150132e+001
2.594801e+003,9.335373e+000
2.595765e+003,9.031980e+000
2.596729e+003,9.837046e+000
2.597693e+003,9.056521e+000
2.598657e+003,6.899734e+000
2.599622e+003,5.833420e+000
2.600586e+003,6.309219e+000
2.601550e+003,7.036469e+000
2.602514e+003,8.360712e+000
2.603479e+003,8.145102e+000
2.604443e+003,5.599710e+000
2.605407e+003,3.942590e+000
2.606371e+003,3.608994e+000
2.607336e+003,3.212778e+000
2.608300e+003,2.434268e+000
2.609264e+003,2.191605e+000
2.610228e+003,2.781799e+000
2.611193e+003,3.461261e+000
2.612157e+003,3.795462e+000
2.613121e+003,3.886111e+000
2.614085e+003,3.809302e+000
2.615050e+003,3.495947e+000
2.616014e+003,2.670438e+000
2.616978e+003,1.875812e+000
2.617942e+003,1.415868e+000
2.618906e+003,1.204967e+000
2.619871e+003,1.573225e+000
2.620835e+003,1.680623e+000
2.621799e+003,5.140259e-001
2.622763e+003,-6.208054e-001
2.623728e+003,-4.725098e-001
2.624692e+003,4.028305e-001
2.625656e+003,1.226471e+000
2.626620e+003,1.789177e+000
2.627584e+003,1.349727e+000
2.628549e+003,2.953293e-001
2.629513e+003,-1.582138e-001
2.630477e+003,-1.462585e-001
2.631441e+003,8.654175e-002
2.632406e+003,5.001602e-001
2.633370e+003,1.268323e+000
2.634334e+003,2.109476e+000
2.635298e+003,2.279672e+000
2.636263e+003,2.019754e+000
2.637227e+003,2.657974e+000
2.638191e+003,4.211731e+000
2.639155e+003,3.886374e+000
2.640120e+003,1.052139e+000
2.641084e+003,1.068298e-001
2.642048e+003,1.373064e+000
2.643012e+003,2.469540e+000
2.643977e+003,3.272638e+000
2.644941e+003,2.944354e+000
2.645905e+003,1.524098e+000
2.646869e+003,3.672241e-001
2.647833e+003,-1.400818e-001
2.648798e+003,-2.785553e-001
2.649762e+003,-1.963638e-001
2.650726e+003,-1.217575e-001
2.651690e+003,-1.987091e-001
2.652655e+003,-1.919983e-001
2.653619e+003,1.754394e-001
2.654583e+003,3.995270e-001
2.655547e+003,1.194870e-001
2.656511e+003,4.369202e-002
2.657476e+003,4.201431e-001
2.658440e+003,8.401443e-001
2.659404e+003,1.228796e+000
2.660368e+003,1.098373e+000
2.661333e+003,1.001724e-001
2.662297e+003,-9.362580e-001
2.663261e+003,-1.228879e+000
2.664225e+003,-1.070293e+000
2.665190e+003,-5.018417e-001
2.666154e+003,-1.542755e-001
2.667118e+003,-1.315137e+000
2.668082e+003,-2.354871e+000
2.669047e+003,-1.437147e+000
2.670011e+003,-1.224457e-001
2.670975e+003,2.074417e-001
2.671939e+003,5.078888e-002
2.672904e+003,-5.513000e-002
2.673868e+003,-4.156647e-002
2.674832e+003,2.389313e-001
2.675796e+003,5.208969e-001
2.676760e+003,3.045196e-002
2.677725e+003,-9.391648e-001
2.678689e+003,-1.175175e+000
2.679653e+003,-8.495285e-001
2.680617e+003,-8.808593e-002
2.681582e+003,5.386581e-001
2.682546e+003,-5.674698e-001
2.683510e+003,-2.319429e+000
2.684474e+003,-2.466038e+000
2.685438e+003,-1.355455e+000
2.686403e+003,-5.033463e-001
2.687367e+003,-3.389587e-002
2.688331e+003,7.639786e-001
2.689295e+003,1.963040e+000
2.690260e+003,2.163768e+000
2.691224e+003,1.204965e+000
2.692188e+003,5.865143e-001
2.693152e+003,3.117722e-001
2.694117e+003,2.793579e-001
2.695081e+003,3.596374e-001
2.696045e+003,-1.693375e-001
2.697009e+003,-1.192168e+000
2.697974e+003,-1.710461e+000
2.698938e+003,-1.537647e+000
2.699902e+003,-1.385286e+000
2.700866e+003,-1.499443e+000
2.701831e+003,-1.387169e+000
2.702795e+003,-7.514633e-001
2.703759e+003,-2.399094e-001
2.704723e+003,1.281876e-001
2.705688e+003,4.143616e-001
2.706652e+003,6.427429e-001
2.707616e+003,5.044388e-001
2.708580e+003,-6.003113e-002
2.709544e+003,-7.523880e-001
2.710509e+003,-1.426143e+000
2.711473e+003,-2.070331e+000
2.712437e+003,-2.677611e+000
2.713401e+003,-2.498561e+000
2.714365e+003,-6.568069e-001
2.715330e+003,1.080952e+000
2.716294e+003,2.529237e+000
2.717258e+003,2.569337e+000
2.718222e+003,-6.034424e-001
2.719187e+003,-3.155936e+000
2.720151e+003,-4.186469e+000
2.721115e+003,-3.434335e+000
2.722079e+003,-4.758697e-001
2.723044e+003,1.549500e+000
2.724008e+003,2.456543e-001
2.724972e+003,-1.447041e+000
2.725936e+003,-3.750519e-001
2.726901e+003,1.124916e+000
2.727865e+003,1.365646e-001
2.728829e+003,-1.138458e+000
2.729793e+003,-7.547577e-001
2.730758e+003,-1.916595e-001
2.731722e+003,-5.260742e-001
2.732686e+003,-1.064145e+000
2.733650e+003,-1.452904e+000
2.734615e+003,-1.449036e+000
2.735579e+003,-7.138550e-001
2.736543e+003,2.529297e-002
2.737507e+003,-2.127884e-001
2.738471e+003,-1.061725e+000
2.739436e+003,-2.226730e+000
2.740400e+003,-3.130687e+000
2.741364e+003,-2.568902e+000
2.742328e+003,-1.395648e+000
2.743292e+003,-5.747986e-003
2.744257e+003,8.282883e-001
2.745221e+003,-3.419357e-001
2.746185e+003,-1.892059e+000
2.747149e+003,-1.486711e+000
2.748114e+003,-3.636352e-001
2.749078e+003,-3.902573e-001
2.750042e+003,-1.084143e+000
2.751006e+003,-1.211763e+000
2.751971e+003,-9.339844e-001
2.752935e+003,-7.845154e-001
2.753899e+003,-6.525589e-001
2.754863e+003,-1.860214e-001
2.755828e+003,3.645233e-001
2.756792e+003,8.389755e-001
2.757756e+003,8.988464e-001
2.758720e+003,-3.197449e-001
2.759685e+003,-2.090883e+000
2.760649e+003,-2.654153e+000
2.761613e+003,-2.412517e+000
2.762577e+003,-2.825456e+000
2.763542e+003,-3.666039e+000
2.764506e+003,-2.765576e+000
2.765470e+003,-6.629349e-001
2.766434e+003,-3.572861e-001
2.767398e+003,-1.271768e+000
2.768363e+003,-2.092007e+000
2.769327e+003,-2.542708e+000
2.770291e+003,-2.230847e+000
2.771255e+003,-1.461145e+000
2.772219e+003,-7.784149e-001
2.773184e+003,-4.270340e-001
2.774148e+003,-1.240411e+000
2.775112e+003,-3.048915e+000
2.776076e+003,-3.133816e+000
2.777041e+003,-1.452959e+000
2.778005e+003,-8.722488e-001
2.778969e+003,-1.226567e+000
2.779933e+003,-1.579170e+000
2.780898e+003,-1.926596e+000
2.781862e+003,-2.921701e+000
2.782826e+003,-4.026576e+000
2.783790e+003,-3.430444e+000
2.784755e+003,-1.436096e+000
2.785719e+003,-3.500015e-001
2.786683e+003,-5.127198e-001
2.787647e+003,-7.900299e-001
2.788612e+003,-1.135185e+000
2.789576e+003,-2.350903e+000
2.790540e+003,-4.340238e+000
2.791504e+003,-4.194440e+000
2.792469e+003,-2.356891e+000
2.793433e+003,-1.911191e+000
2.794397e+003,-2.652972e+000
2.795361e+003,-2.215218e+000
2.796325e+003,-6.451218e-001
2.797290e+003,1.352951e-001
2.798254e+003,-2.369812e-001
2.799218e+003,-1.293759e+000
2.800182e+003,-3.319063e+000
2.801146e+003,-3.379346e+000
2.802111e+003,-1.233162e+000
2.803075e+003,5.972916e-001
2.804039e+003,1.892726e+000
2.805003e+003,2.085557e+000
2.805968e+003,1.305676e+000
2.806932e+003,1.627564e-001
2.807896e+003,-9.561111e-001
2.808860e+003,-1.572464e+000
2.809825e+003,-1.606961e+000
2.810789e+003,-1.257182e+000
2.811753e+003,-4.619736e-001
2.812717e+003,-4.620666e-002
2.813682e+003,-8.426514e-002
2.814646e+003,-1.335037e-001
2.815610e+003,-1.805481e-001
2.816574e+003,-3.863998e-001
2.817539e+003,-8.493637e-001
2.818503e+003,-2.316025e+000
2.819467e+003,-4.338234e+000
2.820431e+003,-4.969419e+000
2.821396e+003,-3.941734e+000
2.822360e+003,-2.589598e+000
2.823324e+003,-1.174077e+000
2.824288e+003,-1.052948e-001
2.825252e+003,7.778152e-001
2.826217e+003,3.135834e-001
2.827181e+003,-1.555763e+000
2.828145e+003,-1.529648e+000
2.829109e+003,1.934311e-001
2.830073e+003,6.946686e-001
2.831038e+003,-1.581833e-001
2.832002e+003,-8.720948e-001
2.832966e+003,-1.091824e+000
2.833930e+003,-1.151888e+000
2.834895e+003,-1.133687e+000
2.835859e+003,-7.274857e-001
2.836823e+003,3.372452e-001
2.837787e+003,1.968948e-001
2.838752e+003,-1.288672e+000
2.839716e+003,-9.097107e-001
2.840680e+003,1.087530e+000
2.841644e+003,1.732931e+000
2.842609e+003,9.065460e-001
2.843573e+003,-3.719330e-001
2.844537e+003,-1.535184e+000
2.845501e+003,-1.592435e+000
2.846466e+003,-4.885727e-001
2.847430e+003,-1.410751e-001
2.848394e+003,-8.559189e-001
2.849358e+003,-9.994079e-001
2.850323e+003,-5.313309e-001
2.851287e+003,2.562714e-002
2.852251e+003,5.354965e-001
2.853215e+003,6.447601e-002
2.854179e+003,-9.331833e-001
2.855144e+003,-4.509369e-001
2.856108e+003,1.035750e+000
2.857072e+003,9.256378e-001
2.858036e+003,-9.027557e-001
2.859000e+003,-2.013238e+000
2.859965e+003,-2.246013e+000
2.860929e+003,-1.561346e+000
2.861893e+003,6.890412e-002
2.862857e+003,1.946808e-001
2.863822e+003,-8.371338e-001
2.864786e+003,-1.514307e+000
2.865750e+003,-1.598743e+000
2.866714e+003,-4.063858e-001
2.867679e+003,1.204584e+000
2.868643e+003,7.986633e-001
2.869607e+003,-1.219499e+000
2.870571e+003,-1.768181e+000
2.871536e+003,-8.669983e-001
2.872500e+003,8.096344e-001
2.873464e+003,3.134273e+000
2.874428e+003,3.080344e+000
2.875393e+003,1.307324e+000
2.876357e+003,-4.998444e-001
2.877321e+003,-1.753009e+000
2.878285e+003,-1.311812e+000
2.879250e+003,1.287567e-001
2.880214e+003,1.498502e+000
2.881178e+003,2.325298e+000
2.882142e+003,1.808931e+000
2.883106e+003,3.118607e-001
2.884071e+003,-1.025560e+000
2.885035e+003,-1.991789e+000
2.885999e+003,-1.007372e+000
2.886963e+003,9.988785e-001
2.887927e+003,2.328297e+000
2.888892e+003,2.611882e+000
2.889856e+003,2.632446e-001
2.890820e+003,-2.452727e+000
2.891784e+003,-1.516336e+000
2.892749e+003,1.032098e+000
2.893713e+003,1.603261e+000
2.894677e+003,8.828049e-001
2.895641e+003,2.892517e-001
2.896606e+003,-1.457535e-001
2.897570e+003,-2.448029e-001
2.898534e+003,-1.846359e-001
2.899498e+003,-2.018173e-001
2.900463e+003,-3.116043e-001
2.901427e+003,-7.009979e-001
2.902391e+003,-9.645309e-001
2.903355e+003,-4.537537e-001
2.904320e+003,4.514771e-002
2.905284e+003,-3.119675e-001
2.906248e+003,-1.013077e+000
2.907212e+003,-1.317618e+000
2.908177e+003,-1.310069e+000
2.909141e+003,-1.024867e+000
2.910105e+003,-6.668091e-001
2.911069e+003,-3.166839e-001
2.912033e+003,-1.680710e-001
2.912998e+003,-4.691147e-001
2.913962e+003,-8.762802e-001
2.914926e+003,-1.251802e+000
2.915890e+003,-1.504584e+000
2.916854e+003,-1.566940e+000
2.917819e+003,-1.449339e+000
2.918783e+003,-1.131902e+000
2.919747e+003,-8.664886e-001
2.920711e+003,-1.149034e+000
2.921676e+003,-1.221167e+000
2.922640e+003,-1.460922e-001
2.923604e+003,5.299469e-001
2.924568e+003,2.257385e-002
2.925533e+003,-5.607513e-001
2.926497e+003,-9.020264e-001
2.927461e+003,-2.522034e-001
2.928425e+003,1.685171e+000
2.929390e+003,-1.186591e+000
2.930354e+003,-1.411849e+001
2.931318e+003,-2.202002e+001
2.932282e+003,-1.047077e+001
2.933247e+003,-9.597458e-001
2.934211e+003,2.306213e-002
2.935175e+003,-8.451844e-003
2.936139e+003,-6.949539e-001
2.937104e+003,-1.102074e+000
2.938068e+003,-1.036607e+000
2.939032e+003,-1.801601e+000
2.939996e+003,-3.457103e+000
2.940960e+003,-3.201761e+000
2.941925e+003,-3.150024e-002
2.942889e+003,1.706535e+000
2.943853e+003,7.599334e-002
2.944817e+003,-1.306499e+000
2.945781e+003,-2.451862e+000
2.946746e+003,-2.387820e+000
2.947710e+003,-1.192853e+000
2.948674e+003,-1.962219e-001
2.949638e+003,3.435425e-001
2.950603e+003,1.564240e-001
2.951567e+003,-4.745880e-001
2.952531e+003,-3.494553e-001
2.953495e+003,5.834488e-001
2.954460e+003,6.007187e-001
2.955424e+003,-3.337387e-001
2.956388e+003,-1.848879e+000
2.957352e+003,-3.723572e+000
2.958317e+003,-3.417393e+000
2.959281e+003,-1.711130e+000
2.960245e+003,-8.282120e-001
2.961209e+003,-4.632080e-001
2.962174e+003,6.898972e-001
2.963138e+003,2.023898e+000
2.964102e+003,1.740895e+000
2.965066e+003,6.298569e-001
2.966031e+003,5.013596e-001
2.966995e+003,9.784836e-001
2.967959e+003,9.254303e-001
2.968923e+003,4.749802e-001
2.969887e+003,-4.273819e-001
2.970852e+003,-1.183519e+000
2.971816e+003,-9.784439e-001
2.972780e+003,-3.308701e-001
2.973744e+003,6.042206e-001
2.974708e+003,1.072037e+000
2.975673e+003,3.626022e-001
2.976637e+003,-7.683716e-001
2.977601e+003,-1.491740e+000
2.978565e+003,-1.851299e+000
2.979530e+003,-1.721165e+000
2.980494e+003,-1.487445e+000
2.981458e+003,-1.436581e+000
2.982422e+003,-1.415269e+000
2.983387e+003,-1.554050e+000
2.984351e+003,-1.214238e+000
2.985315e+003,-3.408508e-002
2.986279e+003,5.822510e-001
2.987244e+003,-6.246490e-002
2.988208e+003,-8.757431e-001
2.989172e+003,-1.168468e+000
2.990136e+003,-1.647446e+000
2.991101e+003,-3.457555e+000
2.992065e+003,-3.820258e+000
2.993029e+003,-1.387361e+000
2.993993e+003,1.812149e-001
2.994958e+003,4.697098e-001
2.995922e+003,4.844452e-001
2.996886e+003,4.449936e-001
2.997850e+003,-2.120819e-002
2.998814e+003,-7.973922e-001
2.999779e+003,-7.147492e-001
3.000743e+003,5.150879e-001
3.001707e+003,8.946930e-001
3.002671e+003,1.549423e-001
3.003635e+003,-2.648056e-001
3.004600e+003,-3.887024e-001
3.005564e+003,-2.760971e-001
3.006528e+003,-2.167404e-001
3.007492e+003,-1.686125e+000
3.008457e+003,-3.514873e+000
3.009421e+003,-2.645903e+000
3.010385e+003,-9.495544e-003
3.011349e+003,1.541806e+000
3.012314e+003,1.819127e+000
3.013278e+003,9.930877e-002
3.014242e+003,-2.575055e+000
3.015206e+003,-2.538750e+000
3.016171e+003,-1.240662e+000
3.017135e+003,-7.621979e-001
3.018099e+003,-8.514007e-001
3.019063e+003,-1.714085e+000
3.020028e+003,-2.180638e+000
3.020992e+003,-9.938003e-001
3.021956e+003,-1.906479e-001
3.022920e+003,-1.653174e+000
3.023885e+003,-3.255746e+000
3.024849e+003,-2.564955e+000
3.025813e+003,-1.270821e+000
3.026777e+003,-5.531235e-001
3.027741e+003,-4.466339e-001
3.028706e+003,-1.839429e+000
3.029670e+003,-2.112439e+000
3.030634e+003,-2.506500e-001
3.031598e+003,4.863586e-002
3.032563e+003,-2.233104e+000
3.033527e+003,-2.823279e+000
3.034491e+003,-1.541794e-001
3.035455e+003,1.565187e+000
3.036420e+003,3.564835e-001
3.037384e+003,-1.050290e+000
3.038348e+003,-2.493706e+000
3.039312e+003,-2.807300e+000
3.040277e+003,-1.973990e+000
3.041241e+003,-2.263565e+000
3.042205e+003,-3.302650e+000
3.043169e+003,-2.165320e+000
3.044134e+003,4.018265e-001
3.045098e+003,1.011264e+000
3.046062e+003,-4.174957e-001
3.047026e+003,-1.738132e+000
3.047990e+003,-2.767029e+000
3.048955e+003,-2.938855e+000
3.049919e+003,-2.520129e+000
3.050883e+003,-2.734061e+000
3.051847e+003,-3.138986e+000
3.052812e+003,-3.131206e+000
3.053776e+003,-2.705121e+000
3.054740e+003,-1.421194e+000
3.055704e+003,-4.508301e-001
3.056668e+003,-1.044046e+000
3.057633e+003,-1.454359e+000
3.058597e+003,3.730438e-001
3.059561e+003,2.335355e+000
3.060525e+003,1.680005e+000
3.061490e+003,1.223160e-001
3.062454e+003,-1.791379e+000
3.063418e+003,-2.921274e+000
3.064382e+003,-2.727242e+000
3.065347e+003,-2.006168e+000
3.066311e+003,-9.429138e-001
3.067275e+003,-3.062134e-001
3.068239e+003,-3.577515e-001
3.069204e+003,-6.798142e-001
3.070168e+003,-1.105583e+000
3.071132e+003,-1.484602e+000
3.072096e+003,-1.928011e+000
3.073061e+003,-1.625809e+000
3.074025e+003,-4.847198e-001
3.074989e+003,4.344681e-001
3.075953e+003,1.070009e+000
3.076917e+003,1.964803e+000
3.077882e+003,2.566701e+000
3.078846e+003,7.109863e-001
3.079810e+003,-2.507422e+000
3.080774e+003,-3.072549e+000
3.081739e+003,-1.762102e+000
3.082703e+003,-1.113519e+000
3.083667e+003,-9.632797e-001
3.084631e+003,-7.968003e-001
3.085595e+003,-6.650070e-001
3.086560e+003,-7.480438e-001
3.087524e+003,-7.771972e-001
3.088488e+003,-1.094925e-001
3.089452e+003,7.781372e-002
3.090417e+003,-1.177415e+000
3.091381e+003,-2.135454e+000
3.092345e+003,-1.409914e+000
3.093309e+003,-7.615311e-001
3.094274e+003,-2.103275e+000
3.095238e+003,-2.950160e+000
3.096202e+003,-1.021524e+000
3.097166e+003,4.255707e-001
3.098131e+003,7.882507e-001
3.099095e+003,7.004929e-001
3.100059e+003,2.932327e-001
3.101023e+003,-2.393188e-001
3.101988e+003,-7.479248e-001
3.102952e+003,-8.713120e-001
3.103916e+003,-5.521500e-001
3.104880e+003,-8.952179e-002
3.105844e+003,4.885055e-001
3.106809e+003,5.160980e-001
3.107773e+003,9.631348e-003
3.108737e+003,-1.162682e+000
3.109701e+003,-2.493237e+000
3.110666e+003,-2.635074e+000
3.111630e+003,-2.134279e+000
3.112594e+003,-1.813280e+000
3.113558e+003,-1.768524e+000
3.114522e+003,-2.100737e+000
3.115487e+003,-2.301411e+000
3.116451e+003,-1.532350e+000
3.117415e+003,-6.320160e-001
3.118379e+003,-1.124840e+000
3.119344e+003,-1.585977e+000
3.120308e+003,-3.837814e-001
3.121272e+003,1.714981e-001
3.122236e+003,-1.032996e+000
3.123201e+003,-1.462709e+000
3.124165e+003,-3.600372e-001
3.125129e+003,-2.619019e-001
3.126093e+003,-2.037619e+000
3.127058e+003,-3.172900e+000
3.128022e+003,-2.555986e+000
3.128986e+003,-1.555797e+000
3.129950e+003,-7.866516e-002
3.130915e+003,2.132980e-001
3.131879e+003,-5.595459e-001
3.132843e+003,-1.390936e+000
3.133807e+003,-2.019257e+000
3.134771e+003,-1.863007e+000
3.135736e+003,-1.298122e+000
3.136700e+003,-1.190129e+000
3.137664e+003,-1.416656e+000
3.138628e+003,-1.625781e+000
3.139593e+003,-1.921985e+000
3.140557e+003,-3.075998e+000
3.141521e+003,-3.783839e+000
3.142485e+003,-7.616653e-001
3.143449e+003,1.894525e+000
3.144414e+003,5.720490e-001
3.145378e+003,-1.823779e+000
3.146342e+003,-4.483035e+000
3.147306e+003,-5.080912e+000
3.148271e+003,-2.662057e+000
3.149235e+003,-6.768036e-001
3.150199e+003,-1.093607e+000
3.151163e+003,-1.385564e+000
3.152128e+003,8.233032e-002
3.153092e+003,1.198044e-001
3.154056e+003,-1.616937e+000
3.155020e+003,-1.489238e+000
3.155985e+003,1.496902e-001
3.156949e+003,5.931305e-001
3.157913e+003,-1.441055e-001
3.158877e+003,-1.190028e+000
3.159842e+003,-2.283542e+000
3.160806e+003,-3.432924e+000
3.161770e+003,-4.042786e+000
3.162734e+003,-1.971991e+000
3.163698e+003,9.562942e-001
3.164663e+003,6.206146e-001
3.165627e+003,-8.767594e-001
3.166591e+003,-1.998912e+000
3.167555e+003,-2.439729e+000
3.168520e+003,-1.964256e+000
3.169484e+003,-1.498495e+000
3.170448e+003,-1.469817e+000
3.171412e+003,-1.397726e+000
3.172376e+003,-1.002431e+000
3.173341e+003,-5.998642e-001
3.174305e+003,-2.679993e-001
3.175269e+003,-2.483139e-001
3.176233e+003,-5.874298e-001
3.177198e+003,-9.659683e-001
3.178162e+003,-1.351495e+000
3.179126e+003,-1.599001e+000
3.180090e+003,-1.774084e+000
3.181055e+003,-2.278311e+000
3.182019e+003,-2.827724e+000
3.182983e+003,-2.491322e+000
3.183947e+003,-1.664351e+000
3.184912e+003,-1.225217e+000
3.185876e+003,-1.157758e+000
3.186840e+003,-1.689661e+000
3.187804e+003,-2.263260e+000
3.188769e+003,-2.357480e+000
3.189733e+003,-2.090045e+000
3.190697e+003,-1.405934e+000
3.191661e+003,-9.491196e-001
3.192625e+003,-9.788178e-001
3.193590e+003,-1.135234e+000
3.194554e+003,-1.224280e+000
3.195518e+003,-1.242722e+000
3.196482e+003,-1.163266e+000
3.197447e+003,-1.128033e+000
3.198411e+003,-1.205774e+000
3.199375e+003,-1.038504e+000
3.200339e+003,-5.504883e-001
3.201303e+003,1.236267e+000
3.202268e+003,3.207297e+000
3.203232e+003,2.262650e+000
3.204196e+003,-2.774277e-001
3.205160e+003,-1.070871e+000
3.206125e+003,-8.038117e-001
3.207089e+003,-7.086456e-001
3.208053e+003,-7.655579e-001
3.209017e+003,-1.229324e+000
3.209982e+003,-1.432378e+000
3.210946e+003,-6.420258e-001
3.211910e+003,3.992279e-001
3.212874e+003,1.557460e+000
3.213839e+003,2.070329e+000
3.214803e+003,1.717345e+000
3.215767e+003,1.157462e+000
3.216731e+003,6.545868e-001
3.217696e+003,-3.016922e-001
3.218660e+003,-2.084952e+000
3.219624e+003,-2.683486e+000
3.220588e+003,-2.057214e+000
3.221552e+003,-5.885285e-001
3.222517e+003,1.112257e+000
3.223481e+003,1.197111e+000
3.224445e+003,3.039429e-001
3.225409e+003,-5.285034e-001
3.226374e+003,-1.122806e+000
3.227338e+003,-1.413963e+000
3.228302e+003,-1.607533e+000
3.229266e+003,-1.959666e+000
3.230230e+003,-2.314803e+000
3.231195e+003,-2.941379e+000
3.232159e+003,-2.719756e+000
3.233123e+003,-2.031708e-001
3.234087e+003,1.052844e+000
3.235052e+003,5.114853e-001
3.236016e+003,-5.485932e-001
3.236980e+003,-1.562228e+000
3.237944e+003,-1.454097e+000
3.238909e+003,-2.452927e-001
3.239873e+003,-3.746491e-002
3.240837e+003,-8.068329e-001
3.241801e+003,-9.858414e-001
3.242766e+003,-8.111130e-001
3.243730e+003,-1.629719e+000
3.244694e+003,-2.406653e+000
3.245658e+003,-1.067378e+000
3.246623e+003,2.847565e-001
3.247587e+003,-2.945663e-001
3.248551e+003,-1.051616e+000
3.249515e+003,-8.726822e-001
3.250479e+003,-5.418717e-001
3.251444e+003,-6.687714e-001
3.252408e+003,-6.373444e-001
3.253372e+003,4.769333e-001
3.254336e+003,2.709991e-001
3.255301e+003,-1.504889e+000
3.256265e+003,-2.028590e+000
3.257229e+003,-1.384006e+000
3.258193e+003,-1.013647e+000
3.259157e+003,-1.024213e+000
3.260122e+003,-1.041318e+000
3.261086e+003,-9.546738e-001
3.262050e+003,-5.426758e-001
3.263014e+003,-2.921860e-001
3.263979e+003,-2.008424e+000
3.264943e+003,-3.611095e+000
3.265907e+003,-1.913594e+000
3.266871e+003,-8.100281e-002
3.267836e+003,2.516418e-001
3.268800e+003,2.057190e-002
3.269764e+003,-4.860718e-001
3.270728e+003,-1.399329e+000
3.271693e+003,-2.613072e+000
3.272657e+003,-2.968133e+000
3.273621e+003,-2.016145e+000
3.274585e+003,-9.090790e-001
3.275550e+003,2.987122e-001
3.276514e+003,1.206610e+000
3.277478e+003,1.553882e+000
3.278442e+003,-3.265457e-001
3.279406e+003,-2.457378e+000
3.280371e+003,-1.242587e+000
3.281335e+003,4.401321e-001
3.282299e+003,-5.145416e-002
3.283263e+003,-1.017091e+000
3.284228e+003,-9.764053e-001
3.285192e+003,-7.629395e-004
3.286156e+003,3.424054e+000
3.287120e+003,4.266841e+000
3.288084e+003,2.524734e-001
3.289049e+003,-1.493652e+000
3.290013e+003,-5.720108e-001
3.290977e+003,4.114258e-001
3.291941e+003,9.361023e-001
3.292906e+003,1.112184e+000
3.293870e+003,9.514725e-001
3.294834e+003,5.575287e-001
3.295798e+003,-1.480270e-001
3.296763e+003,-1.903061e+000
3.297727e+003,-3.429901e+000
3.298691e+003,-1.976033e+000
3.299655e+003,-1.310883e-001
3.300620e+003,2.109253e-001
3.301584e+003,2.037231e-001
3.302548e+003,1.393616e-001
3.303512e+003,2.345963e-001
3.304477e+003,5.997345e-001
3.305441e+003,1.459512e+000
3.306405e+003,2.895903e+000
3.307369e+003,3.357146e+000
3.308333e+003,2.761859e+000
3.309298e+003,1.739122e+000
3.310262e+003,5.862930e-001
3.311226e+003,1.545288e-001
3.312190e+003,2.497330e-001
3.313155e+003,9.105789e-001
3.314119e+003,1.319752e+000
3.315083e+003,7.640915e-001
3.316047e+003,5.608139e-001
3.317011e+003,1.831636e+000
3.317976e+003,3.346933e+000
3.318940e+003,4.607065e+000
3.319904e+003,4.714458e+000
3.320868e+003,3.346791e+000
3.321833e+003,2.282234e+000
3.322797e+003,1.739838e+000
3.323761e+003,2.512524e+000
3.324725e+003,3.835346e+000
3.325690e+003,3.241971e+000
3.326654e+003,1.847255e+000
3.327618e+003,2.587987e+000
3.328582e+003,4.010776e+000
3.329547e+003,3.135893e+000
3.330511e+003,1.771657e+000
3.331475e+003,1.946539e+000
3.332439e+003,2.471042e+000
3.333404e+003,3.175334e+000
3.334368e+003,2.756950e+000
3.335332e+003,1.088820e+000
3.336296e+003,-5.370178e-002
3.337260e+003,-2.131195e-001
3.338225e+003,1.479294e-001
3.339189e+003,8.027542e-001
3.340153e+003,5.826248e-001
3.341117e+003,-2.207733e-001
3.342082e+003,3.990173e-003
3.343046e+003,7.664215e-001
3.344010e+003,1.832794e+000
3.344974e+003,2.283128e+000
3.345938e+003,1.104031e+000
3.346903e+003,4.024643e-001
3.347867e+003,1.152013e+000
3.348831e+003,1.812999e+000
3.349795e+003,1.546893e+000
3.350760e+003,5.910279e-001
3.351724e+003,-1.413506e+000
3.352688e+003,-2.388251e+000
3.353652e+003,-2.319620e+000
3.354617e+003,-4.107773e-001
3.355581e+003,2.017787e+000
3.356545e+003,2.065175e+000
3.357509e+003,8.645660e-001
3.358474e+003,1.803665e-001
3.359438e+003,-4.558655e-001
3.360402e+003,-1.633139e+000
3.361366e+003,-1.740399e+000
3.362331e+003,1.952872e+000
3.363295e+003,4.031724e+000
3.364259e+003,1.553113e+000
3.365223e+003,1.391632e-001
3.366188e+003,1.549545e-001
3.367152e+003,1.298766e+000
3.368116e+003,2.599677e+000
3.369080e+003,1.004854e+000
3.370044e+003,-1.960112e+000
3.371009e+003,-1.814868e+000
3.371973e+003,2.046616e-001
3.372937e+003,2.360896e+000
3.373901e+003,3.618510e+000
3.374865e+003,2.016782e+000
3.375830e+003,1.285065e-001
3.376794e+003,-1.276393e+000
3.377758e+003,-1.473245e+000
3.378722e+003,-5.156204e-001
3.379687e+003,-5.175812e-001
3.380651e+003,-1.579279e+000
3.381615e+003,-1.135023e+000
3.382579e+003,8.276154e-001
3.383544e+003,1.863638e+000
3.384508e+003,2.036632e+000
3.385472e+003,1.022186e+000
3.386436e+003,-2.243652e-002
3.387401e+003,5.518585e-001
3.388365e+003,1.287297e+000
3.389329e+003,1.454190e+000
3.390293e+003,1.371936e+000
3.391258e+003,1.229176e+000
3.392222e+003,1.515454e+000
3.393186e+003,2.442039e+000
3.394150e+003,3.722414e+000
3.395115e+003,5.292168e+000
3.396079e+003,6.260588e+000
3.397043e+003,6.614311e+000
3.398007e+003,5.831252e+000
3.398971e+003,4.956322e+000
3.399936e+003,5.450073e+000
3.400900e+003,6.462196e+000
3.401864e+003,7.539978e+000
3.402828e+003,7.756981e+000
3.403792e+003,6.457448e+000
3.404757e+003,5.224969e+000
3.405721e+003,4.597909e+000
3.406685e+003,5.408969e+000
3.407649e+003,7.608475e+000
3.408614e+003,9.190059e+000
3.409578e+003,1.026579e+001
3.410542e+003,1.153550e+001
3.411506e+003,1.260595e+001
3.412471e+003,1.268552e+001
3.413435e+003,1.258161e+001
3.414399e+003,1.307381e+001
3.415363e+003,1.381983e+001
3.416328e+003,1.437578e+001
3.417292e+003,1.542554e+001
3.418256e+003,1.784393e+001
3.419220e+003,1.781139e+001
3.420185e+003,1.562870e+001
3.421149e+003,1.609284e+001
3.422113e+003,1.796921e+001
3.423077e+003,1.518033e+001
3.424042e+003,1.124442e+001
3.425006e+003,1.353047e+001
3.425970e+003,1.777690e+001
3.426934e+003,1.748254e+001
