7.140112e+001,4.860093e+001
7.236536e+001,4.973641e+001
7.332959e+001,5.363578e+001
7.429382e+001,5.688931e+001
7.525806e+001,6.010236e+001
7.622229e+001,6.064982e+001
7.718652e+001,5.597277e+001
7.815076e+001,4.269846e+001
7.911499e+001,3.510271e+001
8.007922e+001,3.254534e+001
8.104346e+001,3.396603e+001
8.200769e+001,3.907958e+001
8.297192e+001,5.139654e+001
8.393616e+001,6.199686e+001
8.490039e+001,6.963039e+001
8.586462e+001,7.396322e+001
8.682886e+001,7.484233e+001
8.779310e+001,6.949147e+001
8.875733e+001,6.193812e+001
8.972157e+001,5.398018e+001
9.068580e+001,4.645595e+001
9.165003e+001,3.961201e+001
9.261427e+001,3.501318e+001
9.357850e+001,3.200629e+001
9.454273e+001,3.055779e+001
9.550697e+001,3.091706e+001
9.647120e+001,3.431573e+001
9.743543e+001,3.500065e+001
9.839967e+001,3.166711e+001
9.936390e+001,2.680417e+001
1.003281e+002,2.329383e+001
1.012924e+002,2.215203e+001
1.022566e+002,2.163393e+001
1.032208e+002,2.190796e+001
1.041851e+002,2.266511e+001
1.051493e+002,2.331150e+001
1.061135e+002,2.317325e+001
1.070778e+002,2.274079e+001
1.080420e+002,2.216602e+001
1.090062e+002,2.150479e+001
1.099705e+002,2.072078e+001
1.109347e+002,1.917996e+001
1.118989e+002,1.739996e+001
1.128632e+002,1.641920e+001
1.138274e+002,1.701647e+001
1.147916e+002,1.954910e+001
1.157559e+002,2.092246e+001
1.167201e+002,2.100926e+001
1.176843e+002,2.049101e+001
1.186486e+002,2.016476e+001
1.196128e+002,2.009820e+001
1.205770e+002,2.009874e+001
1.215413e+002,2.032467e+001
1.225055e+002,2.060967e+001
1.234697e+002,2.062731e+001
1.244340e+002,2.057031e+001
1.253982e+002,1.968136e+001
1.263624e+002,1.633867e+001
1.273267e+002,1.101072e+001
1.282909e+002,6.494678e+000
1.292551e+002,1.080769e+001
1.302194e+002,1.822313e+001
1.311836e+002,2.399058e+001
1.321478e+002,2.506838e+001
1.331121e+002,2.135114e+001
1.340763e+002,1.764792e+001
1.350405e+002,1.371082e+001
1.360048e+002,1.060796e+001
1.369690e+002,9.553619e+000
1.379332e+002,1.211201e+001
1.388975e+002,1.463649e+001
1.398617e+002,1.731599e+001
1.408259e+002,1.979582e+001
1.417902e+002,2.161970e+001
1.427544e+002,2.317517e+001
1.437186e+002,2.315620e+001
1.446829e+002,2.004924e+001
1.456471e+002,1.471021e+001
1.466113e+002,9.605158e+000
1.475756e+002,8.168170e+000
1.485398e+002,8.785151e+000
1.495040e+002,1.177507e+001
1.504683e+002,1.684311e+001
1.514325e+002,2.300203e+001
1.523967e+002,2.383181e+001
1.533610e+002,2.059143e+001
1.543252e+002,1.700820e+001
1.552894e+002,1.588315e+001
1.562537e+002,1.856592e+001
1.572179e+002,1.924120e+001
1.581821e+002,1.613981e+001
1.591464e+002,1.256639e+001
1.601106e+002,1.223996e+001
1.610748e+002,1.924304e+001
1.620391e+002,2.375440e+001
1.630033e+002,2.271060e+001
1.639676e+002,1.818170e+001
1.649318e+002,1.341815e+001
1.658960e+002,1.119472e+001
1.668603e+002,1.027215e+001
1.678245e+002,1.016423e+001
1.687887e+002,1.059683e+001
1.697530e+002,1.127108e+001
1.707172e+002,1.127747e+001
1.716814e+002,1.090057e+001
1.726457e+002,1.103574e+001
1.736099e+002,1.210148e+001
1.745741e+002,1.417581e+001
1.755384e+002,1.438437e+001
1.765026e+002,1.164092e+001
1.774668e+002,8.859790e+000
1.784311e+002,7.728888e+000
1.793953e+002,9.063410e+000
1.803595e+002,9.678802e+000
1.813238e+002,8.429163e+000
1.822880e+002,6.748810e+000
1.832522e+002,5.871765e+000
1.842165e+002,6.915558e+000
1.851807e+002,7.999402e+000
1.861449e+002,7.449689e+000
1.871092e+002,6.055969e+000
1.880734e+002,4.859033e+000
1.890376e+002,5.330505e+000
1.900019e+002,7.022607e+000
1.909661e+002,8.370911e+000
1.919303e+002,9.284002e+000
1.928946e+002,1.002773e+001
1.938588e+002,1.145300e+001
1.948230e+002,1.380594e+001
1.957873e+002,1.632388e+001
1.967515e+002,1.830576e+001
1.977157e+002,1.987701e+001
1.986800e+002,2.401663e+001
1.996442e+002,3.100402e+001
2.006084e+002,4.012214e+001
2.015727e+002,5.470619e+001
2.025369e+002,7.539232e+001
2.035011e+002,8.911226e+001
2.044654e+002,8.244455e+001
2.054296e+002,6.900273e+001
2.063938e+002,5.540386e+001
2.073581e+002,4.614927e+001
2.083223e+002,4.107244e+001
2.092865e+002,3.841078e+001
2.102508e+002,3.793745e+001
2.112150e+002,4.041247e+001
2.121792e+002,4.674369e+001
2.131435e+002,5.843047e+001
2.141077e+002,6.535973e+001
2.150719e+002,6.654823e+001
2.160362e+002,6.433623e+001
2.170004e+002,6.182886e+001
2.179646e+002,5.696646e+001
2.189289e+002,5.515290e+001
2.198931e+002,5.637438e+001
2.208573e+002,6.069573e+001
2.218216e+002,6.841861e+001
2.227858e+002,8.413915e+001
2.237500e+002,9.898461e+001
2.247143e+002,1.121964e+002
2.256785e+002,1.218689e+002
2.266427e+002,1.250715e+002
2.276070e+002,1.112923e+002
2.285712e+002,8.870211e+001
2.295354e+002,6.664181e+001
2.304997e+002,4.804583e+001
2.314639e+002,3.300570e+001
2.324281e+002,2.365537e+001
2.333924e+002,2.061687e+001
2.343566e+002,1.873026e+001
2.353208e+002,1.608264e+001
2.362851e+002,1.238241e+001
2.372493e+002,9.849011e+000
2.382135e+002,9.146899e+000
2.391778e+002,8.775256e+000
2.401420e+002,8.173505e+000
2.411062e+002,7.200354e+000
2.420705e+002,5.683209e+000
2.430347e+002,2.749664e+000
2.439989e+002,-2.555542e-001
2.449632e+002,-2.173560e+000
2.459274e+002,-2.074890e+000
2.468916e+002,-7.777771e-001
2.478559e+002,-1.820435e-001
2.488201e+002,-1.129395e-001
2.497843e+002,-3.467956e-001
2.507486e+002,-6.350464e-001
2.517128e+002,-9.982544e-001
2.526770e+002,-6.043823e-001
2.536413e+002,9.313599e-001
2.546055e+002,2.802032e+000
2.555697e+002,3.728833e+000
2.565340e+002,2.751282e+000
2.574982e+002,2.099408e+000
2.584625e+002,1.829352e+000
2.594267e+002,2.065509e+000
2.603909e+002,3.053601e+000
2.613552e+002,6.034326e+000
2.623194e+002,8.337079e+000
2.632836e+002,8.294226e+000
2.642479e+002,6.509772e+000
2.652121e+002,4.514642e+000
2.661763e+002,4.841235e+000
2.671406e+002,6.342053e+000
2.681048e+002,7.449670e+000
2.690690e+002,7.823706e+000
2.700333e+002,7.406213e+000
2.709975e+002,5.788465e+000
2.719617e+002,2.359424e+000
2.729260e+002,-1.285950e-001
2.738902e+002,-6.479797e-001
2.748544e+002,7.763916e-001
2.758187e+002,1.583899e+000
2.767829e+002,1.018573e+000
2.777471e+002,4.102051e-001
2.787114e+002,2.880737e-001
2.796756e+002,7.386902e-001
2.806398e+002,1.001270e+000
2.816041e+002,-5.327148e-001
2.825683e+002,-1.798090e+000
2.835325e+002,-9.865723e-001
2.844968e+002,2.417090e+000
2.854610e+002,6.445788e+000
2.864252e+002,5.328393e+000
2.873895e+002,1.547980e+000
2.883537e+002,-1.133276e+000
2.893179e+002,-3.053772e-001
2.902822e+002,4.348956e+000
2.912464e+002,6.126966e+000
2.922106e+002,4.500763e+000
2.931749e+002,2.105347e+000
2.941391e+002,4.750610e-001
2.951033e+002,-3.234009e-001
2.960676e+002,-5.802795e-001
2.970318e+002,4.632568e-003
2.979960e+002,8.123901e-001
2.989603e+002,1.427387e+000
2.999245e+002,1.637488e+000
3.008887e+002,1.620355e+000
3.018530e+002,1.496625e+000
3.028172e+002,1.311743e+000
3.037814e+002,1.011371e+000
3.047457e+002,5.317383e-001
3.057099e+002,2.244019e-001
3.066741e+002,1.158826e+000
3.076384e+002,3.021777e+000
3.086026e+002,4.805163e+000
3.095668e+002,5.400604e+000
3.105311e+002,4.398694e+000
3.114953e+002,3.540503e+000
3.124595e+002,2.963123e+000
3.134238e+002,2.368298e+000
3.143880e+002,1.264087e+000
3.153522e+002,-1.254413e+000
3.163165e+002,-2.624634e+000
3.172807e+002,-1.948779e+000
3.182449e+002,-1.973145e-001
3.192092e+002,1.552051e+000
3.201734e+002,2.591064e+000
3.211376e+002,3.387219e+000
3.221019e+002,4.561963e+000
3.230661e+002,5.853821e+000
3.240303e+002,6.802875e+000
3.249946e+002,6.792725e+000
3.259588e+002,5.924939e+000
3.269230e+002,5.515778e+000
3.278873e+002,5.577020e+000
3.288515e+002,5.875104e+000
3.298157e+002,5.995111e+000
3.307800e+002,5.636633e+000
3.317442e+002,5.866290e+000
3.327084e+002,6.651978e+000
3.336727e+002,7.912787e+000
3.346369e+002,9.611865e+000
3.356011e+002,1.241177e+001
3.365654e+002,1.476998e+001
3.375296e+002,1.589066e+001
3.384938e+002,1.645350e+001
3.394581e+002,1.753481e+001
3.404223e+002,2.031252e+001
3.413865e+002,2.358913e+001
3.423508e+002,2.582275e+001
3.433150e+002,2.747088e+001
3.442792e+002,2.960221e+001
3.452435e+002,3.395881e+001
3.462077e+002,4.076504e+001
3.471719e+002,4.725826e+001
3.481362e+002,5.243209e+001
3.491004e+002,5.850563e+001
3.500646e+002,7.048496e+001
3.510289e+002,8.974601e+001
3.519931e+002,1.156140e+002
3.529573e+002,1.491304e+002
3.539216e+002,1.887528e+002
3.548858e+002,2.340446e+002
3.558500e+002,3.013813e+002
3.568143e+002,3.494002e+002
3.577785e+002,3.641326e+002
3.587427e+002,3.506435e+002
3.597070e+002,3.175222e+002
3.606712e+002,2.650923e+002
3.616354e+002,2.067180e+002
3.625997e+002,1.581129e+002
3.635639e+002,1.204031e+002
3.645281e+002,9.280413e+001
3.654924e+002,7.384660e+001
3.664566e+002,6.629453e+001
3.674208e+002,5.899699e+001
3.683851e+002,5.158833e+001
3.693493e+002,4.449901e+001
3.703135e+002,3.876284e+001
3.712778e+002,3.564929e+001
3.722420e+002,3.263867e+001
3.732062e+002,2.928005e+001
3.741705e+002,2.594713e+001
3.751347e+002,2.325904e+001
3.760989e+002,2.173264e+001
3.770632e+002,2.076296e+001
3.780274e+002,2.002864e+001
3.789916e+002,1.943372e+001
3.799559e+002,1.889234e+001
3.809201e+002,1.829575e+001
3.818844e+002,1.789334e+001
3.828486e+002,1.815872e+001
3.838128e+002,1.904362e+001
3.847771e+002,2.014540e+001
3.857413e+002,2.086027e+001
3.867055e+002,2.102054e+001
3.876698e+002,2.124319e+001
3.886340e+002,2.075381e+001
3.895982e+002,2.054450e+001
3.905625e+002,2.241851e+001
3.915267e+002,2.918953e+001
3.924909e+002,3.306369e+001
3.934552e+002,3.177316e+001
3.944194e+002,2.780225e+001
3.953836e+002,2.354606e+001
3.963479e+002,2.002040e+001
3.973121e+002,1.768215e+001
3.982763e+002,1.685977e+001
3.992406e+002,1.706379e+001
4.002048e+002,1.752668e+001
4.011690e+002,1.747889e+001
4.021333e+002,1.725822e+001
4.030975e+002,1.916467e+001
4.040617e+002,2.321083e+001
4.050260e+002,2.746646e+001
4.059902e+002,2.975327e+001
4.069544e+002,2.864330e+001
4.079187e+002,2.964390e+001
4.088829e+002,3.307124e+001
4.098471e+002,3.768290e+001
4.108114e+002,4.248508e+001
4.117756e+002,4.707662e+001
4.127398e+002,5.297729e+001
4.137041e+002,6.318687e+001
4.146683e+002,7.311833e+001
4.156325e+002,7.966767e+001
4.165968e+002,8.118060e+001
4.175610e+002,7.847464e+001
4.185252e+002,7.070187e+001
4.194895e+002,6.101266e+001
4.204537e+002,5.354916e+001
4.214179e+002,5.089107e+001
4.223822e+002,5.270327e+001
4.233464e+002,5.270227e+001
4.243106e+002,4.993892e+001
4.252749e+002,4.858610e+001
4.262391e+002,5.050199e+001
4.272033e+002,5.585307e+001
4.281676e+002,6.381041e+001
4.291318e+002,7.459927e+001
4.300960e+002,8.743642e+001
4.310603e+002,1.012494e+002
4.320245e+002,1.161384e+002
4.329887e+002,1.347761e+002
4.339530e+002,1.634255e+002
4.349172e+002,1.942054e+002
4.358814e+002,2.264224e+002
4.368457e+002,2.578749e+002
4.378099e+002,2.848734e+002
4.387741e+002,2.995816e+002
4.397384e+002,3.027339e+002
4.407026e+002,2.955238e+002
4.416668e+002,2.773373e+002
4.426311e+002,2.508951e+002
4.435953e+002,2.252854e+002
4.445595e+002,1.976695e+002
4.455238e+002,1.753274e+002
4.464880e+002,1.601645e+002
4.474522e+002,1.503418e+002
4.484165e+002,1.423099e+002
4.493807e+002,1.369349e+002
4.503449e+002,1.314038e+002
4.513092e+002,1.254788e+002
4.522734e+002,1.185819e+002
4.532376e+002,1.096099e+002
4.542019e+002,9.677992e+001
4.551661e+002,8.351864e+001
4.561303e+002,7.411252e+001
4.570946e+002,6.791531e+001
4.580588e+002,6.352043e+001
4.590230e+002,5.940518e+001
4.599873e+002,5.564365e+001
4.609515e+002,5.189603e+001
4.619157e+002,4.725880e+001
4.628800e+002,4.391481e+001
4.638442e+002,4.427737e+001
4.648084e+002,5.000788e+001
4.657727e+002,5.452601e+001
4.667369e+002,5.684402e+001
4.677011e+002,5.882718e+001
4.686654e+002,6.200846e+001
4.696296e+002,6.689813e+001
4.705938e+002,7.053647e+001
4.715581e+002,7.065763e+001
4.725223e+002,6.877437e+001
4.734865e+002,6.516228e+001
4.744508e+002,6.026201e+001
4.754150e+002,5.485305e+001
4.763792e+002,5.066691e+001
4.773435e+002,4.748363e+001
4.783077e+002,4.537033e+001
4.792719e+002,4.455949e+001
4.802362e+002,4.468143e+001
4.812004e+002,4.352441e+001
4.821646e+002,3.962216e+001
4.831289e+002,3.606777e+001
4.840931e+002,3.307111e+001
4.850573e+002,3.053926e+001
4.860216e+002,2.826218e+001
4.869858e+002,2.666403e+001
4.879500e+002,2.505705e+001
4.889143e+002,2.283867e+001
4.898785e+002,2.047106e+001
4.908427e+002,1.872969e+001
4.918070e+002,1.835106e+001
4.927712e+002,1.874407e+001
4.937354e+002,1.873593e+001
4.946997e+002,1.849799e+001
4.956639e+002,1.836440e+001
4.966281e+002,1.866011e+001
4.975924e+002,1.942579e+001
4.985566e+002,2.116588e+001
4.995208e+002,2.394231e+001
5.004851e+002,2.720447e+001
5.014493e+002,3.081310e+001
5.024135e+002,3.500600e+001
5.033778e+002,3.839519e+001
5.043420e+002,4.074394e+001
5.053063e+002,4.272356e+001
5.062705e+002,4.494776e+001
5.072347e+002,4.732427e+001
5.081990e+002,4.838513e+001
5.091632e+002,4.581777e+001
5.101274e+002,4.181116e+001
5.110917e+002,3.685233e+001
5.120559e+002,3.150726e+001
5.130201e+002,2.663158e+001
5.139844e+002,2.417124e+001
5.149486e+002,2.385238e+001
5.159128e+002,2.238260e+001
5.168771e+002,1.922782e+001
5.178413e+002,1.503085e+001
5.188055e+002,1.108243e+001
5.197698e+002,6.406384e+000
5.207340e+002,3.799371e+000
5.216982e+002,4.746625e+000
5.226625e+002,6.885681e+000
5.236267e+002,7.466516e+000
5.245909e+002,5.125494e+000
5.255552e+002,2.797644e+000
5.265194e+002,1.835907e+000
5.274836e+002,1.700964e+000
5.284479e+002,2.124786e+000
5.294121e+002,2.933887e+000
5.303763e+002,3.876410e+000
5.313406e+002,4.204553e+000
5.323048e+002,4.147064e+000
5.332690e+002,4.220709e+000
5.342333e+002,4.704895e+000
5.351975e+002,5.486981e+000
5.361617e+002,5.569281e+000
5.371260e+002,4.223578e+000
5.380902e+002,3.359741e+000
5.390544e+002,3.459436e+000
5.400187e+002,4.255914e+000
5.409829e+002,4.984656e+000
5.419471e+002,5.685779e+000
5.429114e+002,6.114899e+000
5.438756e+002,6.058527e+000
5.448398e+002,5.703857e+000
5.458041e+002,5.331933e+000
5.467683e+002,5.155505e+000
5.477325e+002,5.060974e+000
5.486968e+002,4.794818e+000
5.496610e+002,4.442084e+000
5.506252e+002,4.226990e+000
5.515895e+002,4.336286e+000
5.525537e+002,4.745868e+000
5.535179e+002,4.411200e+000
5.544822e+002,3.142767e+000
5.554464e+002,2.055231e+000
5.564106e+002,1.892822e+000
5.573749e+002,2.646387e+000
5.583391e+002,2.756696e+000
5.593033e+002,1.338562e+000
5.602676e+002,6.712647e-002
5.612318e+002,-5.984741e-001
5.621960e+002,-7.282898e-001
5.631603e+002,-6.795959e-001
5.641245e+002,-5.430847e-001
5.650887e+002,-5.145447e-001
5.660530e+002,-1.052319e+000
5.670172e+002,-1.844025e+000
5.679814e+002,-2.148230e+000
5.689457e+002,-1.123358e+000
5.699099e+002,1.055902e+000
5.708741e+002,1.975775e+000
5.718384e+002,1.619855e+000
5.728026e+002,7.981750e-001
5.737668e+002,-3.569336e-002
5.747311e+002,-1.037659e+000
5.756953e+002,-1.275226e+000
5.766595e+002,1.702270e-002
5.776238e+002,1.157153e+000
5.785880e+002,1.355261e+000
5.795522e+002,6.661560e-001
5.805165e+002,3.408203e-002
5.814807e+002,3.347107e-001
5.824449e+002,6.895142e-001
5.834092e+002,5.252258e-001
5.843734e+002,-6.848755e-002
5.853376e+002,-7.009888e-001
5.863019e+002,-9.098206e-001
5.872661e+002,-7.247009e-001
5.882303e+002,-5.986206e-001
5.891946e+002,-5.324707e-001
5.901588e+002,-3.440918e-001
5.911230e+002,2.029541e-001
5.920873e+002,1.286969e+000
5.930515e+002,1.943488e+000
5.940157e+002,2.266254e+000
5.949800e+002,2.276532e+000
5.959442e+002,1.741583e+000
5.969084e+002,6.979797e-001
5.978727e+002,-9.088134e-003
5.988369e+002,9.630432e-001
5.998011e+002,1.668915e+000
6.007654e+002,7.900940e-001
6.017296e+002,-1.228912e+000
6.026938e+002,-2.926788e+000
6.036581e+002,-2.625610e+000
6.046223e+002,-7.491577e-001
6.055865e+002,1.309485e+000
6.065508e+002,3.466241e+000
6.075150e+002,4.792139e+000
6.084792e+002,4.081854e+000
6.094435e+002,5.009888e-001
6.104077e+002,-6.187439e-001
6.113719e+002,2.134302e+000
6.123362e+002,4.994519e+000
6.133004e+002,5.813501e+000
6.142646e+002,4.551575e+000
6.152289e+002,3.792810e+000
6.161931e+002,5.639954e+000
6.171573e+002,7.221265e+000
6.181216e+002,7.167890e+000
6.190858e+002,5.933246e+000
6.200500e+002,4.897644e+000
6.210143e+002,5.315515e+000
6.219785e+002,6.868097e+000
6.229427e+002,8.734540e+000
6.239070e+002,1.081356e+001
6.248712e+002,1.281129e+001
6.258354e+002,1.446627e+001
6.267997e+002,1.580948e+001
6.277639e+002,1.714332e+001
6.287281e+002,1.839147e+001
6.296924e+002,1.956419e+001
6.306566e+002,2.112094e+001
6.316208e+002,2.290985e+001
6.325851e+002,2.323403e+001
6.335493e+002,1.965558e+001
6.345135e+002,1.645570e+001
6.354778e+002,1.489958e+001
6.364420e+002,1.461330e+001
6.374063e+002,1.466496e+001
6.383705e+002,1.447495e+001
6.393347e+002,1.394920e+001
6.402990e+002,1.259374e+001
6.412632e+002,1.090548e+001
6.422274e+002,1.024166e+001
6.431917e+002,1.166131e+001
6.441559e+002,1.498784e+001
6.451201e+002,1.589254e+001
6.460844e+002,1.329427e+001
6.470486e+002,1.090735e+001
6.480128e+002,1.002616e+001
6.489771e+002,1.030543e+001
6.499413e+002,1.024971e+001
6.509055e+002,9.356653e+000
6.518698e+002,8.343646e+000
6.528340e+002,6.870715e+000
6.537982e+002,5.618048e+000
6.547625e+002,5.709558e+000
6.557267e+002,7.999969e+000
6.566909e+002,1.051013e+001
6.576552e+002,9.990540e+000
6.586194e+002,7.811353e+000
6.595836e+002,5.777637e+000
6.605479e+002,4.828076e+000
6.615121e+002,4.885938e+000
6.624763e+002,5.618274e+000
6.634406e+002,7.563092e+000
6.644048e+002,8.734418e+000
6.653690e+002,8.222296e+000
6.663333e+002,6.868951e+000
6.672975e+002,6.390973e+000
6.682617e+002,7.543280e+000
6.692260e+002,8.490710e+000
6.701902e+002,8.619043e+000
6.711544e+002,8.523596e+000
6.721187e+002,8.817205e+000
6.730829e+002,9.645886e+000
6.740471e+002,1.023315e+001
6.750114e+002,8.746527e+000
6.759756e+002,6.808502e+000
6.769398e+002,6.140326e+000
6.779041e+002,7.081586e+000
6.788683e+002,9.087506e+000
6.798325e+002,1.126594e+001
6.807968e+002,1.399670e+001
6.817610e+002,1.462367e+001
6.827252e+002,1.140919e+001
6.836895e+002,7.628571e+000
6.846537e+002,6.188086e+000
6.856179e+002,7.444201e+000
6.865822e+002,9.057562e+000
6.875464e+002,1.102835e+001
6.885106e+002,1.269460e+001
6.894749e+002,1.390250e+001
6.904391e+002,1.455117e+001
6.914034e+002,1.438630e+001
6.923676e+002,1.249732e+001
6.933318e+002,1.058014e+001
6.942961e+002,1.119925e+001
6.952603e+002,1.383612e+001
6.962245e+002,1.669293e+001
6.971888e+002,1.812157e+001
6.981530e+002,1.806431e+001
6.991172e+002,1.827697e+001
7.000815e+002,1.871692e+001
7.010457e+002,1.933033e+001
7.020099e+002,2.024675e+001
7.029742e+002,2.142221e+001
7.039384e+002,2.251377e+001
7.049026e+002,2.339600e+001
7.058669e+002,2.416397e+001
7.068311e+002,2.486651e+001
7.077953e+002,2.544463e+001
7.087596e+002,2.583757e+001
7.097238e+002,2.603911e+001
7.106880e+002,2.611472e+001
7.116523e+002,2.598285e+001
7.126165e+002,2.572878e+001
7.135807e+002,2.563913e+001
7.145450e+002,2.582987e+001
7.155092e+002,2.604484e+001
7.164734e+002,2.551121e+001
7.174377e+002,2.354230e+001
7.184019e+002,2.231184e+001
7.193661e+002,2.216580e+001
7.203304e+002,2.244291e+001
7.212946e+002,2.258143e+001
7.222589e+002,2.262298e+001
7.232231e+002,2.228380e+001
7.241873e+002,2.139920e+001
7.251516e+002,2.021036e+001
7.261158e+002,1.832277e+001
7.270800e+002,1.606267e+001
7.280443e+002,1.452979e+001
7.290085e+002,1.529014e+001
7.299727e+002,1.719685e+001
7.309370e+002,1.764214e+001
7.319012e+002,1.677432e+001
7.328654e+002,1.571289e+001
7.338297e+002,1.548958e+001
7.347939e+002,1.615714e+001
7.357581e+002,1.618951e+001
7.367224e+002,1.502568e+001
7.376866e+002,1.404988e+001
7.386508e+002,1.355415e+001
7.396151e+002,1.351059e+001
7.405793e+002,1.390907e+001
7.415435e+002,1.516935e+001
7.425078e+002,1.621142e+001
7.434720e+002,1.627090e+001
7.444362e+002,1.599371e+001
7.454005e+002,1.606315e+001
7.463647e+002,1.679570e+001
7.473289e+002,1.790581e+001
7.482932e+002,1.920468e+001
7.492574e+002,2.048214e+001
7.502216e+002,2.083271e+001
7.511859e+002,1.993153e+001
7.521501e+002,1.852057e+001
7.531143e+002,1.806928e+001
7.540786e+002,1.944197e+001
7.550428e+002,1.974895e+001
7.560070e+002,1.802094e+001
7.569713e+002,1.636647e+001
7.579355e+002,1.610132e+001
7.588997e+002,1.724630e+001
7.598640e+002,1.865511e+001
7.608282e+002,2.026323e+001
7.617924e+002,2.146117e+001
7.627567e+002,2.167636e+001
7.637209e+002,2.124154e+001
7.646851e+002,2.074739e+001
7.656494e+002,2.066185e+001
7.666136e+002,2.094575e+001
7.675778e+002,2.163886e+001
7.685421e+002,2.268706e+001
7.695063e+002,2.346732e+001
7.704705e+002,2.366978e+001
7.714348e+002,2.340590e+001
7.723990e+002,2.306877e+001
7.733632e+002,2.210216e+001
7.743275e+002,2.196398e+001
7.752917e+002,2.341853e+001
7.762559e+002,2.526866e+001
7.772202e+002,2.634952e+001
7.781844e+002,2.635665e+001
7.791486e+002,2.634568e+001
7.801129e+002,2.770049e+001
7.810771e+002,2.910210e+001
7.820413e+002,2.939836e+001
7.830056e+002,2.874685e+001
7.839698e+002,2.819914e+001
7.849340e+002,2.898082e+001
7.858983e+002,3.101960e+001
7.868625e+002,3.210080e+001
7.878267e+002,3.183054e+001
7.887910e+002,3.199412e+001
7.897552e+002,3.420390e+001
7.907194e+002,3.807262e+001
7.916837e+002,4.021651e+001
7.926479e+002,3.875237e+001
7.936121e+002,3.744556e+001
7.945764e+002,3.690705e+001
7.955406e+002,3.691483e+001
7.965048e+002,3.716391e+001
7.974691e+002,3.757113e+001
7.984333e+002,3.840412e+001
7.993975e+002,4.025027e+001
8.003618e+002,4.250725e+001
8.013260e+002,4.464517e+001
8.022902e+002,4.654437e+001
8.032545e+002,4.823862e+001
8.042187e+002,4.976113e+001
8.051829e+002,5.094401e+001
8.061472e+002,5.344031e+001
8.071114e+002,5.796933e+001
8.080756e+002,6.260474e+001
8.090399e+002,6.636266e+001
8.100041e+002,6.939934e+001
8.109683e+002,7.266679e+001
8.119326e+002,7.633406e+001
8.128968e+002,8.035136e+001
8.138610e+002,8.466118e+001
8.148253e+002,8.927563e+001
8.157895e+002,9.410146e+001
8.167537e+002,9.914345e+001
8.177180e+002,1.045738e+002
8.186822e+002,1.114616e+002
8.196464e+002,1.189849e+002
8.206107e+002,1.252922e+002
8.215749e+002,1.299120e+002
8.225391e+002,1.329851e+002
8.235034e+002,1.346738e+002
8.244676e+002,1.346549e+002
8.254318e+002,1.339237e+002
8.263961e+002,1.333811e+002
8.273603e+002,1.317574e+002
8.283245e+002,1.281551e+002
8.292888e+002,1.227841e+002
8.302530e+002,1.165241e+002
8.312172e+002,1.088010e+002
8.321815e+002,1.020204e+002
8.331457e+002,9.827540e+001
8.341099e+002,9.622701e+001
8.350742e+002,9.397866e+001
8.360384e+002,9.061234e+001
8.370026e+002,8.691515e+001
8.379669e+002,8.495323e+001
8.389311e+002,8.478347e+001
8.398953e+002,8.284885e+001
8.408596e+002,7.800201e+001
8.418238e+002,7.236299e+001
8.427880e+002,6.847549e+001
8.437523e+002,6.666447e+001
8.447165e+002,6.503123e+001
8.456807e+002,6.355236e+001
8.466450e+002,6.200990e+001
8.476092e+002,6.011149e+001
8.485734e+002,5.803694e+001
8.495377e+002,5.631855e+001
8.505019e+002,5.542610e+001
8.514661e+002,5.461122e+001
8.524304e+002,5.251240e+001
8.533946e+002,4.987782e+001
8.543588e+002,4.802939e+001
8.553231e+002,4.743072e+001
8.562873e+002,4.734728e+001
8.572515e+002,4.608919e+001
8.582158e+002,4.271869e+001
8.591800e+002,4.131123e+001
8.601442e+002,4.309370e+001
8.611085e+002,4.532278e+001
8.620727e+002,4.616191e+001
8.630369e+002,4.572263e+001
8.640012e+002,4.566233e+001
8.649654e+002,4.723489e+001
8.659296e+002,4.833588e+001
8.668939e+002,4.741370e+001
8.678581e+002,4.570522e+001
8.688223e+002,4.510012e+001
8.697866e+002,4.649464e+001
8.707508e+002,4.865423e+001
8.717150e+002,4.891257e+001
8.726793e+002,4.764684e+001
8.736435e+002,4.663834e+001
8.746077e+002,4.621193e+001
8.755720e+002,4.600780e+001
8.765362e+002,4.565400e+001
8.775004e+002,4.524781e+001
8.784647e+002,4.425512e+001
8.794289e+002,4.186975e+001
8.803931e+002,3.980843e+001
8.813574e+002,3.878294e+001
8.823216e+002,3.843230e+001
8.832858e+002,3.811015e+001
8.842501e+002,3.770202e+001
8.852143e+002,3.680202e+001
8.861785e+002,3.421912e+001
8.871428e+002,3.119304e+001
8.881070e+002,2.927311e+001
8.890712e+002,2.886102e+001
8.900355e+002,2.925594e+001
8.909997e+002,2.935998e+001
8.919639e+002,2.912307e+001
8.929282e+002,2.917895e+001
8.938924e+002,3.006405e+001
8.948566e+002,3.051043e+001
8.958209e+002,2.956845e+001
8.967851e+002,2.760034e+001
8.977493e+002,2.617206e+001
8.987136e+002,2.592646e+001
8.996778e+002,2.562934e+001
9.006420e+002,2.486106e+001
9.016063e+002,2.384259e+001
9.025705e+002,2.274063e+001
9.035347e+002,2.165170e+001
9.044990e+002,2.059484e+001
9.054632e+002,1.944637e+001
9.064274e+002,1.837807e+001
9.073917e+002,1.829243e+001
9.083559e+002,1.929416e+001
9.093201e+002,1.996715e+001
9.102844e+002,1.908450e+001
9.112486e+002,1.672772e+001
9.122128e+002,1.461452e+001
9.131771e+002,1.251967e+001
9.141413e+002,1.107643e+001
9.151055e+002,1.046631e+001
9.160698e+002,1.045180e+001
9.170340e+002,1.104320e+001
9.179982e+002,1.216075e+001
9.189625e+002,1.296426e+001
9.199267e+002,1.254793e+001
9.208909e+002,1.164778e+001
9.218552e+002,1.080761e+001
9.228194e+002,1.014278e+001
9.237836e+002,9.735446e+000
9.247479e+002,9.650827e+000
9.257121e+002,9.885260e+000
9.266763e+002,1.046751e+001
9.276406e+002,1.182572e+001
9.286048e+002,1.250764e+001
9.295690e+002,1.210795e+001
9.305333e+002,1.114824e+001
9.314975e+002,9.990689e+000
9.324617e+002,8.584979e+000
9.334260e+002,7.764502e+000
9.343902e+002,8.757553e+000
9.353545e+002,9.652695e+000
9.363187e+002,9.371060e+000
9.372830e+002,8.402639e+000
9.382472e+002,7.810172e+000
9.392114e+002,8.265027e+000
9.401757e+002,9.304034e+000
9.411399e+002,9.734121e+000
9.421041e+002,9.629028e+000
9.430684e+002,9.682223e+000
9.440326e+002,1.006277e+001
9.449968e+002,1.045800e+001
9.459611e+002,1.048630e+001
9.469253e+002,1.013458e+001
9.478895e+002,9.867792e+000
9.488538e+002,9.457941e+000
9.498180e+002,9.384211e+000
9.507822e+002,9.937866e+000
9.517465e+002,1.082514e+001
9.527107e+002,1.170515e+001
9.536749e+002,1.246612e+001
9.546392e+002,1.306429e+001
9.556034e+002,1.328724e+001
9.565676e+002,1.331194e+001
9.575319e+002,1.318180e+001
9.584961e+002,1.302436e+001
9.594603e+002,1.342467e+001
9.604246e+002,1.503343e+001
9.613888e+002,1.783821e+001
9.623530e+002,2.012912e+001
9.633173e+002,2.117059e+001
9.642815e+002,2.267878e+001
9.652457e+002,2.452765e+001
9.662100e+002,2.723619e+001
9.671742e+002,3.100016e+001
9.681384e+002,3.575359e+001
9.691027e+002,4.290911e+001
9.700669e+002,5.404881e+001
9.710311e+002,6.768480e+001
9.719954e+002,8.729425e+001
9.729596e+002,1.085446e+002
9.739238e+002,1.223387e+002
9.748881e+002,1.225441e+002
9.758523e+002,1.121700e+002
9.768165e+002,1.004897e+002
9.777808e+002,8.706235e+001
9.787450e+002,7.496358e+001
9.797092e+002,6.435320e+001
9.806735e+002,5.531762e+001
9.816377e+002,4.791523e+001
9.826019e+002,4.216768e+001
9.835662e+002,3.829034e+001
9.845304e+002,3.788812e+001
9.854946e+002,3.776861e+001
9.864589e+002,3.687624e+001
9.874231e+002,3.563259e+001
9.883873e+002,3.438174e+001
9.893516e+002,3.334140e+001
9.903158e+002,3.295821e+001
9.912800e+002,3.402816e+001
9.922443e+002,3.651719e+001
9.932085e+002,3.917434e+001
9.941727e+002,4.191126e+001
9.951370e+002,4.576611e+001
9.961012e+002,5.135598e+001
9.970654e+002,5.848882e+001
9.980297e+002,6.646069e+001
9.989939e+002,7.157033e+001
9.999581e+002,8.476249e+001
1.000922e+003,1.011080e+002
1.001887e+003,1.300321e+002
1.002851e+003,1.837015e+002
1.003815e+003,2.587990e+002
1.004779e+003,3.411999e+002
1.005744e+003,4.335438e+002
1.006708e+003,5.034678e+002
1.007672e+003,5.001231e+002
1.008636e+003,4.436818e+002
1.009600e+003,3.723574e+002
1.010565e+003,3.019957e+002
1.011529e+003,2.362534e+002
1.012493e+003,1.835758e+002
1.013457e+003,1.463431e+002
1.014422e+003,1.172923e+002
1.015386e+003,9.776436e+001
1.016350e+003,8.241054e+001
1.017314e+003,7.002885e+001
1.018279e+003,6.003872e+001
1.019243e+003,5.186403e+001
1.020207e+003,4.546964e+001
1.021171e+003,4.040360e+001
1.022135e+003,3.683404e+001
1.023100e+003,3.405447e+001
1.024064e+003,3.154627e+001
1.025028e+003,2.920604e+001
1.025992e+003,2.722120e+001
1.026957e+003,2.577246e+001
1.027921e+003,2.482989e+001
1.028885e+003,2.394736e+001
1.029849e+003,2.322682e+001
1.030814e+003,2.232321e+001
1.031778e+003,2.087963e+001
1.032742e+003,1.935368e+001
1.033706e+003,1.810082e+001
1.034671e+003,1.720926e+001
1.035635e+003,1.702775e+001
1.036599e+003,1.858928e+001
1.037563e+003,1.971893e+001
1.038527e+003,1.877464e+001
1.039492e+003,1.692150e+001
1.040456e+003,1.575073e+001
1.041420e+003,1.581653e+001
1.042384e+003,1.625580e+001
1.043349e+003,1.571508e+001
1.044313e+003,1.425348e+001
1.045277e+003,1.430731e+001
1.046241e+003,1.648586e+001
1.047206e+003,1.820588e+001
1.048170e+003,1.772690e+001
1.049134e+003,1.602449e+001
1.050098e+003,1.567026e+001
1.051063e+003,1.748233e+001
1.052027e+003,1.876178e+001
1.052991e+003,1.801917e+001
1.053955e+003,1.700697e+001
1.054919e+003,1.674073e+001
1.055884e+003,1.701532e+001
1.056848e+003,1.713550e+001
1.057812e+003,1.670384e+001
1.058776e+003,1.598385e+001
1.059741e+003,1.534208e+001
1.060705e+003,1.476629e+001
1.061669e+003,1.452397e+001
1.062633e+003,1.472487e+001
1.063598e+003,1.497451e+001
1.064562e+003,1.503530e+001
1.065526e+003,1.493547e+001
1.066490e+003,1.442836e+001
1.067454e+003,1.258228e+001
1.068419e+003,1.184280e+001
1.069383e+003,1.366598e+001
1.070347e+003,1.586818e+001
1.071311e+003,1.644534e+001
1.072276e+003,1.552600e+001
1.073240e+003,1.506789e+001
1.074204e+003,1.676107e+001
1.075168e+003,1.926081e+001
1.076133e+003,1.925121e+001
1.077097e+003,1.735832e+001
1.078061e+003,1.543184e+001
1.079025e+003,1.384756e+001
1.079990e+003,1.294671e+001
1.080954e+003,1.357142e+001
1.081918e+003,1.611207e+001
1.082882e+003,1.746632e+001
1.083846e+003,1.600625e+001
1.084811e+003,1.504702e+001
1.085775e+003,1.580747e+001
1.086739e+003,1.702444e+001
1.087703e+003,1.711669e+001
1.088668e+003,1.591612e+001
1.089632e+003,1.504728e+001
1.090596e+003,1.618776e+001
1.091560e+003,1.804416e+001
1.092525e+003,1.772013e+001
1.093489e+003,1.577913e+001
1.094453e+003,1.462771e+001
1.095417e+003,1.544360e+001
1.096381e+003,1.734948e+001
1.097346e+003,1.857621e+001
1.098310e+003,1.889258e+001
1.099274e+003,1.934977e+001
1.100238e+003,2.088130e+001
1.101203e+003,2.148245e+001
1.102167e+003,1.984569e+001
1.103131e+003,1.721886e+001
1.104095e+003,1.509624e+001
1.105060e+003,1.392544e+001
1.106024e+003,1.353897e+001
1.106988e+003,1.402873e+001
1.107952e+003,1.515864e+001
1.108917e+003,1.672627e+001
1.109881e+003,1.850463e+001
1.110845e+003,1.964346e+001
1.111809e+003,1.963335e+001
1.112773e+003,1.888335e+001
1.113738e+003,1.835197e+001
1.114702e+003,1.810800e+001
1.115666e+003,1.808134e+001
1.116630e+003,1.828132e+001
1.117595e+003,1.855822e+001
1.118559e+003,1.898522e+001
1.119523e+003,1.941293e+001
1.120487e+003,1.958464e+001
1.121452e+003,1.944841e+001
1.122416e+003,1.936044e+001
1.123380e+003,1.967564e+001
1.124344e+003,2.010221e+001
1.125308e+003,2.027062e+001
1.126273e+003,2.025160e+001
1.127237e+003,2.026255e+001
1.128201e+003,2.041480e+001
1.129165e+003,2.066002e+001
1.130130e+003,2.088432e+001
1.131094e+003,2.104376e+001
1.132058e+003,2.117483e+001
1.133022e+003,2.174827e+001
1.133987e+003,2.176794e+001
1.134951e+003,2.034035e+001
1.135915e+003,1.847771e+001
1.136879e+003,1.776661e+001
1.137844e+003,1.856509e+001
1.138808e+003,1.935806e+001
1.139772e+003,1.842664e+001
1.140736e+003,1.725425e+001
1.141700e+003,1.809100e+001
1.142665e+003,2.049112e+001
1.143629e+003,2.302167e+001
1.144593e+003,2.503122e+001
1.145557e+003,2.649328e+001
1.146522e+003,2.729307e+001
1.147486e+003,2.726870e+001
1.148450e+003,2.683958e+001
1.149414e+003,2.550781e+001
1.150379e+003,2.458887e+001
1.151343e+003,2.505957e+001
1.152307e+003,2.576739e+001
1.153271e+003,2.477415e+001
1.154235e+003,2.193752e+001
1.155200e+003,1.995395e+001
1.156164e+003,2.102224e+001
1.157128e+003,2.384597e+001
1.158092e+003,2.725797e+001
1.159057e+003,3.057250e+001
1.160021e+003,3.159595e+001
1.160985e+003,2.941948e+001
1.161949e+003,2.631269e+001
1.162914e+003,2.585772e+001
1.163878e+003,2.847706e+001
1.164842e+003,2.986148e+001
1.165806e+003,2.851200e+001
1.166771e+003,2.773193e+001
1.167735e+003,2.812047e+001
1.168699e+003,2.909941e+001
1.169663e+003,3.021684e+001
1.170627e+003,3.137900e+001
1.171592e+003,3.271059e+001
1.172556e+003,3.441239e+001
1.173520e+003,3.602174e+001
1.174484e+003,3.663771e+001
1.175449e+003,3.666069e+001
1.176413e+003,3.663711e+001
1.177377e+003,3.667717e+001
1.178341e+003,3.744865e+001
1.179306e+003,4.004967e+001
1.180270e+003,4.422120e+001
1.181234e+003,4.640968e+001
1.182198e+003,4.520890e+001
1.183162e+003,4.429174e+001
1.184127e+003,4.419578e+001
1.185091e+003,4.426036e+001
1.186055e+003,4.407419e+001
1.187019e+003,4.378330e+001
1.187984e+003,4.400671e+001
1.188948e+003,4.502346e+001
1.189912e+003,4.553587e+001
1.190876e+003,4.332684e+001
1.191841e+003,3.964441e+001
1.192805e+003,3.769806e+001
1.193769e+003,3.764405e+001
1.194733e+003,3.781665e+001
1.195698e+003,3.708817e+001
1.196662e+003,3.593313e+001
1.197626e+003,3.578024e+001
1.198590e+003,3.710546e+001
1.199554e+003,3.762130e+001
1.200519e+003,3.635778e+001
1.201483e+003,3.517308e+001
1.202447e+003,3.467710e+001
1.203411e+003,3.457223e+001
1.204376e+003,3.468856e+001
1.205340e+003,3.474229e+001
1.206304e+003,3.382597e+001
1.207268e+003,3.088667e+001
1.208233e+003,2.714425e+001
1.209197e+003,2.619235e+001
1.210161e+003,2.762821e+001
1.211125e+003,2.960324e+001
1.212089e+003,3.210769e+001
1.213054e+003,3.402482e+001
1.214018e+003,3.363738e+001
1.214982e+003,3.125284e+001
1.215946e+003,3.032839e+001
1.216911e+003,3.209161e+001
1.217875e+003,3.356845e+001
1.218839e+003,3.342735e+001
1.219803e+003,3.303035e+001
1.220768e+003,3.364062e+001
1.221732e+003,3.496392e+001
1.222696e+003,3.593048e+001
1.223660e+003,3.590688e+001
1.224625e+003,3.508766e+001
1.225589e+003,3.360675e+001
1.226553e+003,3.146495e+001
1.227517e+003,3.099516e+001
1.228481e+003,3.280784e+001
1.229446e+003,3.475144e+001
1.230410e+003,3.624885e+001
1.231374e+003,3.709611e+001
1.232338e+003,3.672411e+001
1.233303e+003,3.505538e+001
1.234267e+003,3.358849e+001
1.235231e+003,3.268579e+001
1.236195e+003,3.226668e+001
1.237160e+003,3.245231e+001
1.238124e+003,3.289897e+001
1.239088e+003,3.328105e+001
1.240052e+003,3.351173e+001
1.241016e+003,3.359278e+001
1.241981e+003,3.350287e+001
1.242945e+003,3.336564e+001
1.243909e+003,3.380331e+001
1.244873e+003,3.535263e+001
1.245838e+003,3.620454e+001
1.246802e+003,3.571293e+001
1.247766e+003,3.519449e+001
1.248730e+003,3.539226e+001
1.249695e+003,3.609975e+001
1.250659e+003,3.686258e+001
1.251623e+003,3.759357e+001
1.252587e+003,3.826177e+001
1.253552e+003,3.887736e+001
1.254516e+003,3.934105e+001
1.255480e+003,3.955883e+001
1.256444e+003,3.957446e+001
1.257408e+003,3.950005e+001
1.258373e+003,3.938654e+001
1.259337e+003,3.917280e+001
1.260301e+003,3.877098e+001
1.261265e+003,3.820701e+001
1.262230e+003,3.762577e+001
1.263194e+003,3.664936e+001
1.264158e+003,3.603357e+001
1.265122e+003,3.583536e+001
1.266087e+003,3.602102e+001
1.267051e+003,3.685729e+001
1.268015e+003,3.805287e+001
1.268979e+003,3.894175e+001
1.269943e+003,3.923936e+001
1.270908e+003,3.923195e+001
1.271872e+003,3.897258e+001
1.272836e+003,3.880462e+001
1.273800e+003,3.976874e+001
1.274765e+003,4.174577e+001
1.275729e+003,4.304048e+001
1.276693e+003,4.271541e+001
1.277657e+003,4.160241e+001
1.278622e+003,4.079440e+001
1.279586e+003,4.025390e+001
1.280550e+003,4.032861e+001
1.281514e+003,4.158410e+001
1.282479e+003,4.283631e+001
1.283443e+003,4.400569e+001
1.284407e+003,4.481202e+001
1.285371e+003,4.486800e+001
1.286335e+003,4.433345e+001
1.287300e+003,4.360583e+001
1.288264e+003,4.295958e+001
1.289228e+003,4.267723e+001
1.290192e+003,4.326252e+001
1.291157e+003,4.463484e+001
1.292121e+003,4.509643e+001
1.293085e+003,4.429175e+001
1.294049e+003,4.354447e+001
1.295014e+003,4.349364e+001
1.295978e+003,4.370301e+001
1.296942e+003,4.342650e+001
1.297906e+003,4.278430e+001
1.298870e+003,4.307942e+001
1.299835e+003,4.511759e+001
1.300799e+003,4.697543e+001
1.301763e+003,4.715769e+001
1.302727e+003,4.676638e+001
1.303692e+003,4.700094e+001
1.304656e+003,4.773031e+001
1.305620e+003,4.779002e+001
1.306584e+003,4.650330e+001
1.307549e+003,4.485804e+001
1.308513e+003,4.484396e+001
1.309477e+003,4.670860e+001
1.310441e+003,4.805762e+001
1.311406e+003,4.866647e+001
1.312370e+003,4.919347e+001
1.313334e+003,5.005619e+001
1.314298e+003,5.060596e+001
1.315263e+003,4.982742e+001
1.316227e+003,4.822770e+001
1.317191e+003,4.757075e+001
1.318155e+003,4.864505e+001
1.319120e+003,5.020417e+001
1.320084e+003,5.102284e+001
1.321048e+003,5.127268e+001
1.322012e+003,5.144373e+001
1.322976e+003,5.152696e+001
1.323941e+003,5.126124e+001
1.324905e+003,5.037702e+001
1.325869e+003,4.951115e+001
1.326833e+003,4.976517e+001
1.327798e+003,5.110531e+001
1.328762e+003,5.171422e+001
1.329726e+003,5.088885e+001
1.330690e+003,5.031650e+001
1.331655e+003,5.045490e+001
1.332619e+003,5.098645e+001
1.333583e+003,5.200936e+001
1.334547e+003,5.316283e+001
1.335511e+003,5.388477e+001
1.336476e+003,5.394004e+001
1.337440e+003,5.354812e+001
1.338404e+003,5.294714e+001
1.339368e+003,5.224299e+001
1.340333e+003,5.219804e+001
1.341297e+003,5.312711e+001
1.342261e+003,5.356147e+001
1.343225e+003,5.288427e+001
1.344190e+003,5.217955e+001
1.345154e+003,5.237212e+001
1.346118e+003,5.306863e+001
1.347082e+003,5.324979e+001
1.348047e+003,5.266039e+001
1.349011e+003,5.186566e+001
1.349975e+003,5.087733e+001
1.350939e+003,5.031167e+001
1.351903e+003,5.121001e+001
1.352868e+003,5.280652e+001
1.353832e+003,5.330471e+001
1.354796e+003,5.229522e+001
1.355760e+003,5.131547e+001
1.356725e+003,5.189283e+001
1.357689e+003,5.366299e+001
1.358653e+003,5.496183e+001
1.359617e+003,5.563869e+001
1.360582e+003,5.626472e+001
1.361546e+003,5.735735e+001
1.362510e+003,5.779316e+001
1.363474e+003,5.681836e+001
1.364438e+003,5.537599e+001
1.365403e+003,5.421450e+001
1.366367e+003,5.352343e+001
1.367331e+003,5.341180e+001
1.368295e+003,5.397820e+001
1.369260e+003,5.461607e+001
1.370224e+003,5.413142e+001
1.371188e+003,5.265583e+001
1.372152e+003,5.246266e+001
1.373117e+003,5.402055e+001
1.374081e+003,5.516744e+001
1.375045e+003,5.481721e+001
1.376009e+003,5.399274e+001
1.376974e+003,5.387510e+001
1.377938e+003,5.441041e+001
1.378902e+003,5.476377e+001
1.379866e+003,5.450482e+001
1.380830e+003,5.461423e+001
1.381795e+003,5.660906e+001
1.382759e+003,5.865360e+001
1.383723e+003,5.868314e+001
1.384687e+003,5.740462e+001
1.385652e+003,5.704163e+001
1.386616e+003,5.841187e+001
1.387580e+003,5.999178e+001
1.388544e+003,5.977639e+001
1.389509e+003,5.800716e+001
1.390473e+003,5.742114e+001
1.391437e+003,5.878441e+001
1.392401e+003,5.983488e+001
1.393365e+003,6.011353e+001
1.394330e+003,6.030086e+001
1.395294e+003,6.095550e+001
1.396258e+003,6.143511e+001
1.397222e+003,6.047472e+001
1.398187e+003,5.849250e+001
1.399151e+003,5.782421e+001
1.400115e+003,6.007565e+001
1.401079e+003,6.335482e+001
1.402044e+003,6.408778e+001
1.403008e+003,6.221705e+001
1.403972e+003,6.119934e+001
1.404936e+003,6.127852e+001
1.405901e+003,6.168255e+001
1.406865e+003,6.219064e+001
1.407829e+003,6.283467e+001
1.408793e+003,6.379006e+001
1.409757e+003,6.497962e+001
1.410722e+003,6.599059e+001
1.411686e+003,6.668600e+001
1.412650e+003,6.696049e+001
1.413614e+003,6.691970e+001
1.414579e+003,6.635718e+001
1.415543e+003,6.423741e+001
1.416507e+003,6.154056e+001
1.417471e+003,6.109666e+001
1.418436e+003,6.371696e+001
1.419400e+003,6.663470e+001
1.420364e+003,6.689774e+001
1.421328e+003,6.543576e+001
1.422292e+003,6.625319e+001
1.423257e+003,7.019555e+001
1.424221e+003,7.305637e+001
1.425185e+003,7.424448e+001
1.426149e+003,7.407599e+001
1.427114e+003,7.138177e+001
1.428078e+003,6.852799e+001
1.429042e+003,6.796498e+001
1.430006e+003,6.920100e+001
1.430971e+003,6.978542e+001
1.431935e+003,6.857082e+001
1.432899e+003,6.764172e+001
1.433863e+003,7.028513e+001
1.434828e+003,7.604762e+001
1.435792e+003,7.806061e+001
1.436756e+003,7.355227e+001
1.437720e+003,7.079081e+001
1.438684e+003,7.159444e+001
1.439649e+003,7.294820e+001
1.440613e+003,7.313053e+001
1.441577e+003,7.273191e+001
1.442541e+003,7.285537e+001
1.443506e+003,7.359370e+001
1.444470e+003,7.425508e+001
1.445434e+003,7.447952e+001
1.446398e+003,7.464864e+001
1.447363e+003,7.542627e+001
1.448327e+003,7.640688e+001
1.449291e+003,7.627818e+001
1.450255e+003,7.492079e+001
1.451219e+003,7.453569e+001
1.452184e+003,7.681924e+001
1.453148e+003,7.975391e+001
1.454112e+003,8.056330e+001
1.455076e+003,7.961445e+001
1.456041e+003,7.928169e+001
1.457005e+003,8.000254e+001
1.457969e+003,8.099855e+001
1.458933e+003,8.195370e+001
1.459898e+003,8.306268e+001
1.460862e+003,8.490297e+001
1.461826e+003,8.670403e+001
1.462790e+003,8.737770e+001
1.463755e+003,8.674763e+001
1.464719e+003,8.509740e+001
1.465683e+003,8.251438e+001
1.466647e+003,8.011514e+001
1.467611e+003,8.091575e+001
1.468576e+003,8.572657e+001
1.469540e+003,8.745211e+001
1.470504e+003,8.341290e+001
1.471468e+003,8.039844e+001
1.472433e+003,7.943004e+001
1.473397e+003,7.954620e+001
1.474361e+003,8.095939e+001
1.475325e+003,8.269809e+001
1.476290e+003,8.320323e+001
1.477254e+003,8.226047e+001
1.478218e+003,8.121084e+001
1.479182e+003,8.115263e+001
1.480146e+003,8.180788e+001
1.481111e+003,8.253593e+001
1.482075e+003,8.333785e+001
1.483039e+003,8.368306e+001
1.484003e+003,8.303543e+001
1.484968e+003,8.283569e+001
1.485932e+003,8.447929e+001
1.486896e+003,8.582626e+001
1.487860e+003,8.414483e+001
1.488825e+003,8.080674e+001
1.489789e+003,7.967381e+001
1.490753e+003,8.162925e+001
1.491717e+003,8.358018e+001
1.492682e+003,8.340215e+001
1.493646e+003,8.218738e+001
1.494610e+003,8.168024e+001
1.495574e+003,8.161787e+001
1.496538e+003,8.120827e+001
1.497503e+003,8.037998e+001
1.498467e+003,7.935454e+001
1.499431e+003,7.750481e+001
1.500395e+003,7.602455e+001
1.501360e+003,7.715822e+001
1.502324e+003,8.024992e+001
1.503288e+003,8.155891e+001
1.504252e+003,8.002092e+001
1.505217e+003,7.893486e+001
1.506181e+003,8.076208e+001
1.507145e+003,8.253666e+001
1.508109e+003,8.092635e+001
1.509073e+003,7.811584e+001
1.510038e+003,7.812010e+001
1.511002e+003,8.110545e+001
1.511966e+003,8.330355e+001
1.512930e+003,8.220851e+001
1.513895e+003,7.994221e+001
1.514859e+003,8.045439e+001
1.515823e+003,8.362240e+001
1.516787e+003,8.484442e+001
1.517752e+003,8.323508e+001
1.518716e+003,8.200726e+001
1.519680e+003,8.212515e+001
1.520644e+003,8.240999e+001
1.521609e+003,8.294862e+001
1.522573e+003,8.299369e+001
1.523537e+003,8.135252e+001
1.524501e+003,7.843592e+001
1.525465e+003,7.573650e+001
1.526430e+003,7.412299e+001
1.527394e+003,7.366171e+001
1.528358e+003,7.470119e+001
1.529322e+003,7.711420e+001
1.530287e+003,7.796588e+001
1.531251e+003,7.605359e+001
1.532215e+003,7.503015e+001
1.533179e+003,7.562212e+001
1.534144e+003,7.614691e+001
1.535108e+003,7.601714e+001
1.536072e+003,7.543233e+001
1.537036e+003,7.417297e+001
1.538000e+003,7.277646e+001
1.538965e+003,7.275719e+001
1.539929e+003,7.462593e+001
1.540893e+003,7.663330e+001
1.541857e+003,7.687130e+001
1.542822e+003,7.559953e+001
1.543786e+003,7.344378e+001
1.544750e+003,6.945876e+001
1.545714e+003,6.783537e+001
1.546679e+003,7.059143e+001
1.547643e+003,7.280225e+001
1.548607e+003,7.261674e+001
1.549571e+003,7.154288e+001
1.550536e+003,7.072696e+001
1.551500e+003,7.024673e+001
1.552464e+003,6.999708e+001
1.553428e+003,7.000275e+001
1.554392e+003,7.039436e+001
1.555357e+003,7.134430e+001
1.556321e+003,7.226037e+001
1.557285e+003,7.188880e+001
1.558249e+003,7.034728e+001
1.559214e+003,6.940189e+001
1.560178e+003,6.930064e+001
1.561142e+003,6.922581e+001
1.562106e+003,6.899409e+001
1.563071e+003,6.845095e+001
1.564035e+003,6.727299e+001
1.564999e+003,6.586699e+001
1.565963e+003,6.515360e+001
1.566927e+003,6.521020e+001
1.567892e+003,6.504926e+001
1.568856e+003,6.406960e+001
1.569820e+003,6.307751e+001
1.570784e+003,6.324142e+001
1.571749e+003,6.396558e+001
1.572713e+003,6.358641e+001
1.573677e+003,6.217530e+001
1.574641e+003,6.168528e+001
1.575606e+003,6.330829e+001
1.576570e+003,6.467831e+001
1.577534e+003,6.354193e+001
1.578498e+003,6.113633e+001
1.579463e+003,5.971067e+001
1.580427e+003,5.931005e+001
1.581391e+003,5.919724e+001
1.582355e+003,5.926937e+001
1.583319e+003,5.927115e+001
1.584284e+003,5.912075e+001
1.585248e+003,5.881403e+001
1.586212e+003,5.803433e+001
1.587176e+003,5.696575e+001
1.588141e+003,5.644066e+001
1.589105e+003,5.669570e+001
1.590069e+003,5.684469e+001
1.591033e+003,5.616829e+001
1.591998e+003,5.519990e+001
1.592962e+003,5.491804e+001
1.593926e+003,5.509375e+001
1.594890e+003,5.440936e+001
1.595854e+003,5.263474e+001
1.596819e+003,5.084699e+001
1.597783e+003,4.899266e+001
1.598747e+003,4.781507e+001
1.599711e+003,4.853167e+001
1.600676e+003,4.976585e+001
1.601640e+003,4.969057e+001
1.602604e+003,4.854343e+001
1.603568e+003,4.797291e+001
1.604533e+003,4.863741e+001
1.605497e+003,4.930174e+001
1.606461e+003,4.886993e+001
1.607425e+003,4.749114e+001
1.608390e+003,4.517747e+001
1.609354e+003,4.192054e+001
1.610318e+003,4.009069e+001
1.611282e+003,4.044289e+001
1.612246e+003,4.097358e+001
1.613211e+003,4.060987e+001
1.614175e+003,4.028439e+001
1.615139e+003,4.095900e+001
1.616103e+003,4.204112e+001
1.617068e+003,4.254793e+001
1.618032e+003,4.232674e+001
1.618996e+003,4.175490e+001
1.619960e+003,4.102667e+001
1.620925e+003,3.996743e+001
1.621889e+003,3.799648e+001
1.622853e+003,3.544599e+001
1.623817e+003,3.443925e+001
1.624781e+003,3.533850e+001
1.625746e+003,3.582801e+001
1.626710e+003,3.522303e+001
1.627674e+003,3.441036e+001
1.628638e+003,3.346032e+001
1.629603e+003,3.270845e+001
1.630567e+003,3.294301e+001
1.631531e+003,3.351612e+001
1.632495e+003,3.282531e+001
1.633460e+003,3.067104e+001
1.634424e+003,2.865262e+001
1.635388e+003,2.782147e+001
1.636352e+003,2.803163e+001
1.637317e+003,2.961847e+001
1.638281e+003,3.238462e+001
1.639245e+003,3.296381e+001
1.640209e+003,3.056000e+001
1.641173e+003,2.876801e+001
1.642138e+003,2.919209e+001
1.643102e+003,2.942724e+001
1.644066e+003,2.803968e+001
1.645030e+003,2.609270e+001
1.645995e+003,2.420260e+001
1.646959e+003,2.272276e+001
1.647923e+003,2.239834e+001
1.648887e+003,2.337187e+001
1.649852e+003,2.446247e+001
1.650816e+003,2.473673e+001
1.651780e+003,2.443163e+001
1.652744e+003,2.400807e+001
1.653708e+003,2.345898e+001
1.654673e+003,2.262852e+001
1.655637e+003,2.134184e+001
1.656601e+003,2.037103e+001
1.657565e+003,2.003057e+001
1.658530e+003,1.998721e+001
1.659494e+003,2.029637e+001
1.660458e+003,2.057841e+001
1.661422e+003,2.040210e+001
1.662387e+003,1.983810e+001
1.663351e+003,1.918117e+001
1.664315e+003,1.854380e+001
1.665279e+003,1.796476e+001
1.666244e+003,1.755930e+001
1.667208e+003,1.713487e+001
1.668172e+003,1.623085e+001
1.669136e+003,1.486133e+001
1.670100e+003,1.321210e+001
1.671065e+003,1.091349e+001
1.672029e+003,1.007901e+001
1.672993e+003,1.254577e+001
1.673957e+003,1.505211e+001
1.674922e+003,1.521940e+001
1.675886e+003,1.447490e+001
1.676850e+003,1.447151e+001
1.677814e+003,1.503224e+001
1.678779e+003,1.491270e+001
1.679743e+003,1.371749e+001
1.680707e+003,1.286910e+001
1.681671e+003,1.381578e+001
1.682635e+003,1.538212e+001
1.683600e+003,1.536874e+001
1.684564e+003,1.406965e+001
1.685528e+003,1.333909e+001
1.686492e+003,1.342438e+001
1.687457e+003,1.314389e+001
1.688421e+003,1.177733e+001
1.689385e+003,1.062215e+001
1.690349e+003,1.102993e+001
1.691314e+003,1.200880e+001
1.692278e+003,1.272536e+001
1.693242e+003,1.296736e+001
1.694206e+003,1.200504e+001
1.695171e+003,9.537211e+000
1.696135e+003,7.392644e+000
1.697099e+003,6.734070e+000
1.698063e+003,6.981738e+000
1.699027e+003,7.686797e+000
1.699992e+003,8.655630e+000
1.700956e+003,9.133699e+000
1.701920e+003,9.057591e+000
1.702884e+003,9.540265e+000
1.703849e+003,1.126565e+001
1.704813e+003,1.238505e+001
1.705777e+003,1.106146e+001
1.706741e+003,8.702550e+000
1.707706e+003,7.666693e+000
1.708670e+003,7.632086e+000
1.709634e+003,7.236830e+000
1.710598e+003,6.188029e+000
1.711563e+003,5.542014e+000
1.712527e+003,6.213832e+000
1.713491e+003,6.933856e+000
1.714455e+003,6.390386e+000
1.715419e+003,5.362825e+000
1.716384e+003,5.407336e+000
1.717348e+003,6.345151e+000
1.718312e+003,6.525581e+000
1.719276e+003,5.428293e+000
1.720241e+003,4.308314e+000
1.721205e+003,4.088501e+000
1.722169e+003,4.240359e+000
1.723133e+003,3.879193e+000
1.724098e+003,3.127853e+000
1.725062e+003,2.847081e+000
1.726026e+003,3.146727e+000
1.726990e+003,3.300763e+000
1.727954e+003,2.850487e+000
1.728919e+003,2.681786e+000
1.729883e+003,3.679813e+000
1.730847e+003,4.738289e+000
1.731811e+003,4.540006e+000
1.732776e+003,3.550828e+000
1.733740e+003,2.988946e+000
1.734704e+003,3.082475e+000
1.735668e+003,3.185695e+000
1.736633e+003,2.920038e+000
1.737597e+003,2.700119e+000
1.738561e+003,3.120637e+000
1.739525e+003,4.006871e+000
1.740490e+003,4.459355e+000
1.741454e+003,4.369557e+000
1.742418e+003,4.176127e+000
1.743382e+003,3.784503e+000
1.744346e+003,3.430008e+000
1.745311e+003,3.227092e+000
1.746275e+003,2.984370e+000
1.747239e+003,2.361661e+000
1.748203e+003,1.812531e+000
1.749168e+003,2.226440e+000
1.750132e+003,3.206377e+000
1.751096e+003,3.284944e+000
1.752060e+003,2.018297e+000
1.753025e+003,6.605484e-001
1.753989e+003,3.779343e-001
1.754953e+003,7.999679e-001
1.755917e+003,1.132747e+000
1.756881e+003,1.377246e+000
1.757846e+003,1.280737e+000
1.758810e+003,6.992553e-001
1.759774e+003,2.387878e-001
1.760738e+003,-2.514114e-001
1.761703e+003,-3.179642e-001
1.762667e+003,7.446243e-001
1.763631e+003,1.766240e+000
1.764595e+003,1.605051e+000
1.765560e+003,8.358490e-001
1.766524e+003,6.133118e-001
1.767488e+003,1.039055e+000
1.768452e+003,1.341466e+000
1.769417e+003,1.130600e+000
1.770381e+003,6.966507e-001
1.771345e+003,2.174728e-001
1.772309e+003,-1.980194e-001
1.773273e+003,-1.867386e-001
1.774238e+003,1.939133e-001
1.775202e+003,3.896255e-001
1.776166e+003,3.234192e-001
1.777130e+003,1.545837e-001
1.778095e+003,-1.616821e-001
1.779059e+003,-3.060165e-001
1.780023e+003,4.199677e-002
1.780987e+003,6.907669e-001
1.781952e+003,1.563255e+000
1.782916e+003,2.468596e+000
1.783880e+003,2.376010e+000
1.784844e+003,8.975479e-001
1.785808e+003,-3.076614e-001
1.786773e+003,-4.243820e-001
1.787737e+003,-1.845963e-001
1.788701e+003,-1.660675e-001
1.789665e+003,-1.486847e-001
1.790630e+003,5.487808e-001
1.791594e+003,1.543674e+000
1.792558e+003,1.234302e+000
1.793522e+003,-6.348984e-001
1.794487e+003,-2.140808e+000
1.795451e+003,-2.077875e+000
1.796415e+003,-1.119046e+000
1.797379e+003,-8.463135e-002
1.798344e+003,9.304520e-001
1.799308e+003,1.535326e+000
1.800272e+003,1.698674e+000
1.801236e+003,1.474432e+000
1.802201e+003,9.022415e-001
1.803165e+003,-4.231262e-003
1.804129e+003,-1.968800e+000
1.805093e+003,-3.420352e+000
1.806057e+003,-3.131778e+000
1.807022e+003,-2.196777e+000
1.807986e+003,-1.847286e+000
1.808950e+003,-1.978359e+000
1.809914e+003,-1.838142e+000
1.810879e+003,-1.256184e+000
1.811843e+003,-7.149872e-001
1.812807e+003,-5.718216e-001
1.813771e+003,-8.179443e-001
1.814736e+003,-1.644197e+000
1.815700e+003,-2.771526e+000
1.816664e+003,-2.318491e+000
1.817628e+003,3.326416e-003
1.818593e+003,7.465622e-001
1.819557e+003,-1.204243e+000
1.820521e+003,-2.464081e+000
1.821485e+003,-1.104640e+000
1.822449e+003,3.488022e-001
1.823414e+003,-5.682983e-001
1.824378e+003,-2.106393e+000
1.825342e+003,-1.703824e+000
1.826306e+003,1.779785e-001
1.827271e+003,1.110530e+000
1.828235e+003,4.544327e-001
1.829199e+003,6.637573e-002
1.830163e+003,1.414723e+000
1.831128e+003,2.758043e+000
1.832092e+003,2.269370e+000
1.833056e+003,1.024684e+000
1.834020e+003,8.151520e-001
1.834984e+003,1.394775e+000
1.835949e+003,1.506009e+000
1.836913e+003,9.335190e-001
1.837877e+003,3.948547e-001
1.838841e+003,2.640198e-001
1.839806e+003,3.163467e-001
1.840770e+003,3.090103e-001
1.841734e+003,2.778290e-001
1.842698e+003,3.830551e-001
1.843663e+003,6.926071e-001
1.844627e+003,7.409744e-001
1.845591e+003,-2.083862e-001
1.846555e+003,-2.598068e-001
1.847520e+003,1.630145e+000
1.848484e+003,3.086643e+000
1.849448e+003,2.885196e+000
1.850412e+003,2.273462e+000
1.851376e+003,2.320908e+000
1.852341e+003,2.714345e+000
1.853305e+003,2.713632e+000
1.854269e+003,2.279155e+000
1.855233e+003,1.937669e+000
1.856198e+003,1.949858e+000
1.857162e+003,2.104199e+000
1.858126e+003,2.147078e+000
1.859090e+003,2.276588e+000
1.860055e+003,3.088762e+000
1.861019e+003,4.361328e+000
1.861983e+003,4.900574e+000
1.862947e+003,4.654501e+000
1.863911e+003,3.579996e+000
1.864876e+003,1.340344e+000
1.865840e+003,-9.365539e-002
1.866804e+003,7.044403e-001
1.867768e+003,2.170946e+000
1.868733e+003,2.387589e+000
1.869697e+003,1.924107e+000
1.870661e+003,2.637111e+000
1.871625e+003,4.534387e+000
1.872590e+003,5.757581e+000
1.873554e+003,6.011230e+000
1.874518e+003,5.804312e+000
1.875482e+003,4.978238e+000
1.876447e+003,4.108749e+000
1.877411e+003,3.363150e+000
1.878375e+003,2.917377e+000
1.879339e+003,2.945093e+000
1.880303e+003,3.376270e+000
1.881268e+003,4.260385e+000
1.882232e+003,5.425400e+000
1.883196e+003,6.376669e+000
1.884160e+003,6.816733e+000
1.885125e+003,6.352832e+000
1.886089e+003,4.335422e+000
1.887053e+003,1.765564e+000
1.888017e+003,1.820877e+000
1.888982e+003,4.555862e+000
1.889946e+003,6.014071e+000
1.890910e+003,6.008948e+000
1.891874e+003,5.616366e+000
1.892839e+003,4.752292e+000
1.893803e+003,4.096603e+000
1.894767e+003,3.928603e+000
1.895731e+003,4.167033e+000
1.896695e+003,4.896077e+000
1.897660e+003,5.878949e+000
1.898624e+003,6.832088e+000
1.899588e+003,7.697328e+000
1.900552e+003,8.231874e+000
1.901517e+003,8.422727e+000
1.902481e+003,8.069860e+000
1.903445e+003,6.452460e+000
1.904409e+003,5.094193e+000
1.905374e+003,5.172453e+000
1.906338e+003,5.936479e+000
1.907302e+003,6.640143e+000
1.908266e+003,7.182806e+000
1.909230e+003,7.728525e+000
1.910195e+003,8.178701e+000
1.911159e+003,7.919801e+000
1.912123e+003,6.784053e+000
1.913087e+003,5.839876e+000
1.914052e+003,6.124146e+000
1.915016e+003,6.848030e+000
1.915980e+003,6.250090e+000
1.916944e+003,4.501442e+000
1.917909e+003,4.026465e+000
1.918873e+003,5.142302e+000
1.919837e+003,5.667241e+000
1.920801e+003,5.075867e+000
1.921766e+003,4.698814e+000
1.922730e+003,5.026347e+000
1.923694e+003,5.590320e+000
1.924658e+003,6.314031e+000
1.925622e+003,6.938919e+000
1.926587e+003,7.080846e+000
1.927551e+003,6.870481e+000
1.928515e+003,6.717276e+000
1.929479e+003,6.662544e+000
1.930444e+003,6.741412e+000
1.931408e+003,7.246451e+000
1.932372e+003,7.409390e+000
1.933336e+003,6.144646e+000
1.934301e+003,5.179428e+000
1.935265e+003,6.596242e+000
1.936229e+003,8.791618e+000
1.937193e+003,9.441747e+000
1.938157e+003,8.666110e+000
1.939122e+003,7.500778e+000
1.940086e+003,6.419253e+000
1.941050e+003,5.814192e+000
1.942014e+003,5.884996e+000
1.942979e+003,6.012988e+000
1.943943e+003,5.421034e+000
1.944907e+003,4.415063e+000
1.945871e+003,3.657881e+000
1.946836e+003,3.196329e+000
1.947800e+003,4.058458e+000
1.948764e+003,6.496175e+000
1.949728e+003,7.632486e+000
1.950693e+003,6.504051e+000
1.951657e+003,5.471475e+000
1.952621e+003,5.774472e+000
1.953585e+003,6.453796e+000
1.954549e+003,6.652297e+000
1.955514e+003,6.537529e+000
1.956478e+003,6.358577e+000
1.957442e+003,6.142897e+000
1.958406e+003,6.427190e+000
1.959371e+003,7.632464e+000
1.960335e+003,8.155882e+000
1.961299e+003,6.989847e+000
1.962263e+003,6.252192e+000
1.963228e+003,7.199002e+000
1.964192e+003,8.217978e+000
1.965156e+003,7.966003e+000
1.966120e+003,7.260339e+000
1.967084e+003,7.241684e+000
1.968049e+003,7.795819e+000
1.969013e+003,8.202417e+000
1.969977e+003,8.285255e+000
1.970941e+003,8.488737e+000
1.971906e+003,9.105672e+000
1.972870e+003,9.529963e+000
1.973834e+003,8.925413e+000
1.974798e+003,7.916580e+000
1.975763e+003,7.630652e+000
1.976727e+003,7.797565e+000
1.977691e+003,7.530292e+000
1.978655e+003,6.886383e+000
1.979620e+003,6.781271e+000
1.980584e+003,7.425826e+000
1.981548e+003,8.138922e+000
1.982512e+003,8.559175e+000
1.983476e+003,8.634672e+000
1.984441e+003,8.268503e+000
1.985405e+003,7.742616e+000
1.986369e+003,7.760661e+000
1.987333e+003,8.326674e+000
1.988298e+003,8.690625e+000
1.989262e+003,8.869014e+000
1.990226e+003,8.641851e+000
1.991190e+003,7.420113e+000
1.992155e+003,6.910210e+000
1.993119e+003,8.411466e+000
1.994083e+003,9.658971e+000
1.995047e+003,9.324348e+000
1.996011e+003,8.273931e+000
1.996976e+003,6.847563e+000
1.997940e+003,5.608317e+000
1.998904e+003,6.076116e+000
1.999868e+003,8.280200e+000
2.000833e+003,9.722311e+000
2.001797e+003,9.511889e+000
2.002761e+003,9.113195e+000
2.003725e+003,8.775149e+000
2.004690e+003,8.855917e+000
2.005654e+003,1.017533e+001
2.006618e+003,1.149224e+001
2.007582e+003,1.119049e+001
2.008547e+003,1.012706e+001
2.009511e+003,1.018492e+001
2.010475e+003,1.113348e+001
2.011439e+003,1.091289e+001
2.012403e+003,9.008756e+000
2.013368e+003,7.510205e+000
2.014332e+003,7.958180e+000
2.015296e+003,9.113025e+000
2.016260e+003,9.380649e+000
2.017225e+003,9.122081e+000
2.018189e+003,9.200625e+000
2.019153e+003,9.480001e+000
2.020117e+003,9.340678e+000
2.021082e+003,8.797363e+000
2.022046e+003,8.598061e+000
2.023010e+003,8.937973e+000
2.023974e+003,9.050127e+000
2.024938e+003,8.457644e+000
2.025903e+003,8.075294e+000
2.026867e+003,8.971257e+000
2.027831e+003,1.035236e+001
2.028795e+003,1.027130e+001
2.029760e+003,8.829248e+000
2.030724e+003,8.323209e+000
2.031688e+003,9.169487e+000
2.032652e+003,9.227740e+000
2.033617e+003,7.938220e+000
2.034581e+003,7.018120e+000
2.035545e+003,7.074620e+000
2.036509e+003,7.340639e+000
2.037474e+003,7.196089e+000
2.038438e+003,7.170903e+000
2.039402e+003,8.286728e+000
2.040366e+003,9.812177e+000
2.041330e+003,9.898796e+000
2.042295e+003,8.585648e+000
2.043259e+003,7.894264e+000
2.044223e+003,8.099882e+000
2.045187e+003,8.764593e+000
2.046152e+003,1.057571e+001
2.047116e+003,1.174198e+001
2.048080e+003,1.124792e+001
2.049044e+003,1.021991e+001
2.050009e+003,9.325086e+000
2.050973e+003,8.512358e+000
2.051937e+003,7.429846e+000
2.052901e+003,6.380515e+000
2.053865e+003,6.207040e+000
2.054830e+003,6.871352e+000
2.055794e+003,7.248129e+000
2.056758e+003,6.850032e+000
2.057722e+003,6.136937e+000
2.058687e+003,4.844789e+000
2.059651e+003,4.124532e+000
2.060615e+003,5.885634e+000
2.061579e+003,8.238574e+000
2.062544e+003,8.340116e+000
2.063508e+003,7.151106e+000
2.064472e+003,7.043588e+000
2.065436e+003,8.019693e+000
2.066401e+003,8.655080e+000
2.067365e+003,8.498713e+000
2.068329e+003,8.091634e+000
2.069293e+003,7.794510e+000
2.070258e+003,7.656851e+000
2.071222e+003,7.775644e+000
2.072186e+003,8.019038e+000
2.073150e+003,8.057364e+000
2.074115e+003,7.952504e+000
2.075079e+003,8.028328e+000
2.076043e+003,8.228216e+000
2.077007e+003,8.054639e+000
2.077971e+003,7.482190e+000
2.078936e+003,7.350287e+000
2.079900e+003,7.965816e+000
2.080864e+003,8.657397e+000
2.081828e+003,8.958456e+000
2.082792e+003,9.055554e+000
2.083757e+003,9.235171e+000
2.084721e+003,9.318251e+000
2.085685e+003,8.509479e+000
2.086649e+003,6.726378e+000
2.087614e+003,6.772560e+000
2.088578e+003,9.354698e+000
2.089542e+003,1.013849e+001
2.090506e+003,7.904094e+000
2.091471e+003,6.235280e+000
2.092435e+003,6.460994e+000
2.093399e+003,7.278905e+000
2.094363e+003,8.088409e+000
2.095328e+003,8.645581e+000
2.096292e+003,8.517697e+000
2.097256e+003,7.888733e+000
2.098220e+003,7.402564e+000
2.099185e+003,7.052897e+000
2.100149e+003,7.269478e+000
2.101113e+003,8.638456e+000
2.102077e+003,9.430395e+000
2.103042e+003,9.267679e+000
2.104006e+003,9.004817e+000
2.104970e+003,8.626305e+000
2.105934e+003,8.448891e+000
2.106898e+003,8.618513e+000
2.107863e+003,9.067884e+000
2.108827e+003,1.029036e+001
2.109791e+003,1.157148e+001
2.110755e+003,1.088124e+001
2.111719e+003,8.290730e+000
2.112684e+003,7.224177e+000
2.113648e+003,8.929186e+000
2.114612e+003,1.001760e+001
2.115576e+003,9.232936e+000
2.116541e+003,8.453112e+000
2.117505e+003,8.386472e+000
2.118469e+003,8.500128e+000
2.119433e+003,8.337198e+000
2.120398e+003,8.293901e+000
2.121362e+003,9.171274e+000
2.122326e+003,1.027470e+001
2.123290e+003,9.932439e+000
2.124255e+003,8.445630e+000
2.125219e+003,8.335370e+000
2.126183e+003,1.044738e+001
2.127147e+003,1.191944e+001
2.128112e+003,1.082598e+001
2.129076e+003,9.776560e+000
2.130040e+003,1.045707e+001
2.131004e+003,1.140522e+001
2.131969e+003,1.132625e+001
2.132933e+003,1.095184e+001
2.133897e+003,1.128614e+001
2.134861e+003,1.203980e+001
2.135825e+003,1.248773e+001
2.136790e+003,1.257149e+001
2.137754e+003,1.276105e+001
2.138718e+003,1.316000e+001
2.139682e+003,1.302435e+001
2.140646e+003,1.169741e+001
2.141611e+003,1.059473e+001
2.142575e+003,1.110471e+001
2.143539e+003,1.211270e+001
2.144503e+003,1.288364e+001
2.145468e+003,1.321604e+001
2.146432e+003,1.241851e+001
2.147396e+003,1.117282e+001
2.148360e+003,1.090871e+001
2.149325e+003,1.151730e+001
2.150289e+003,1.205804e+001
2.151253e+003,1.213216e+001
2.152217e+003,1.137695e+001
2.153182e+003,9.564206e+000
2.154146e+003,8.473305e+000
2.155110e+003,1.037485e+001
2.156074e+003,1.296742e+001
2.157039e+003,1.327242e+001
2.158003e+003,1.225639e+001
2.158967e+003,1.107232e+001
2.159931e+003,1.010717e+001
2.160896e+003,1.013808e+001
2.161860e+003,1.092531e+001
2.162824e+003,1.156849e+001
2.163788e+003,1.178918e+001
2.164752e+003,1.161347e+001
2.165717e+003,1.109580e+001
2.166681e+003,1.067036e+001
2.167645e+003,1.075787e+001
2.168609e+003,1.091810e+001
2.169573e+003,1.021339e+001
2.170538e+003,9.405886e+000
2.171502e+003,1.033582e+001
2.172466e+003,1.213711e+001
2.173430e+003,1.268452e+001
2.174395e+003,1.216702e+001
2.175359e+003,1.183724e+001
2.176323e+003,1.188082e+001
2.177287e+003,1.170254e+001
2.178252e+003,1.108033e+001
2.179216e+003,1.022309e+001
2.180180e+003,9.280096e+000
2.181144e+003,9.019798e+000
2.182109e+003,1.073482e+001
2.183073e+003,1.309971e+001
2.184037e+003,1.348794e+001
2.185001e+003,1.253311e+001
2.185966e+003,1.168013e+001
2.186930e+003,1.100770e+001
2.187894e+003,1.017936e+001
2.188858e+003,9.375173e+000
2.189823e+003,9.806931e+000
2.190787e+003,1.153428e+001
2.191751e+003,1.274050e+001
2.192715e+003,1.248947e+001
2.193679e+003,1.166628e+001
2.194644e+003,1.098845e+001
2.195608e+003,1.077325e+001
2.196572e+003,1.197797e+001
2.197536e+003,1.380520e+001
2.198500e+003,1.430421e+001
2.199465e+003,1.378884e+001
2.200429e+003,1.285518e+001
2.201393e+003,1.180843e+001
2.202357e+003,1.163913e+001
2.203322e+003,1.232989e+001
2.204286e+003,1.269240e+001
2.205250e+003,1.232265e+001
2.206214e+003,1.194607e+001
2.207179e+003,1.206144e+001
2.208143e+003,1.259269e+001
2.209107e+003,1.362862e+001
2.210071e+003,1.461621e+001
2.211036e+003,1.434305e+001
2.212000e+003,1.334250e+001
2.212964e+003,1.267566e+001
2.213928e+003,1.247017e+001
2.214893e+003,1.334140e+001
2.215857e+003,1.493880e+001
2.216821e+003,1.563511e+001
2.217785e+003,1.518114e+001
2.218750e+003,1.483424e+001
2.219714e+003,1.517810e+001
2.220678e+003,1.562379e+001
2.221642e+003,1.568431e+001
2.222606e+003,1.590285e+001
2.223571e+003,1.706900e+001
2.224535e+003,1.874365e+001
2.225499e+003,2.046092e+001
2.226463e+003,2.193687e+001
2.227427e+003,2.226592e+001
2.228392e+003,2.193258e+001
2.229356e+003,2.233974e+001
2.230320e+003,2.348740e+001
2.231284e+003,2.457890e+001
2.232249e+003,2.531132e+001
2.233213e+003,2.544645e+001
2.234177e+003,2.496254e+001
2.235141e+003,2.545131e+001
2.236106e+003,2.861463e+001
2.237070e+003,3.237452e+001
2.238034e+003,3.415549e+001
2.238998e+003,3.496009e+001
2.239963e+003,3.606174e+001
2.240927e+003,3.737777e+001
2.241891e+003,3.853028e+001
2.242855e+003,3.980806e+001
2.243820e+003,4.221540e+001
2.244784e+003,4.534044e+001
2.245748e+003,4.713926e+001
2.246712e+003,4.736971e+001
2.247677e+003,4.869794e+001
2.248641e+003,5.260680e+001
2.249605e+003,5.646454e+001
2.250569e+003,5.829099e+001
2.251533e+003,5.896253e+001
2.252498e+003,5.889925e+001
2.253462e+003,5.844886e+001
2.254426e+003,5.798206e+001
2.255390e+003,5.740186e+001
2.256354e+003,5.667374e+001
2.257319e+003,5.560034e+001
2.258283e+003,5.375469e+001
2.259247e+003,5.131617e+001
2.260211e+003,4.886526e+001
2.261176e+003,4.658681e+001
2.262140e+003,4.453344e+001
2.263104e+003,4.277724e+001
2.264068e+003,4.089620e+001
2.265033e+003,3.862836e+001
2.265997e+003,3.620756e+001
2.266961e+003,3.326780e+001
2.267925e+003,3.078198e+001
2.268890e+003,2.989869e+001
2.269854e+003,2.952408e+001
2.270818e+003,2.878109e+001
2.271782e+003,2.747557e+001
2.272747e+003,2.507090e+001
2.273711e+003,2.203878e+001
2.274675e+003,2.016164e+001
2.275639e+003,1.979256e+001
2.276604e+003,1.931974e+001
2.277568e+003,1.840942e+001
2.278532e+003,1.720420e+001
2.279496e+003,1.533962e+001
2.280460e+003,1.367763e+001
2.281425e+003,1.216174e+001
2.282389e+003,1.138827e+001
2.283353e+003,1.253904e+001
2.284317e+003,1.386424e+001
2.285281e+003,1.343126e+001
2.286246e+003,1.218512e+001
2.287210e+003,1.194303e+001
2.288174e+003,1.251312e+001
2.289138e+003,1.247870e+001
2.290103e+003,1.172803e+001
2.291067e+003,1.072979e+001
2.292031e+003,8.942843e+000
2.292995e+003,7.980836e+000
2.293960e+003,8.345818e+000
2.294924e+003,8.673552e+000
2.295888e+003,8.736666e+000
2.296852e+003,8.534628e+000
2.297817e+003,7.858418e+000
2.298781e+003,7.334131e+000
2.299745e+003,7.695650e+000
2.300709e+003,8.328056e+000
2.301674e+003,8.122389e+000
2.302638e+003,7.223523e+000
2.303602e+003,6.364675e+000
2.304566e+003,5.487418e+000
2.305531e+003,5.392047e+000
2.306495e+003,6.233366e+000
2.307459e+003,6.896698e+000
2.308423e+003,7.255440e+000
2.309387e+003,7.565987e+000
2.310352e+003,7.915235e+000
2.311316e+003,7.789067e+000
2.312280e+003,6.915459e+000
2.313244e+003,6.183408e+000
2.314208e+003,6.337465e+000
2.315173e+003,6.818382e+000
2.316137e+003,6.933945e+000
2.317101e+003,6.492993e+000
2.318065e+003,4.334082e+000
2.319030e+003,1.295985e+000
2.319994e+003,1.141333e+000
2.320958e+003,3.156015e+000
2.321922e+003,4.334878e+000
2.322887e+003,4.553778e+000
2.323851e+003,4.976153e+000
2.324815e+003,5.724237e+000
2.325779e+003,5.945188e+000
2.326744e+003,5.376178e+000
2.327708e+003,4.709979e+000
2.328672e+003,4.379355e+000
2.329636e+003,4.033759e+000
2.330601e+003,3.255955e+000
2.331565e+003,2.471323e+000
2.332529e+003,2.157114e+000
2.333493e+003,2.097963e+000
2.334458e+003,2.062892e+000
2.335422e+003,2.094446e+000
2.336386e+003,2.389496e+000
2.337350e+003,2.764853e+000
2.338314e+003,3.031909e+000
2.339279e+003,3.019989e+000
2.340243e+003,2.130757e+000
2.341207e+003,4.747345e-001
2.342171e+003,-1.317902e-001
2.343135e+003,1.161159e+000
2.344100e+003,2.149707e+000
2.345064e+003,1.519192e+000
2.346028e+003,1.196410e+000
2.346992e+003,2.368843e+000
2.347957e+003,3.329085e+000
2.348921e+003,3.405521e+000
2.349885e+003,2.777176e+000
2.350849e+003,6.298431e-001
2.351814e+003,-1.404437e+000
2.352778e+003,-7.992249e-001
2.353742e+003,1.254913e+000
2.354706e+003,1.862767e+000
2.355671e+003,1.115147e+000
2.356635e+003,-7.174988e-002
2.357599e+003,-2.150961e+000
2.358563e+003,-2.665260e+000
2.359528e+003,-8.543579e-001
2.360492e+003,-1.038727e-001
2.361456e+003,-1.142859e+000
2.362420e+003,-1.653178e+000
2.363385e+003,-8.153976e-001
2.364349e+003,-1.941757e-001
2.365313e+003,-6.938095e-001
2.366277e+003,-1.080751e+000
2.367241e+003,-1.348343e-001
2.368206e+003,9.627838e-001
2.369170e+003,1.959747e-001
2.370134e+003,-1.669827e+000
2.371098e+003,-2.425215e+000
2.372063e+003,-2.309517e+000
2.373027e+003,-2.282091e+000
2.373991e+003,-2.252501e+000
2.374955e+003,-1.730299e+000
2.375919e+003,-8.697556e-001
2.376884e+003,-3.480743e-001
2.377848e+003,-2.681854e-001
2.378812e+003,-3.290054e-001
2.379776e+003,-4.087830e-001
2.380741e+003,-5.923966e-001
2.381705e+003,-9.302810e-001
2.382669e+003,-1.210065e+000
2.383633e+003,-1.516759e+000
2.384598e+003,-1.266145e+000
2.385562e+003,9.361084e-001
2.386526e+003,2.734979e+000
2.387490e+003,1.498142e+000
2.388455e+003,-3.110458e-001
2.389419e+003,-7.534637e-002
2.390383e+003,9.606048e-001
2.391347e+003,8.938293e-001
2.392312e+003,7.799225e-002
2.393276e+003,-2.284241e-001
2.394240e+003,-3.125000e-003
2.395204e+003,-1.671265e-001
2.396168e+003,-9.702774e-001
2.397133e+003,-1.369775e+000
2.398097e+003,-1.135139e+000
2.399061e+003,-8.795410e-001
2.400025e+003,-8.775421e-001
2.400990e+003,-2.287003e-001
2.401954e+003,1.857108e+000
2.402918e+003,3.049686e+000
2.403882e+003,1.934988e+000
2.404846e+003,6.785431e-001
2.405811e+003,1.063469e+000
2.406775e+003,2.262758e+000
2.407739e+003,3.223198e+000
2.408703e+003,3.587199e+000
2.409668e+003,1.945724e+000
2.410632e+003,-1.012718e+000
2.411596e+003,-1.374004e+000
2.412560e+003,1.721985e-001
2.413525e+003,5.979919e-001
2.414489e+003,2.125549e-002
2.415453e+003,-2.386536e-001
2.416417e+003,4.470062e-002
2.417382e+003,8.543091e-001
2.418346e+003,1.952995e+000
2.419310e+003,2.376642e+000
2.420274e+003,1.747357e+000
2.421239e+003,1.159239e+000
2.422203e+003,1.359512e+000
2.423167e+003,1.608571e+000
2.424131e+003,1.185104e+000
2.425095e+003,9.001328e-001
2.426060e+003,1.454887e+000
2.427024e+003,2.150218e+000
2.427988e+003,2.547961e+000
2.428952e+003,2.725389e+000
2.429917e+003,2.691487e+000
2.430881e+003,2.596994e+000
2.431845e+003,2.837831e+000
2.432809e+003,3.144937e+000
2.433773e+003,2.316550e+000
2.434738e+003,3.704071e-001
2.435702e+003,-3.721466e-002
2.436666e+003,1.588118e+000
2.437630e+003,3.092239e+000
2.438595e+003,4.676880e+000
2.439559e+003,4.994666e+000
2.440523e+003,3.628047e+000
2.441487e+003,3.089999e+000
2.442452e+003,4.151372e+000
2.443416e+003,5.214604e+000
2.444380e+003,5.468297e+000
2.445344e+003,5.469653e+000
2.446309e+003,5.676523e+000
2.447273e+003,6.012671e+000
2.448237e+003,6.346194e+000
2.449201e+003,6.774703e+000
2.450166e+003,7.934190e+000
2.451130e+003,8.949452e+000
2.452094e+003,7.799207e+000
2.453058e+003,5.941127e+000
2.454022e+003,5.851848e+000
2.454987e+003,6.741809e+000
2.455951e+003,6.874817e+000
2.456915e+003,6.352559e+000
2.457879e+003,5.956595e+000
2.458844e+003,5.923140e+000
2.459808e+003,6.657243e+000
2.460772e+003,8.454781e+000
2.461736e+003,9.098140e+000
2.462700e+003,6.765695e+000
2.463665e+003,5.534828e+000
2.464629e+003,6.800674e+000
2.465593e+003,7.620787e+000
2.466557e+003,7.057481e+000
2.467522e+003,6.775622e+000
2.468486e+003,7.599147e+000
2.469450e+003,8.466204e+000
2.470414e+003,8.597609e+000
2.471379e+003,8.622322e+000
2.472343e+003,9.323805e+000
2.473307e+003,1.014033e+001
2.474271e+003,9.775760e+000
2.475236e+003,8.774307e+000
2.476200e+003,9.095293e+000
2.477164e+003,1.020749e+001
2.478128e+003,1.055653e+001
2.479093e+003,1.031972e+001
2.480057e+003,9.931264e+000
2.481021e+003,9.621161e+000
2.481985e+003,9.928119e+000
2.482949e+003,1.068314e+001
2.483914e+003,1.101100e+001
2.484878e+003,1.069531e+001
2.485842e+003,1.011183e+001
2.486806e+003,9.208097e+000
2.487771e+003,9.157147e+000
2.488735e+003,1.105973e+001
2.489699e+003,1.279242e+001
2.490663e+003,1.398534e+001
2.491627e+003,1.459271e+001
2.492592e+003,1.466230e+001
2.493556e+003,1.405537e+001
2.494520e+003,1.227975e+001
2.495484e+003,1.054859e+001
2.496449e+003,9.655251e+000
2.497413e+003,9.913925e+000
2.498377e+003,1.203966e+001
2.499341e+003,1.493854e+001
2.500306e+003,1.566205e+001
2.501270e+003,1.464288e+001
2.502234e+003,1.338384e+001
2.503198e+003,1.219618e+001
2.504163e+003,1.236385e+001
2.505127e+003,1.355748e+001
2.506091e+003,1.501796e+001
2.507055e+003,1.630773e+001
2.508020e+003,1.650101e+001
2.508984e+003,1.579125e+001
2.509948e+003,1.548791e+001
2.510912e+003,1.595809e+001
2.511876e+003,1.655990e+001
2.512841e+003,1.713722e+001
2.513805e+003,1.752429e+001
2.514769e+003,1.725475e+001
2.515733e+003,1.741465e+001
2.516698e+003,1.865388e+001
2.517662e+003,1.977204e+001
2.518626e+003,2.043304e+001
2.519590e+003,2.096018e+001
2.520554e+003,2.138032e+001
2.521519e+003,2.198660e+001
2.522483e+003,2.307568e+001
2.523447e+003,2.425832e+001
2.524411e+003,2.490700e+001
2.525376e+003,2.559680e+001
2.526340e+003,2.813557e+001
2.527304e+003,3.158190e+001
2.528268e+003,3.295040e+001
2.529233e+003,3.285650e+001
2.530197e+003,3.221687e+001
2.531161e+003,3.162240e+001
2.532125e+003,3.188857e+001
2.533090e+003,3.310704e+001
2.534054e+003,3.590753e+001
2.535018e+003,3.954179e+001
2.535982e+003,4.104374e+001
2.536947e+003,3.987835e+001
2.537911e+003,3.954380e+001
2.538875e+003,4.139640e+001
2.539839e+003,4.249619e+001
2.540803e+003,4.163742e+001
2.541768e+003,4.143867e+001
2.542732e+003,4.236396e+001
2.543696e+003,4.325239e+001
2.544660e+003,4.379585e+001
2.545625e+003,4.474924e+001
2.546589e+003,4.658233e+001
2.547553e+003,4.746841e+001
2.548517e+003,4.589294e+001
2.549482e+003,4.433362e+001
2.550446e+003,4.590276e+001
2.551410e+003,4.838947e+001
2.552374e+003,4.815340e+001
2.553339e+003,4.677806e+001
2.554303e+003,4.678474e+001
2.555267e+003,4.695385e+001
2.556231e+003,4.518106e+001
2.557196e+003,4.295265e+001
2.558160e+003,4.257905e+001
2.559124e+003,4.315302e+001
2.560088e+003,4.299572e+001
2.561052e+003,4.209802e+001
2.562017e+003,4.081999e+001
2.562981e+003,3.919207e+001
2.563945e+003,3.802865e+001
2.564909e+003,3.734245e+001
2.565874e+003,3.721823e+001
2.566838e+003,3.794274e+001
2.567802e+003,3.686173e+001
2.568766e+003,3.376467e+001
2.569730e+003,3.136716e+001
2.570695e+003,3.015861e+001
2.571659e+003,2.889694e+001
2.572623e+003,2.722952e+001
2.573587e+003,2.629241e+001
2.574552e+003,2.664857e+001
2.575516e+003,2.667785e+001
2.576480e+003,2.523637e+001
2.577444e+003,2.330667e+001
2.578409e+003,2.081820e+001
2.579373e+003,1.890450e+001
2.580337e+003,1.857287e+001
2.581301e+003,1.861411e+001
2.582266e+003,1.851435e+001
2.583230e+003,1.837591e+001
2.584194e+003,1.822379e+001
2.585158e+003,1.812099e+001
2.586123e+003,1.835702e+001
2.587087e+003,1.820863e+001
2.588051e+003,1.623691e+001
2.589015e+003,1.332492e+001
2.589979e+003,1.234233e+001
2.590944e+003,1.272476e+001
2.591908e+003,1.230136e+001
2.592872e+003,1.136200e+001
2.593836e+003,1.041386e+001
2.594801e+003,9.728689e+000
2.595765e+003,1.001404e+001
2.596729e+003,1.079247e+001
2.597693e+003,1.101046e+001
2.598657e+003,1.048390e+001
2.599622e+003,9.069934e+000
2.600586e+003,6.818069e+000
2.601550e+003,5.897247e+000
2.602514e+003,7.202658e+000
2.603479e+003,8.252957e+000
2.604443e+003,9.298120e+000
2.605407e+003,9.091321e+000
2.606371e+003,7.291687e+000
2.607336e+003,5.863226e+000
2.608300e+003,5.236997e+000
2.609264e+003,5.128888e+000
2.610228e+003,5.352829e+000
2.611193e+003,5.044665e+000
2.612157e+003,3.758460e+000
2.613121e+003,2.810860e+000
2.614085e+003,3.287077e+000
2.615050e+003,4.148764e+000
2.616014e+003,4.884259e+000
2.616978e+003,5.174512e+000
2.617942e+003,4.283856e+000
2.618906e+003,3.617166e+000
2.619871e+003,4.876486e+000
2.620835e+003,5.646088e+000
2.621799e+003,3.394080e+000
2.622763e+003,9.470261e-001
2.623728e+003,9.978043e-001
2.624692e+003,2.286174e+000
2.625656e+003,2.902757e+000
2.626620e+003,2.982350e+000
2.627584e+003,2.713641e+000
2.628549e+003,2.323668e+000
2.629513e+003,2.979947e+000
2.630477e+003,3.868762e+000
2.631441e+003,2.450917e+000
2.632406e+003,3.342117e-001
2.633370e+003,1.309386e+000
2.634334e+003,3.892317e+000
2.635298e+003,4.177307e+000
2.636263e+003,2.604375e+000
2.637227e+003,2.328612e+000
2.638191e+003,3.670088e+000
2.639155e+003,4.594055e+000
2.640120e+003,5.093683e+000
2.641084e+003,4.564670e+000
2.642048e+003,2.540175e+000
2.643012e+003,2.714751e+000
2.643977e+003,5.323163e+000
2.644941e+003,5.873962e+000
2.645905e+003,3.900290e+000
2.646869e+003,2.091148e+000
2.647833e+003,1.249152e+000
2.648798e+003,8.085190e-001
2.649762e+003,5.462998e-001
2.650726e+003,8.349975e-001
2.651690e+003,2.064343e+000
2.652655e+003,2.735879e+000
2.653619e+003,1.569719e+000
2.654583e+003,7.279358e-001
2.655547e+003,1.028795e+000
2.656511e+003,1.411684e+000
2.657476e+003,1.512468e+000
2.658440e+003,1.892920e+000
2.659404e+003,2.936055e+000
2.660368e+003,3.487601e+000
2.661333e+003,2.759511e+000
2.662297e+003,1.900214e+000
2.663261e+003,2.033366e+000
2.664225e+003,2.452770e+000
2.665190e+003,2.481091e+000
2.666154e+003,1.986856e+000
2.667118e+003,-1.614166e-001
2.668082e+003,-1.712793e+000
2.669047e+003,3.390213e-001
2.670011e+003,2.878493e+000
2.670975e+003,2.889922e+000
2.671939e+003,1.953770e+000
2.672904e+003,1.936818e+000
2.673868e+003,2.288559e+000
2.674832e+003,2.252872e+000
2.675796e+003,1.843080e+000
2.676760e+003,1.053481e+000
2.677725e+003,-2.178192e-002
2.678689e+003,-1.389919e+000
2.679653e+003,-2.493137e+000
2.680617e+003,-1.043994e+000
2.681582e+003,1.508266e+000
2.682546e+003,2.052081e+000
2.683510e+003,1.366690e+000
2.684474e+003,1.429987e+000
2.685438e+003,2.118974e+000
2.686403e+003,2.452699e+000
2.687367e+003,2.354257e+000
2.688331e+003,2.181259e+000
2.689295e+003,1.971661e+000
2.690260e+003,1.969412e+000
2.691224e+003,2.226768e+000
2.692188e+003,2.080611e+000
2.693152e+003,1.530373e+000
2.694117e+003,1.029845e+000
2.695081e+003,7.133835e-001
2.696045e+003,1.185161e+000
2.697009e+003,2.137335e+000
2.697974e+003,1.687199e+000
2.698938e+003,-2.345200e-001
2.699902e+003,-8.765854e-001
2.700866e+003,7.512085e-001
2.701831e+003,2.040117e+000
2.702795e+003,2.190201e+000
2.703759e+003,2.101947e+000
2.704723e+003,1.723482e+000
2.705688e+003,1.474699e+000
2.706652e+003,1.376762e+000
2.707616e+003,1.687550e+000
2.708580e+003,2.440999e+000
2.709544e+003,1.873332e+000
2.710509e+003,-4.771286e-001
2.711473e+003,-1.620459e+000
2.712437e+003,7.877197e-002
2.713401e+003,1.839346e+000
2.714365e+003,1.834331e+000
2.715330e+003,1.454375e+000
2.716294e+003,1.415111e+000
2.717258e+003,1.152830e+000
2.718222e+003,1.687942e-001
2.719187e+003,-6.081222e-001
2.720151e+003,-8.817230e-001
2.721115e+003,-9.993194e-001
2.722079e+003,-1.157755e+000
2.723044e+003,-9.355316e-001
2.724008e+003,-8.056641e-004
2.724972e+003,9.734299e-001
2.725936e+003,1.297601e+000
2.726901e+003,1.369508e+000
2.727865e+003,1.809093e+000
2.728829e+003,1.969365e+000
2.729793e+003,9.585632e-001
2.730758e+003,-7.781525e-002
2.731722e+003,-1.834137e-001
2.732686e+003,-2.484329e-001
2.733650e+003,-1.247633e+000
2.734615e+003,-1.799664e+000
2.735579e+003,-5.449768e-001
2.736543e+003,1.035612e+000
2.737507e+003,9.233963e-001
2.738471e+003,-2.251892e-002
2.739436e+003,-3.459244e-001
2.740400e+003,-2.672226e-001
2.741364e+003,-5.715179e-002
2.742328e+003,2.451157e-001
2.743292e+003,9.486679e-001
2.744257e+003,1.363429e+000
2.745221e+003,3.344864e-001
2.746185e+003,-1.042485e+000
2.747149e+003,-1.438573e+000
2.748114e+003,-1.117439e+000
2.749078e+003,-3.434723e-001
2.750042e+003,5.867783e-001
2.751006e+003,8.499542e-001
2.751971e+003,6.016724e-001
2.752935e+003,2.469162e-001
2.753899e+003,-9.385834e-002
2.754863e+003,1.647949e-002
2.755828e+003,2.182480e-001
2.756792e+003,-4.651917e-001
2.757756e+003,-1.193970e+000
2.758720e+003,-2.268784e-001
2.759685e+003,1.596492e+000
2.760649e+003,2.419972e+000
2.761613e+003,2.169220e+000
2.762577e+003,4.464539e-001
2.763542e+003,-2.388844e+000
2.764506e+003,-3.397223e+000
2.765470e+003,-2.868004e+000
2.766434e+003,-1.888771e+000
2.767398e+003,-9.269837e-001
2.768363e+003,-1.561900e+000
2.769327e+003,-2.853493e+000
2.770291e+003,-2.512381e+000
2.771255e+003,-1.022337e+000
2.772219e+003,-1.601578e-001
2.773184e+003,-8.682251e-004
2.774148e+003,3.794556e-001
2.775112e+003,9.550171e-001
2.776076e+003,9.292358e-001
2.777041e+003,2.992111e-001
2.778005e+003,-5.307007e-001
2.778969e+003,-1.325443e+000
2.779933e+003,-2.811783e-001
2.780898e+003,1.691315e+000
2.781862e+003,1.265123e+000
2.782826e+003,-7.864441e-001
2.783790e+003,-1.287257e+000
2.784755e+003,-6.445465e-002
2.785719e+003,1.332249e+000
2.786683e+003,2.632799e+000
2.787647e+003,2.827443e+000
2.788612e+003,1.845293e+000
2.789576e+003,-2.569534e-001
2.790540e+003,-3.328055e+000
2.791504e+003,-2.606119e+000
2.792469e+003,1.016560e+000
2.793433e+003,1.854866e+000
2.794397e+003,2.274673e-001
2.795361e+003,5.686646e-002
2.796325e+003,1.542032e+000
2.797290e+003,2.031789e+000
2.798254e+003,1.122250e+000
2.799218e+003,1.258597e+000
2.800182e+003,2.989685e+000
2.801146e+003,3.025766e+000
2.802111e+003,1.168466e+000
2.803075e+003,2.517120e-001
2.804039e+003,2.722473e-001
2.805003e+003,3.642578e-002
2.805968e+003,-5.920532e-001
2.806932e+003,-1.487724e+000
2.807896e+003,-2.357977e+000
2.808860e+003,-2.480408e+000
2.809825e+003,-1.806293e+000
2.810789e+003,-1.258838e+000
2.811753e+003,-1.089722e+000
2.812717e+003,-4.602081e-001
2.813682e+003,8.614365e-001
2.814646e+003,1.414224e+000
2.815610e+003,1.194218e+000
2.816574e+003,5.833832e-001
2.817539e+003,-1.692322e-001
2.818503e+003,8.234100e-002
2.819467e+003,1.007313e+000
2.820431e+003,5.312821e-001
2.821396e+003,-1.401564e+000
2.822360e+003,-2.358609e+000
2.823324e+003,-1.728177e+000
2.824288e+003,-9.260041e-001
2.825252e+003,8.804474e-002
2.826217e+003,4.788910e-001
2.827181e+003,2.125534e-001
2.828145e+003,1.626921e+000
2.829109e+003,4.328097e+000
2.830073e+003,4.896303e+000
2.831038e+003,3.262004e+000
2.832002e+003,1.043741e+000
2.832966e+003,-9.403015e-001
2.833930e+003,-1.424855e+000
2.834895e+003,-1.263168e-001
2.835859e+003,1.394444e+000
2.836823e+003,3.161624e+000
2.837787e+003,4.238439e+000
2.838752e+003,4.644492e+000
2.839716e+003,3.873593e+000
2.840680e+003,2.115085e+000
2.841644e+003,6.031342e-001
2.842609e+003,-4.848221e-001
2.843573e+003,-1.529114e+000
2.844537e+003,-2.306845e+000
2.845501e+003,-1.486574e+000
2.846466e+003,9.598449e-001
2.847430e+003,1.852339e+000
2.848394e+003,6.884796e-001
2.849358e+003,2.269562e-001
2.850323e+003,5.285934e-001
2.851287e+003,4.906754e-001
2.852251e+003,1.202362e-001
2.853215e+003,-3.190598e-001
2.854179e+003,-6.682495e-001
2.855144e+003,-3.914322e-001
2.856108e+003,1.985321e-001
2.857072e+003,-1.729187e-001
2.858036e+003,-1.488579e+000
2.859000e+003,-2.164157e+000
2.859965e+003,-2.105614e+000
2.860929e+003,-1.131441e+000
2.861893e+003,7.800461e-001
2.862857e+003,1.856325e+000
2.863822e+003,2.043336e+000
2.864786e+003,2.616577e-001
2.865750e+003,-2.188135e+000
2.866714e+003,-1.167795e+000
2.867679e+003,2.011223e+000
2.868643e+003,2.832307e+000
2.869607e+003,1.274458e+000
2.870571e+003,1.558029e-001
2.871536e+003,-3.578979e-001
2.872500e+003,2.607056e-001
2.873464e+003,1.896919e+000
2.874428e+003,1.985242e+000
2.875393e+003,9.244568e-001
2.876357e+003,-5.606171e-001
2.877321e+003,-1.642639e+000
2.878285e+003,-1.772705e-001
2.879250e+003,2.448758e+000
2.880214e+003,3.203255e+000
2.881178e+003,2.468707e+000
2.882142e+003,2.498433e+000
2.883106e+003,2.854942e+000
2.884071e+003,1.337225e+000
2.885035e+003,-1.367632e+000
2.885999e+003,-1.241811e+000
2.886963e+003,5.346954e-001
2.887927e+003,1.345122e+000
2.888892e+003,1.550273e+000
2.889856e+003,1.794743e+000
2.890820e+003,2.122009e+000
2.891784e+003,2.624504e+000
2.892749e+003,3.024994e+000
2.893713e+003,2.951610e+000
2.894677e+003,2.416360e+000
2.895641e+003,1.254930e+000
2.896606e+003,-6.459198e-002
2.897570e+003,-1.855026e-001
2.898534e+003,3.961349e-001
2.899498e+003,1.340976e+000
2.900463e+003,1.999997e+000
2.901427e+003,1.096944e+000
2.902391e+003,1.516388e-001
2.903355e+003,1.149912e+000
2.904320e+003,2.460803e+000
2.905284e+003,2.401709e+000
2.906248e+003,1.717966e+000
2.907212e+003,1.520343e+000
2.908177e+003,1.503529e+000
2.909141e+003,8.336319e-001
2.910105e+003,4.408157e-001
2.911069e+003,2.140327e+000
2.912033e+003,3.496916e+000
2.912998e+003,2.260129e+000
2.913962e+003,4.752869e-001
2.914926e+003,-8.298050e-001
2.915890e+003,-1.601887e+000
2.916854e+003,-1.784462e+000
2.917819e+003,-1.652956e+000
2.918783e+003,-1.496114e+000
2.919747e+003,-1.112830e+000
2.920711e+003,4.279785e-002
2.921676e+003,1.016531e+000
2.922640e+003,1.018111e+000
2.923604e+003,9.756485e-001
2.924568e+003,1.338364e+000
2.925533e+003,1.538921e+000
2.926497e+003,1.355098e+000
2.927461e+003,7.674255e-001
2.928425e+003,-5.950928e-002
2.929390e+003,-3.012848e-001
2.930354e+003,3.702667e-001
2.931318e+003,1.083719e+000
2.932282e+003,1.487045e+000
2.933247e+003,1.461000e+000
2.934211e+003,1.168617e+000
2.935175e+003,1.163666e+000
2.936139e+003,1.301382e+000
2.937104e+003,1.505446e+000
2.938068e+003,1.745912e+000
2.939032e+003,1.244989e+000
2.939996e+003,-3.615570e-002
2.940960e+003,-6.138260e-001
2.941925e+003,7.173004e-002
2.942889e+003,8.434814e-001
2.943853e+003,1.612469e+000
2.944817e+003,1.448944e+000
2.945781e+003,4.560699e-002
2.946746e+003,-4.632660e-001
2.947710e+003,-4.471435e-002
2.948674e+003,2.197174e-001
2.949638e+003,1.532120e-001
2.950603e+003,-5.183090e-001
2.951567e+003,-1.382129e+000
2.952531e+003,-7.797424e-001
2.953495e+003,1.373843e+000
2.954460e+003,2.840013e+000
2.955424e+003,3.548990e+000
2.956388e+003,2.143424e+000
2.957352e+003,-9.431015e-001
2.958317e+003,-1.175906e+000
2.959281e+003,5.668686e-001
2.960245e+003,1.984447e+000
2.961209e+003,2.789072e+000
2.962174e+003,2.837372e+000
2.963138e+003,2.444966e+000
2.964102e+003,2.315959e+000
2.965066e+003,2.215163e+000
2.966031e+003,1.412457e+000
2.966995e+003,3.905731e-001
2.967959e+003,1.126604e+000
2.968923e+003,2.445876e+000
2.969887e+003,1.540874e+000
2.970852e+003,8.146667e-002
2.971816e+003,1.571381e-001
2.972780e+003,7.799118e-001
2.973744e+003,1.153670e+000
2.974708e+003,9.592850e-001
2.975673e+003,-2.342987e-001
2.976637e+003,-1.349071e+000
2.977601e+003,-1.098732e+000
2.978565e+003,-1.742310e-001
2.979530e+003,9.698395e-001
2.980494e+003,1.712515e+000
2.981458e+003,1.280649e+000
2.982422e+003,6.913742e-001
2.983387e+003,3.816620e-001
2.984351e+003,1.642731e-001
2.985315e+003,1.557922e-003
2.986279e+003,-3.177582e-001
2.987244e+003,-8.701294e-001
2.988208e+003,-6.064560e-001
2.989172e+003,1.243347e+000
2.990136e+003,2.049812e+000
2.991101e+003,-1.096382e+000
2.992065e+003,-2.474281e+000
2.993029e+003,1.640625e-002
2.993993e+003,1.568301e+000
2.994958e+003,1.661269e+000
2.995922e+003,7.501923e-001
2.996886e+003,-7.319672e-001
2.997850e+003,-9.126938e-001
2.998814e+003,3.384018e-001
2.999779e+003,9.397415e-001
3.000743e+003,3.217560e-001
3.001707e+003,2.572662e-001
3.002671e+003,1.025532e+000
3.003635e+003,1.235535e+000
3.004600e+003,9.292831e-001
3.005564e+003,1.082852e+000
3.006528e+003,1.409906e+000
3.007492e+003,3.850510e-001
3.008457e+003,-1.036908e+000
3.009421e+003,-3.436890e-001
3.010385e+003,1.831200e+000
3.011349e+003,3.583023e+000
3.012314e+003,4.388092e+000
3.013278e+003,2.553092e+000
3.014242e+003,-6.771744e-001
3.015206e+003,-1.190536e+000
3.016171e+003,-2.065491e-001
3.017135e+003,6.722077e-001
3.018099e+003,1.350374e+000
3.019063e+003,1.803612e+000
3.020028e+003,2.047637e+000
3.020992e+003,2.137778e+000
3.021956e+003,2.001193e+000
3.022920e+003,1.562608e+000
3.023885e+003,8.384552e-001
3.024849e+003,-2.992828e-001
3.025813e+003,-1.114070e+000
3.026777e+003,-4.467285e-001
3.027741e+003,5.131073e-002
3.028706e+003,-6.867951e-001
3.029670e+003,-1.392116e+000
3.030634e+003,-1.841743e+000
3.031598e+003,-1.690727e+000
3.032563e+003,-8.758453e-001
3.033527e+003,4.405060e-002
3.034491e+003,8.221542e-001
3.035455e+003,1.685252e+000
3.036420e+003,2.934964e+000
3.037384e+003,2.740131e+000
3.038348e+003,-3.261902e-001
3.039312e+003,-9.698868e-001
3.040277e+003,8.898484e-001
3.041241e+003,1.373834e+000
3.042205e+003,5.364655e-001
3.043169e+003,4.600800e-001
3.044134e+003,1.029991e+000
3.045098e+003,6.217011e-001
3.046062e+003,-5.579270e-001
3.047026e+003,-4.319214e-001
3.047990e+003,6.671020e-001
3.048955e+003,6.954544e-001
3.049919e+003,-6.287994e-002
3.050883e+003,-6.103500e-001
3.051847e+003,-8.152100e-001
3.052812e+003,-2.245560e-001
3.053776e+003,6.220657e-001
3.054740e+003,9.647675e-001
3.055704e+003,1.404405e+000
3.056668e+003,2.825822e+000
3.057633e+003,3.522289e+000
3.058597e+003,1.416965e+000
3.059561e+003,-1.030100e+000
3.060525e+003,-4.134628e-001
3.061490e+003,7.182419e-001
3.062454e+003,2.952698e-001
3.063418e+003,4.075623e-002
3.064382e+003,8.462189e-001
3.065347e+003,1.101599e+000
3.066311e+003,3.583862e-001
3.067275e+003,-1.551651e-001
3.068239e+003,1.261597e-002
3.069204e+003,2.180237e-001
3.070168e+003,1.581009e-001
3.071132e+003,2.373932e-001
3.072096e+003,8.269806e-001
3.073061e+003,7.133942e-001
3.074025e+003,-2.319290e-001
3.074989e+003,8.426056e-002
3.075953e+003,1.357132e+000
3.076917e+003,1.541391e+000
3.077882e+003,8.001755e-001
3.078846e+003,3.893112e-001
3.079810e+003,2.235199e-001
3.080774e+003,-9.233276e-001
3.081739e+003,-2.428005e+000
3.082703e+003,-2.221501e+000
3.083667e+003,-8.766068e-001
3.084631e+003,-1.731583e-001
3.085595e+003,2.208420e-001
3.086560e+003,8.516327e-001
3.087524e+003,1.461925e+000
3.088488e+003,2.025214e+000
3.089452e+003,1.966014e+000
3.090417e+003,7.775696e-001
3.091381e+003,-4.167114e-001
3.092345e+003,-7.433548e-001
3.093309e+003,-7.642304e-001
3.094274e+003,-9.829590e-001
3.095238e+003,-1.094002e+000
3.096202e+003,-1.124689e+000
3.097166e+003,-4.206955e-001
3.098131e+003,1.570862e+000
3.099095e+003,2.055743e+000
3.100059e+003,6.636093e-001
3.101023e+003,-6.065140e-001
3.101988e+003,-1.121017e+000
3.102952e+003,-5.445816e-001
3.103916e+003,9.683167e-001
3.104880e+003,1.278432e+000
3.105844e+003,1.237671e-001
3.106809e+003,1.762482e-001
3.107773e+003,1.225162e+000
3.108737e+003,4.214493e-001
3.109701e+003,-1.284300e+000
3.110666e+003,-1.495447e+000
3.111630e+003,-7.805694e-001
3.112594e+003,-1.689453e-002
3.113558e+003,4.477646e-001
3.114522e+003,2.275299e-001
3.115487e+003,-3.599396e-002
3.116451e+003,6.702301e-001
3.117415e+003,1.507809e+000
3.118379e+003,1.286337e+000
3.119344e+003,6.103897e-001
3.120308e+003,-5.193710e-001
3.121272e+003,-1.198424e+000
3.122236e+003,-9.240326e-001
3.123201e+003,-1.111713e+000
3.124165e+003,-2.175018e+000
3.125129e+003,-2.258957e+000
3.126093e+003,-7.776016e-001
3.127058e+003,-3.681488e-002
3.128022e+003,-1.181795e+000
3.128986e+003,-1.356561e+000
3.129950e+003,1.821793e-001
3.130915e+003,1.265114e+000
3.131879e+003,1.863266e+000
3.132843e+003,1.444719e+000
3.133807e+003,3.988480e-001
3.134771e+003,-5.426651e-001
3.135736e+003,-9.499878e-001
3.136700e+003,6.402634e-001
3.137664e+003,2.471649e+000
3.138628e+003,1.009692e+000
3.139593e+003,-2.018872e+000
3.140557e+003,-3.014915e+000
3.141521e+003,-2.533047e+000
3.142485e+003,-5.360428e-001
3.143449e+003,1.367899e+000
3.144414e+003,2.350020e+000
3.145378e+003,1.817987e+000
3.146342e+003,-8.692825e-001
3.147306e+003,-2.095052e+000
3.148271e+003,-2.445999e-001
3.149235e+003,1.568504e+000
3.150199e+003,1.605186e+000
3.151163e+003,1.240778e+000
3.152128e+003,1.006879e+000
3.153092e+003,5.325149e-001
3.154056e+003,-2.610245e-001
3.155020e+003,-3.713135e-001
3.155985e+003,-1.494751e-002
3.156949e+003,-7.775497e-001
3.157913e+003,-2.079786e+000
3.158877e+003,-1.742349e+000
3.159842e+003,-3.672501e-001
3.160806e+003,-5.654343e-001
3.161770e+003,-1.415231e+000
3.162734e+003,-2.721710e-002
3.163698e+003,2.030243e+000
3.164663e+003,9.121048e-001
3.165627e+003,-9.028198e-001
3.166591e+003,-1.071684e+000
3.167555e+003,-4.895218e-001
3.168520e+003,6.128708e-001
3.169484e+003,6.494919e-001
3.170448e+003,-1.114694e+000
3.171412e+003,-1.618359e+000
3.172376e+003,9.292862e-001
3.173341e+003,2.762355e+000
3.174305e+003,1.632607e+000
3.175269e+003,4.571991e-001
3.176233e+003,-5.338470e-001
3.177198e+003,-9.567459e-001
3.178162e+003,-8.374680e-001
3.179126e+003,-1.074524e-002
3.180090e+003,8.878815e-001
3.181055e+003,-3.151550e-001
3.182019e+003,-2.563274e+000
3.182983e+003,-2.277810e+000
3.183947e+003,-5.215576e-001
3.184912e+003,5.047607e-002
3.185876e+003,5.529022e-002
3.186840e+003,1.051790e+000
3.187804e+003,2.013893e+000
3.188769e+003,1.865990e+000
3.189733e+003,1.187601e+000
3.190697e+003,-1.564484e-002
3.191661e+003,-3.853577e-001
3.192625e+003,6.346436e-001
3.193590e+003,1.080637e+000
3.194554e+003,-3.812103e-002
3.195518e+003,-1.320230e+000
3.196482e+003,-2.379881e+000
3.197447e+003,-2.107604e+000
3.198411e+003,-2.314804e-001
3.199375e+003,9.678024e-001
3.200339e+003,1.532718e+000
3.201303e+003,2.403114e+000
3.202268e+003,3.243210e+000
3.203232e+003,3.066908e+000
3.204196e+003,1.977415e+000
3.205160e+003,1.893448e-001
3.206125e+003,-1.333786e+000
3.207089e+003,-6.782913e-001
3.208053e+003,7.561630e-001
3.209017e+003,2.619583e-001
3.209982e+003,-2.329269e-001
3.210946e+003,1.274853e+000
3.211910e+003,2.663010e+000
3.212874e+003,3.204273e+000
3.213839e+003,3.332431e+000
3.214803e+003,3.182210e+000
3.215767e+003,2.414185e+000
3.216731e+003,1.003493e+000
3.217696e+003,-1.634216e-003
3.218660e+003,-2.194061e-001
3.219624e+003,-1.960236e-001
3.220588e+003,6.155243e-002
3.221552e+003,1.319005e+000
3.222517e+003,2.807358e+000
3.223481e+003,1.682176e+000
3.224445e+003,-4.475220e-001
3.225409e+003,-4.778793e-001
3.226374e+003,3.381287e-001
3.227338e+003,2.936432e-001
3.228302e+003,2.817993e-002
3.229266e+003,3.996841e-001
3.230230e+003,6.387634e-001
3.231195e+003,-7.768921e-001
3.232159e+003,-1.401056e+000
3.233123e+003,9.075302e-001
3.234087e+003,1.597577e+000
3.235052e+003,-2.646027e-002
3.236016e+003,-9.029587e-001
3.236980e+003,-3.815826e-001
3.237944e+003,1.066795e+000
3.238909e+003,2.902625e+000
3.239873e+003,2.406928e+000
3.240837e+003,-6.257782e-002
3.241801e+003,-4.313293e-001
3.242766e+003,6.951538e-001
3.243730e+003,1.211859e+000
3.244694e+003,1.053688e+000
3.245658e+003,-5.932328e-001
3.246623e+003,-1.939326e+000
3.247587e+003,-1.280396e+000
3.248551e+003,-6.507828e-001
3.249515e+003,-1.363171e+000
3.250479e+003,-1.722802e+000
3.251444e+003,-3.340134e-001
3.252408e+003,6.667114e-001
3.253372e+003,-3.936432e-001
3.254336e+003,-9.066941e-001
3.255301e+003,-7.045868e-001
3.256265e+003,-5.093689e-002
3.257229e+003,6.918305e-001
3.258193e+003,4.705353e-002
3.259157e+003,-1.562627e+000
3.260122e+003,-3.054372e+000
3.261086e+003,-3.576838e+000
3.262050e+003,-1.488136e+000
3.263014e+003,1.500400e+000
3.263979e+003,1.423122e+000
3.264943e+003,5.002136e-002
3.265907e+003,-1.562012e+000
3.266871e+003,-1.829899e+000
3.267836e+003,9.581817e-001
3.268800e+003,2.671428e+000
3.269764e+003,2.158432e+000
3.270728e+003,9.456329e-001
3.271693e+003,-2.656387e-001
3.272657e+003,-1.092316e+000
3.273621e+003,-1.382959e+000
3.274585e+003,-1.136436e+000
3.275550e+003,-3.449768e-001
3.276514e+003,6.613465e-002
3.277478e+003,1.229095e-001
3.278442e+003,-2.462845e-001
3.279406e+003,-8.007004e-001
3.280371e+003,-1.635755e+000
3.281335e+003,-1.746816e+000
3.282299e+003,-1.205215e-001
3.283263e+003,1.223062e+000
3.284228e+003,2.855225e-001
3.285192e+003,-5.812896e-001
3.286156e+003,1.060631e+000
3.287120e+003,2.223511e+000
3.288084e+003,1.826318e+000
3.289049e+003,2.776067e+000
3.290013e+003,5.015869e+000
3.290977e+003,5.478831e+000
3.291941e+003,4.165930e+000
3.292906e+003,2.505859e+000
3.293870e+003,9.496719e-001
3.294834e+003,-2.115173e-001
3.295798e+003,-9.442322e-001
3.296763e+003,-1.191617e+000
3.297727e+003,-9.043640e-001
3.298691e+003,5.672027e-001
3.299655e+003,1.860402e+000
3.300620e+003,1.813452e+000
3.301584e+003,1.311630e+000
3.302548e+003,5.497574e-001
3.303512e+003,4.597015e-001
3.304477e+003,1.290620e+000
3.305441e+003,2.117296e+000
3.306405e+003,2.589249e+000
3.307369e+003,1.960217e+000
3.308333e+003,1.450607e-001
3.309298e+003,1.355695e+000
3.310262e+003,4.193605e+000
3.311226e+003,4.259940e+000
3.312190e+003,3.149036e+000
3.313155e+003,3.187798e+000
3.314119e+003,3.821422e+000
3.315083e+003,4.611478e+000
3.316047e+003,4.771955e+000
3.317011e+003,3.580237e+000
3.317976e+003,2.504356e+000
3.318940e+003,2.751782e+000
3.319904e+003,3.105318e+000
3.320868e+003,3.493471e+000
3.321833e+003,3.078500e+000
3.322797e+003,2.026592e+000
3.323761e+003,1.632446e+000
3.324725e+003,1.779082e+000
3.325690e+003,1.600807e+000
3.326654e+003,1.348564e+000
3.327618e+003,1.745479e+000
3.328582e+003,2.464741e+000
3.329547e+003,3.038159e+000
3.330511e+003,3.310106e+000
3.331475e+003,2.965361e+000
3.332439e+003,2.417796e+000
3.333404e+003,1.814717e+000
3.334368e+003,1.076001e+000
3.335332e+003,2.707962e-001
3.336296e+003,5.512802e-001
3.337260e+003,1.863942e+000
3.338225e+003,2.283978e+000
3.339189e+003,1.362376e+000
3.340153e+003,-3.792679e-001
3.341117e+003,-2.413475e+000
3.342082e+003,-1.120120e+000
3.343046e+003,1.257655e+000
3.344010e+003,1.233623e+000
3.344974e+003,4.858734e-001
3.345938e+003,3.192596e-001
3.346903e+003,1.086716e-001
3.347867e+003,-4.482407e-001
3.348831e+003,-4.590820e-001
3.349795e+003,5.876907e-001
3.350760e+003,1.125229e+000
3.351724e+003,2.179764e-001
3.352688e+003,5.985382e-001
3.353652e+003,1.986472e+000
3.354617e+003,7.322434e-001
3.355581e+003,-1.616248e+000
3.356545e+003,-1.225134e+000
3.357509e+003,3.258148e-001
3.358474e+003,7.370377e-001
3.359438e+003,2.230347e-001
3.360402e+003,-1.160815e+000
3.361366e+003,-1.487759e+000
3.362331e+003,2.342531e+000
3.363295e+003,4.456848e+000
3.364259e+003,1.657292e+000
3.365223e+003,2.098328e-001
3.366188e+003,4.237701e-001
3.367152e+003,2.557953e-001
3.368116e+003,-2.901199e-001
3.369080e+003,1.347504e-002
3.370044e+003,6.747650e-001
3.371009e+003,7.654877e-002
3.371973e+003,-8.734360e-001
3.372937e+003,-2.561874e-001
3.373901e+003,6.341354e-001
3.374865e+003,-2.158478e-001
3.375830e+003,-4.895340e-001
3.376794e+003,1.205162e+000
3.377758e+003,1.389919e+000
3.378722e+003,-3.784470e-001
3.379687e+003,-1.023466e+000
3.380651e+003,-4.430237e-002
3.381615e+003,5.613754e-001
3.382579e+003,5.777954e-001
3.383544e+003,1.016165e+000
3.384508e+003,1.690314e+000
3.385472e+003,2.262283e+000
3.386436e+003,2.269753e+000
3.387401e+003,2.635315e-001
3.388365e+003,-1.168369e+000
3.389329e+003,-7.971115e-001
3.390293e+003,4.162674e-001
3.391258e+003,1.954919e+000
3.392222e+003,2.690990e+000
3.393186e+003,2.182555e+000
3.394150e+003,2.415692e+000
3.395115e+003,3.623852e+000
3.396079e+003,3.680930e+000
3.397043e+003,3.056006e+000
3.398007e+003,3.011134e+000
3.398971e+003,3.527306e+000
3.399936e+003,4.844881e+000
3.400900e+003,6.114446e+000
3.401864e+003,6.891817e+000
3.402828e+003,6.804199e+000
3.403792e+003,5.572237e+000
3.404757e+003,4.548818e+000
3.405721e+003,4.266170e+000
3.406685e+003,5.096956e+000
3.407649e+003,6.988945e+000
3.408614e+003,8.873464e+000
3.409578e+003,1.064301e+001
3.410542e+003,1.267879e+001
3.411506e+003,1.396675e+001
3.412471e+003,1.268924e+001
3.413435e+003,1.104688e+001
3.414399e+003,1.112688e+001
3.415363e+003,1.215562e+001
3.416328e+003,1.367233e+001
3.417292e+003,1.518790e+001
3.418256e+003,1.667235e+001
3.419220e+003,1.772974e+001
3.420185e+003,1.824992e+001
3.421149e+003,1.709960e+001
3.422113e+003,1.503377e+001
3.423077e+003,1.406654e+001
3.424042e+003,1.423702e+001
3.425006e+003,1.525062e+001
3.425970e+003,1.626325e+001
3.426934e+003,1.590451e+001
