7.140112e+001,5.328925e+001
7.236536e+001,5.244827e+001
7.332959e+001,5.302949e+001
7.429382e+001,5.430247e+001
7.525806e+001,5.663916e+001
7.622229e+001,5.716817e+001
7.718652e+001,5.368294e+001
7.815076e+001,4.388813e+001
7.911499e+001,3.731326e+001
8.007922e+001,3.210044e+001
8.104346e+001,2.992034e+001
8.200769e+001,3.299302e+001
8.297192e+001,4.670390e+001
8.393616e+001,5.870470e+001
8.490039e+001,6.683988e+001
8.586462e+001,7.094859e+001
8.682886e+001,7.137249e+001
8.779310e+001,6.589195e+001
8.875733e+001,5.822981e+001
8.972157e+001,4.976544e+001
9.068580e+001,4.133517e+001
9.165003e+001,3.350156e+001
9.261427e+001,2.980959e+001
9.357850e+001,2.895937e+001
9.454273e+001,2.937069e+001
9.550697e+001,3.010939e+001
9.647120e+001,3.159452e+001
9.743543e+001,3.199719e+001
9.839967e+001,3.112023e+001
9.936390e+001,2.946219e+001
1.003281e+002,2.748141e+001
1.012924e+002,2.418074e+001
1.022566e+002,2.202269e+001
1.032208e+002,2.185801e+001
1.041851e+002,2.317980e+001
1.051493e+002,2.475126e+001
1.061135e+002,2.619811e+001
1.070778e+002,2.687446e+001
1.080420e+002,2.613210e+001
1.090062e+002,2.392288e+001
1.099705e+002,2.089603e+001
1.109347e+002,1.793679e+001
1.118989e+002,1.538640e+001
1.128632e+002,1.443815e+001
1.138274e+002,1.599302e+001
1.147916e+002,2.060516e+001
1.157559e+002,2.365532e+001
1.167201e+002,2.535180e+001
1.176843e+002,2.592589e+001
1.186486e+002,2.553642e+001
1.196128e+002,2.292090e+001
1.205770e+002,2.095342e+001
1.215413e+002,2.030925e+001
1.225055e+002,2.045891e+001
1.234697e+002,2.020842e+001
1.244340e+002,1.834885e+001
1.253982e+002,1.618152e+001
1.263624e+002,1.329875e+001
1.273267e+002,1.010094e+001
1.282909e+002,7.967291e+000
1.292551e+002,1.172420e+001
1.302194e+002,1.742227e+001
1.311836e+002,2.158989e+001
1.321478e+002,2.202340e+001
1.331121e+002,1.868736e+001
1.340763e+002,1.628705e+001
1.350405e+002,1.478344e+001
1.360048e+002,1.384525e+001
1.369690e+002,1.306676e+001
1.379332e+002,1.199905e+001
1.388975e+002,1.228318e+001
1.398617e+002,1.484494e+001
1.408259e+002,1.831524e+001
1.417902e+002,2.057587e+001
1.427544e+002,2.028320e+001
1.437186e+002,1.903936e+001
1.446829e+002,1.655320e+001
1.456471e+002,1.332408e+001
1.466113e+002,1.042224e+001
1.475756e+002,9.209692e+000
1.485398e+002,9.229431e+000
1.495040e+002,1.110902e+001
1.504683e+002,1.481069e+001
1.514325e+002,1.958630e+001
1.523967e+002,2.070272e+001
1.533610e+002,1.901276e+001
1.543252e+002,1.689704e+001
1.552894e+002,1.614448e+001
1.562537e+002,1.759501e+001
1.572179e+002,1.750200e+001
1.581821e+002,1.398555e+001
1.591464e+002,1.037341e+001
1.601106e+002,1.046319e+001
1.610748e+002,1.869118e+001
1.620391e+002,2.441294e+001
1.630033e+002,2.488774e+001
1.639676e+002,2.169811e+001
1.649318e+002,1.732669e+001
1.658960e+002,1.290045e+001
1.668603e+002,9.441284e+000
1.678245e+002,7.869647e+000
1.687887e+002,8.020758e+000
1.697530e+002,9.184125e+000
1.707172e+002,9.540075e+000
1.716814e+002,9.461420e+000
1.726457e+002,1.015948e+001
1.736099e+002,1.220691e+001
1.745741e+002,1.571949e+001
1.755384e+002,1.666555e+001
1.765026e+002,1.383622e+001
1.774668e+002,1.068767e+001
1.784311e+002,9.002643e+000
1.793953e+002,9.329974e+000
1.803595e+002,9.699219e+000
1.813238e+002,9.100702e+000
1.822880e+002,8.624951e+000
1.832522e+002,9.565577e+000
1.842165e+002,1.365032e+001
1.851807e+002,1.672537e+001
1.861449e+002,1.528018e+001
1.871092e+002,1.126734e+001
1.880734e+002,7.106122e+000
1.890376e+002,5.975372e+000
1.900019e+002,7.452240e+000
1.909661e+002,9.864367e+000
1.919303e+002,1.304129e+001
1.928946e+002,1.638536e+001
1.938588e+002,1.779205e+001
1.948230e+002,1.587300e+001
1.957873e+002,1.508655e+001
1.967515e+002,1.585627e+001
1.977157e+002,1.823173e+001
1.986800e+002,2.288231e+001
1.996442e+002,2.927984e+001
2.006084e+002,3.808414e+001
2.015727e+002,5.331305e+001
2.025369e+002,7.578320e+001
2.035011e+002,9.104280e+001
2.044654e+002,8.462775e+001
2.054296e+002,7.088808e+001
2.063938e+002,5.662889e+001
2.073581e+002,4.650013e+001
2.083223e+002,4.074781e+001
2.092865e+002,3.887232e+001
2.102508e+002,4.008451e+001
2.112150e+002,4.403926e+001
2.121792e+002,5.048652e+001
2.131435e+002,6.044786e+001
2.141077e+002,6.658350e+001
2.150719e+002,6.817235e+001
2.160362e+002,6.700620e+001
2.170004e+002,6.544890e+001
2.179646e+002,6.185585e+001
2.189289e+002,6.043850e+001
2.198931e+002,6.048571e+001
2.208573e+002,6.278546e+001
2.218216e+002,6.901900e+001
2.227858e+002,8.548544e+001
2.237500e+002,1.009270e+002
2.247143e+002,1.132454e+002
2.256785e+002,1.207970e+002
2.266427e+002,1.217144e+002
2.276070e+002,1.073307e+002
2.285712e+002,8.527442e+001
2.295354e+002,6.465701e+001
2.304997e+002,4.827261e+001
2.314639e+002,3.587211e+001
2.324281e+002,2.677454e+001
2.333924e+002,2.108830e+001
2.343566e+002,1.680505e+001
2.353208e+002,1.335012e+001
2.362851e+002,1.075664e+001
2.372493e+002,8.912933e+000
2.382135e+002,8.185132e+000
2.391778e+002,7.627783e+000
2.401420e+002,6.770966e+000
2.411062e+002,5.417645e+000
2.420705e+002,4.109784e+000
2.430347e+002,3.044971e+000
2.439989e+002,2.168237e+000
2.449632e+002,1.454401e+000
2.459274e+002,8.865479e-001
2.468916e+002,5.993164e-001
2.478559e+002,1.071820e+000
2.488201e+002,1.938007e+000
2.497843e+002,2.328937e+000
2.507486e+002,1.198132e+000
2.517128e+002,-1.976605e+000
2.526770e+002,-3.336993e+000
2.536413e+002,-2.493854e+000
2.546055e+002,-4.039795e-001
2.555697e+002,1.529962e+000
2.565340e+002,3.770105e+000
2.574982e+002,5.037408e+000
2.584625e+002,4.631250e+000
2.594267e+002,3.422607e+000
2.603909e+002,2.906525e+000
2.613552e+002,4.721728e+000
2.623194e+002,6.358594e+000
2.632836e+002,6.596014e+000
2.642479e+002,5.684381e+000
2.652121e+002,4.474957e+000
2.661763e+002,4.477155e+000
2.671406e+002,4.791730e+000
2.681048e+002,3.670026e+000
2.690690e+002,9.050843e-001
2.700333e+002,-2.740228e+000
2.709975e+002,-3.969409e+000
2.719617e+002,-2.095435e+000
2.729260e+002,-2.153809e-001
2.738902e+002,1.110352e+000
2.748544e+002,1.875293e+000
2.758187e+002,2.358386e+000
2.767829e+002,2.664996e+000
2.777471e+002,2.532709e+000
2.787114e+002,1.716827e+000
2.796756e+002,2.495422e-001
2.806398e+002,-1.180212e+000
2.816041e+002,-2.573205e+000
2.825683e+002,-3.515033e+000
2.835325e+002,-3.491156e+000
2.844968e+002,-2.373114e+000
2.854610e+002,-7.749634e-001
2.864252e+002,-2.894043e-001
2.873895e+002,-4.020325e-001
2.883537e+002,-3.191651e-001
2.893179e+002,4.807678e-001
2.902822e+002,2.088116e+000
2.912464e+002,2.853534e+000
2.922106e+002,3.006000e+000
2.931749e+002,2.451361e+000
2.941391e+002,7.034424e-001
2.951033e+002,-3.146326e+000
2.960676e+002,-5.268176e+000
2.970318e+002,-4.658978e+000
2.979960e+002,-3.143262e+000
2.989603e+002,-1.910077e+000
2.999245e+002,-1.526703e+000
3.008887e+002,-1.324115e+000
3.018530e+002,-7.218628e-001
3.028172e+002,-1.006470e-002
3.037814e+002,5.904968e-001
3.047457e+002,9.085388e-001
3.057099e+002,8.991821e-001
3.066741e+002,4.078674e-001
3.076384e+002,-4.837036e-001
3.086026e+002,-1.420654e+000
3.095668e+002,-2.003686e+000
3.105311e+002,-2.084570e+000
3.114953e+002,-1.865588e+000
3.124595e+002,-9.263306e-001
3.134238e+002,-1.312256e-003
3.143880e+002,-1.541565e-001
3.153522e+002,-2.797931e+000
3.163165e+002,-4.007800e+000
3.172807e+002,-2.219550e+000
3.182449e+002,8.437927e-001
3.192092e+002,3.160285e+000
3.201734e+002,3.059375e+000
3.211376e+002,2.508575e+000
3.221019e+002,3.249829e+000
3.230661e+002,4.795312e+000
3.240303e+002,6.361639e+000
3.249946e+002,7.010669e+000
3.259588e+002,6.720202e+000
3.269230e+002,6.166242e+000
3.278873e+002,5.306281e+000
3.288515e+002,4.798718e+000
3.298157e+002,5.855615e+000
3.307800e+002,1.035954e+001
3.317442e+002,1.334449e+001
3.327084e+002,1.406949e+001
3.336727e+002,1.346235e+001
3.346369e+002,1.323645e+001
3.356011e+002,1.463792e+001
3.365654e+002,1.508273e+001
3.375296e+002,1.254211e+001
3.384938e+002,8.932709e+000
3.394581e+002,7.287445e+000
3.404223e+002,1.103134e+001
3.413865e+002,1.689572e+001
3.423508e+002,2.189957e+001
3.433150e+002,2.605396e+001
3.442792e+002,2.973251e+001
3.452435e+002,3.334398e+001
3.462077e+002,3.716231e+001
3.471719e+002,4.303745e+001
3.481362e+002,5.090760e+001
3.491004e+002,6.099414e+001
3.500646e+002,7.373668e+001
3.510289e+002,8.499117e+001
3.519931e+002,1.066122e+002
3.529573e+002,1.422721e+002
3.539216e+002,1.875245e+002
3.548858e+002,2.364795e+002
3.558500e+002,3.018971e+002
3.568143e+002,3.477054e+002
3.577785e+002,3.613368e+002
3.587427e+002,3.478719e+002
3.597070e+002,3.156345e+002
3.606712e+002,2.650373e+002
3.616354e+002,2.088396e+002
3.625997e+002,1.623731e+002
3.635639e+002,1.265149e+002
3.645281e+002,9.986308e+001
3.654924e+002,7.984634e+001
3.664566e+002,6.844923e+001
3.674208e+002,5.783940e+001
3.683851e+002,4.741679e+001
3.693493e+002,3.798637e+001
3.703135e+002,3.147355e+001
3.712778e+002,3.090521e+001
3.722420e+002,2.974055e+001
3.732062e+002,2.681120e+001
3.741705e+002,2.314261e+001
3.751347e+002,2.038820e+001
3.760989e+002,1.969269e+001
3.770632e+002,1.983113e+001
3.780274e+002,2.065497e+001
3.789916e+002,2.156553e+001
3.799559e+002,2.170274e+001
3.809201e+002,1.991569e+001
3.818844e+002,1.707101e+001
3.828486e+002,1.552494e+001
3.838128e+002,1.525542e+001
3.847771e+002,1.585755e+001
3.857413e+002,1.673132e+001
3.867055e+002,1.806452e+001
3.876698e+002,1.930325e+001
3.886340e+002,2.029200e+001
3.895982e+002,2.117423e+001
3.905625e+002,2.222078e+001
3.915267e+002,2.375794e+001
3.924909e+002,2.496057e+001
3.934552e+002,2.617863e+001
3.944194e+002,2.686757e+001
3.953836e+002,2.622727e+001
3.963479e+002,2.331536e+001
3.973121e+002,2.007884e+001
3.982763e+002,1.809596e+001
3.992406e+002,1.715783e+001
4.002048e+002,1.704788e+001
4.011690e+002,1.756483e+001
4.021333e+002,1.865804e+001
4.030975e+002,1.976990e+001
4.040617e+002,2.090492e+001
4.050260e+002,2.222325e+001
4.059902e+002,2.379315e+001
4.069544e+002,2.533949e+001
4.079187e+002,2.814169e+001
4.088829e+002,3.236725e+001
4.098471e+002,3.729235e+001
4.108114e+002,4.225065e+001
4.117756e+002,4.688212e+001
4.127398e+002,5.270516e+001
4.137041e+002,6.268116e+001
4.146683e+002,7.232581e+001
4.156325e+002,7.847128e+001
4.165968e+002,7.943866e+001
4.175610e+002,7.646568e+001
4.185252e+002,7.005534e+001
4.194895e+002,6.226728e+001
4.204537e+002,5.561858e+001
4.214179e+002,5.170446e+001
4.223822e+002,5.038991e+001
4.233464e+002,4.920295e+001
4.243106e+002,4.746008e+001
4.252749e+002,4.703436e+001
4.262391e+002,4.822764e+001
4.272033e+002,5.089713e+001
4.281676e+002,5.808854e+001
4.291318e+002,7.226219e+001
4.300960e+002,8.824678e+001
4.310603e+002,1.035898e+002
4.320245e+002,1.181770e+002
4.329887e+002,1.354908e+002
4.339530e+002,1.603080e+002
4.349172e+002,1.879350e+002
4.358814e+002,2.200952e+002
4.368457e+002,2.545733e+002
4.378099e+002,2.856951e+002
4.387741e+002,3.018461e+002
4.397384e+002,3.042597e+002
4.407026e+002,2.953747e+002
4.416668e+002,2.746603e+002
4.426311e+002,2.453776e+002
4.435953e+002,2.184583e+002
4.445595e+002,1.922080e+002
4.455238e+002,1.715449e+002
4.464880e+002,1.586677e+002
4.474522e+002,1.513782e+002
4.484165e+002,1.453672e+002
4.493807e+002,1.415366e+002
4.503449e+002,1.364972e+002
4.513092e+002,1.290618e+002
4.522734e+002,1.197469e+002
4.532376e+002,1.090290e+002
4.542019e+002,9.663798e+001
4.551661e+002,8.471025e+001
4.561303e+002,7.558202e+001
4.570946e+002,6.889119e+001
4.580588e+002,6.385012e+001
4.590230e+002,5.961018e+001
4.599873e+002,5.630492e+001
4.609515e+002,5.318578e+001
4.619157e+002,4.972501e+001
4.628800e+002,4.708928e+001
4.638442e+002,4.641818e+001
4.648084e+002,4.824956e+001
4.657727e+002,5.066522e+001
4.667369e+002,5.400007e+001
4.677011e+002,5.743392e+001
4.686654e+002,6.066140e+001
4.696296e+002,6.360164e+001
4.705938e+002,6.555252e+001
4.715581e+002,6.596930e+001
4.725223e+002,6.530351e+001
4.734865e+002,6.367226e+001
4.744508e+002,6.120217e+001
4.754150e+002,5.802847e+001
4.763792e+002,5.381879e+001
4.773435e+002,4.904524e+001
4.783077e+002,4.525748e+001
4.792719e+002,4.308712e+001
4.802362e+002,4.221310e+001
4.812004e+002,4.073727e+001
4.821646e+002,3.800718e+001
4.831289e+002,3.532809e+001
4.840931e+002,3.263914e+001
4.850573e+002,2.999653e+001
4.860216e+002,2.755084e+001
4.869858e+002,2.533975e+001
4.879500e+002,2.380251e+001
4.889143e+002,2.339667e+001
4.898785e+002,2.360809e+001
4.908427e+002,2.367965e+001
4.918070e+002,2.294919e+001
4.927712e+002,2.171207e+001
4.937354e+002,2.023404e+001
4.946997e+002,1.880837e+001
4.956639e+002,1.818155e+001
4.966281e+002,1.913937e+001
4.975924e+002,2.187613e+001
4.985566e+002,2.381473e+001
4.995208e+002,2.444634e+001
5.004851e+002,2.518382e+001
5.014493e+002,2.720500e+001
5.024135e+002,3.087545e+001
5.033778e+002,3.415936e+001
5.043420e+002,3.707409e+001
5.053063e+002,3.961098e+001
5.062705e+002,4.172600e+001
5.072347e+002,4.333539e+001
5.081990e+002,4.423340e+001
5.091632e+002,4.461356e+001
5.101274e+002,4.392169e+001
5.110917e+002,4.116127e+001
5.120559e+002,3.650167e+001
5.130201e+002,3.107571e+001
5.139844e+002,2.701598e+001
5.149486e+002,2.420118e+001
5.159128e+002,2.115319e+001
5.168771e+002,1.768854e+001
5.178413e+002,1.399994e+001
5.188055e+002,1.043770e+001
5.197698e+002,6.240521e+000
5.207340e+002,3.547131e+000
5.216982e+002,3.245880e+000
5.226625e+002,3.900684e+000
5.236267e+002,3.849915e+000
5.245909e+002,2.275403e+000
5.255552e+002,9.675598e-001
5.265194e+002,1.217914e+000
5.274836e+002,1.906525e+000
5.284479e+002,1.954901e+000
5.294121e+002,8.043274e-001
5.303763e+002,-7.907165e-001
5.313406e+002,-1.245288e+000
5.323048e+002,-9.153992e-001
5.332690e+002,-2.075806e-002
5.342333e+002,1.402563e+000
5.351975e+002,3.167401e+000
5.361617e+002,3.676105e+000
5.371260e+002,1.680432e+000
5.380902e+002,4.135803e-001
5.390544e+002,9.362610e-001
5.400187e+002,2.624609e+000
5.409829e+002,3.471313e+000
5.419471e+002,2.022412e+000
5.429114e+002,1.067127e+000
5.438756e+002,1.831555e+000
5.448398e+002,3.431537e+000
5.458041e+002,4.463153e+000
5.467683e+002,3.818310e+000
5.477325e+002,2.470856e+000
5.486968e+002,1.733740e+000
5.496610e+002,1.512036e+000
5.506252e+002,1.743347e+000
5.515895e+002,2.380115e+000
5.525537e+002,3.398505e+000
5.535179e+002,3.722858e+000
5.544822e+002,3.269635e+000
5.554464e+002,2.815179e+000
5.564106e+002,2.860553e+000
5.573749e+002,3.389105e+000
5.583391e+002,3.355939e+000
5.593033e+002,2.256714e+000
5.602676e+002,1.050079e+000
5.612318e+002,-4.417908e-001
5.621960e+002,-1.891272e+000
5.631603e+002,-2.408362e+000
5.641245e+002,-3.860351e-001
5.650887e+002,1.670160e+000
5.660530e+002,1.218085e+000
5.670172e+002,-9.529846e-001
5.679814e+002,-2.875116e+000
5.689457e+002,-2.391534e+000
5.699099e+002,2.852661e-001
5.708741e+002,1.410559e+000
5.718384e+002,9.108765e-001
5.728026e+002,6.195068e-003
5.737668e+002,-2.953857e-001
5.747311e+002,1.897156e-001
5.756953e+002,2.587952e-001
5.766595e+002,-1.122437e-001
5.776238e+002,-7.855469e-001
5.785880e+002,-2.098407e+000
5.795522e+002,-3.862006e+000
5.805165e+002,-4.991968e+000
5.814807e+002,-4.135755e+000
5.824449e+002,-2.865900e+000
5.834092e+002,-1.856885e+000
5.843734e+002,-1.221588e+000
5.853376e+002,-8.167419e-001
5.863019e+002,-4.189514e-001
5.872661e+002,-2.399841e-001
5.882303e+002,-1.157922e+000
5.891946e+002,-3.212085e+000
5.901588e+002,-5.150043e+000
5.911230e+002,-5.634845e+000
5.920873e+002,-4.263257e+000
5.930515e+002,-2.972070e+000
5.940157e+002,-1.121588e+000
5.949800e+002,1.171082e-001
5.959442e+002,-3.748108e-001
5.969084e+002,-2.539710e+000
5.978727e+002,-3.977741e+000
5.988369e+002,-2.237335e+000
5.998011e+002,-3.205994e-001
6.007654e+002,7.548706e-001
6.017296e+002,8.656067e-001
6.026938e+002,2.194946e-001
6.036581e+002,-1.251984e+000
6.046223e+002,-2.939453e+000
6.055865e+002,-3.043720e+000
6.065508e+002,-1.644952e+000
6.075150e+002,5.797119e-002
6.084792e+002,7.602844e-001
6.094435e+002,2.186157e-001
6.104077e+002,-6.426392e-002
6.113719e+002,-1.353149e-001
6.123362e+002,-6.134033e-002
6.133004e+002,1.433716e-002
6.142646e+002,9.895630e-002
6.152289e+002,6.426147e-001
6.161931e+002,2.662268e+000
6.171573e+002,4.429083e+000
6.181216e+002,5.356549e+000
6.190858e+002,5.514178e+000
6.200500e+002,5.106842e+000
6.210143e+002,3.878851e+000
6.219785e+002,2.889343e+000
6.229427e+002,4.399683e+000
6.239070e+002,7.928992e+000
6.248712e+002,1.145567e+001
6.258354e+002,1.300217e+001
6.267997e+002,1.232634e+001
6.277639e+002,1.284659e+001
6.287281e+002,1.514705e+001
6.296924e+002,1.736675e+001
6.306566e+002,1.887642e+001
6.316208e+002,1.967359e+001
6.325851e+002,1.979980e+001
6.335493e+002,1.858891e+001
6.345135e+002,1.741147e+001
6.354778e+002,1.651272e+001
6.364420e+002,1.590950e+001
6.374063e+002,1.560856e+001
6.383705e+002,1.575720e+001
6.393347e+002,1.587092e+001
6.402990e+002,1.515077e+001
6.412632e+002,1.386351e+001
6.422274e+002,1.254787e+001
6.431917e+002,1.159543e+001
6.441559e+002,1.097219e+001
6.451201e+002,1.028443e+001
6.460844e+002,9.474543e+000
6.470486e+002,8.705505e+000
6.480128e+002,8.132525e+000
6.489771e+002,7.678320e+000
6.499413e+002,6.934278e+000
6.509055e+002,5.012683e+000
6.518698e+002,3.915759e+000
6.528340e+002,4.749329e+000
6.537982e+002,6.470154e+000
6.547625e+002,7.766418e+000
6.557267e+002,7.862353e+000
6.566909e+002,7.294623e+000
6.576552e+002,6.740003e+000
6.586194e+002,6.195453e+000
6.595836e+002,5.527295e+000
6.605479e+002,4.717383e+000
6.615121e+002,4.099823e+000
6.624763e+002,5.097748e+000
6.634406e+002,8.913055e+000
6.644048e+002,1.115888e+001
6.653690e+002,1.019781e+001
6.663333e+002,7.525519e+000
6.672975e+002,6.078870e+000
6.682617e+002,6.842926e+000
6.692260e+002,7.512403e+000
6.701902e+002,7.442481e+000
6.711544e+002,7.128662e+000
6.721187e+002,6.931170e+000
6.730829e+002,6.957660e+000
6.740471e+002,7.020612e+000
6.750114e+002,6.585504e+000
6.759756e+002,6.260046e+000
6.769398e+002,6.928369e+000
6.779041e+002,8.673883e+000
6.788683e+002,1.082958e+001
6.798325e+002,1.221616e+001
6.807968e+002,1.267561e+001
6.817610e+002,1.248877e+001
6.827252e+002,1.094251e+001
6.836895e+002,9.361176e+000
6.846537e+002,9.113562e+000
6.856179e+002,1.052295e+001
6.865822e+002,1.131975e+001
6.875464e+002,1.059428e+001
6.885106e+002,9.587726e+000
6.894749e+002,8.500452e+000
6.904391e+002,7.590796e+000
6.914034e+002,7.268988e+000
6.923676e+002,8.100006e+000
6.933318e+002,9.615491e+000
6.942961e+002,1.127336e+001
6.952603e+002,1.293433e+001
6.962245e+002,1.416293e+001
6.971888e+002,1.451968e+001
6.981530e+002,1.395192e+001
6.991172e+002,1.472361e+001
7.000815e+002,1.761707e+001
7.010457e+002,1.999670e+001
7.020099e+002,2.073429e+001
7.029742e+002,2.017997e+001
7.039384e+002,1.986761e+001
7.049026e+002,2.016379e+001
7.058669e+002,2.055090e+001
7.068311e+002,2.069177e+001
7.077953e+002,2.088400e+001
7.087596e+002,2.166409e+001
7.097238e+002,2.338364e+001
7.106880e+002,2.527259e+001
7.116523e+002,2.613568e+001
7.126165e+002,2.623710e+001
7.135807e+002,2.576390e+001
7.145450e+002,2.483317e+001
7.155092e+002,2.370823e+001
7.164734e+002,2.304364e+001
7.174377e+002,2.324234e+001
7.184019e+002,2.300011e+001
7.193661e+002,2.184585e+001
7.203304e+002,2.048382e+001
7.212946e+002,1.991899e+001
7.222589e+002,2.061713e+001
7.232231e+002,2.040691e+001
7.241873e+002,1.715304e+001
7.251516e+002,1.410410e+001
7.261158e+002,1.341259e+001
7.270800e+002,1.484588e+001
7.280443e+002,1.620387e+001
7.290085e+002,1.494511e+001
7.299727e+002,1.251696e+001
7.309370e+002,1.207856e+001
7.319012e+002,1.344021e+001
7.328654e+002,1.518702e+001
7.338297e+002,1.607894e+001
7.347939e+002,1.609229e+001
7.357581e+002,1.549245e+001
7.367224e+002,1.335106e+001
7.376866e+002,1.185690e+001
7.386508e+002,1.193553e+001
7.396151e+002,1.309581e+001
7.405793e+002,1.396352e+001
7.415435e+002,1.402715e+001
7.425078e+002,1.407563e+001
7.434720e+002,1.430323e+001
7.444362e+002,1.469725e+001
7.454005e+002,1.525573e+001
7.463647e+002,1.597804e+001
7.473289e+002,1.684842e+001
7.482932e+002,1.827830e+001
7.492574e+002,1.985449e+001
7.502216e+002,2.010038e+001
7.511859e+002,1.853646e+001
7.521501e+002,1.618059e+001
7.531143e+002,1.498258e+001
7.540786e+002,1.582399e+001
7.550428e+002,1.580417e+001
7.560070e+002,1.363948e+001
7.569713e+002,1.198245e+001
7.579355e+002,1.302147e+001
7.588997e+002,1.661234e+001
7.598640e+002,1.943878e+001
7.608282e+002,1.915533e+001
7.617924e+002,1.810931e+001
7.627567e+002,1.700022e+001
7.637209e+002,1.615640e+001
7.646851e+002,1.592739e+001
7.656494e+002,1.660612e+001
7.666136e+002,1.797930e+001
7.675778e+002,1.941635e+001
7.685421e+002,2.091839e+001
7.695063e+002,2.198611e+001
7.704705e+002,2.235205e+001
7.714348e+002,2.212783e+001
7.723990e+002,2.171360e+001
7.733632e+002,2.061969e+001
7.743275e+002,2.008044e+001
7.752917e+002,2.042474e+001
7.762559e+002,2.119045e+001
7.772202e+002,2.194312e+001
7.781844e+002,2.256485e+001
7.791486e+002,2.336071e+001
7.801129e+002,2.491076e+001
7.810771e+002,2.654471e+001
7.820413e+002,2.776189e+001
7.830056e+002,2.860275e+001
7.839698e+002,2.950508e+001
7.849340e+002,3.100264e+001
7.858983e+002,3.300493e+001
7.868625e+002,3.378161e+001
7.878267e+002,3.299715e+001
7.887910e+002,3.233693e+001
7.897552e+002,3.290658e+001
7.907194e+002,3.454427e+001
7.916837e+002,3.574389e+001
7.926479e+002,3.561060e+001
7.936121e+002,3.601703e+001
7.945764e+002,3.789336e+001
7.955406e+002,4.014169e+001
7.965048e+002,4.141206e+001
7.974691e+002,4.120590e+001
7.984333e+002,4.088706e+001
7.993975e+002,4.241320e+001
8.003618e+002,4.465905e+001
8.013260e+002,4.645623e+001
8.022902e+002,4.761573e+001
8.032545e+002,4.874650e+001
8.042187e+002,5.083301e+001
8.051829e+002,5.422510e+001
8.061472e+002,5.663023e+001
8.071114e+002,5.680737e+001
8.080756e+002,5.746485e+001
8.090399e+002,6.026498e+001
8.100041e+002,6.495437e+001
8.109683e+002,6.954053e+001
8.119326e+002,7.305331e+001
8.128968e+002,7.696207e+001
8.138610e+002,8.203225e+001
8.148253e+002,8.765916e+001
8.157895e+002,9.283067e+001
8.167537e+002,9.713399e+001
8.177180e+002,1.014865e+002
8.186822e+002,1.083002e+002
8.196464e+002,1.164943e+002
8.206107e+002,1.240276e+002
8.215749e+002,1.304899e+002
8.225391e+002,1.351230e+002
8.235034e+002,1.365280e+002
8.244676e+002,1.335770e+002
8.254318e+002,1.305187e+002
8.263961e+002,1.281209e+002
8.273603e+002,1.251560e+002
8.283245e+002,1.205354e+002
8.292888e+002,1.146358e+002
8.302530e+002,1.091586e+002
8.312172e+002,1.050809e+002
8.321815e+002,1.013677e+002
8.331457e+002,9.726223e+001
8.341099e+002,9.316441e+001
8.350742e+002,8.954424e+001
8.360384e+002,8.663030e+001
8.370026e+002,8.425603e+001
8.379669e+002,8.215480e+001
8.389311e+002,8.030512e+001
8.398953e+002,7.759534e+001
8.408596e+002,7.343038e+001
8.418238e+002,6.902373e+001
8.427880e+002,6.578659e+001
8.437523e+002,6.383848e+001
8.447165e+002,6.257809e+001
8.456807e+002,6.315168e+001
8.466450e+002,6.308036e+001
8.476092e+002,6.111127e+001
8.485734e+002,5.776925e+001
8.495377e+002,5.417873e+001
8.505019e+002,5.082203e+001
8.514661e+002,4.826679e+001
8.524304e+002,4.789851e+001
8.533946e+002,4.851858e+001
8.543588e+002,4.802874e+001
8.553231e+002,4.567825e+001
8.562873e+002,4.270626e+001
8.572515e+002,4.189254e+001
8.582158e+002,4.432470e+001
8.591800e+002,4.564964e+001
8.601442e+002,4.497413e+001
8.611085e+002,4.409296e+001
8.620727e+002,4.450510e+001
8.630369e+002,4.612865e+001
8.640012e+002,4.699272e+001
8.649654e+002,4.572149e+001
8.659296e+002,4.428788e+001
8.668939e+002,4.320715e+001
8.678581e+002,4.265078e+001
8.688223e+002,4.292353e+001
8.697866e+002,4.411573e+001
8.707508e+002,4.567398e+001
8.717150e+002,4.655437e+001
8.726793e+002,4.677027e+001
8.736435e+002,4.629023e+001
8.746077e+002,4.502030e+001
8.755720e+002,4.337954e+001
8.765362e+002,4.182806e+001
8.775004e+002,4.033051e+001
8.784647e+002,3.914944e+001
8.794289e+002,3.830367e+001
8.803931e+002,3.766604e+001
8.813574e+002,3.759602e+001
8.823216e+002,3.762218e+001
8.832858e+002,3.669928e+001
8.842501e+002,3.412027e+001
8.852143e+002,3.161279e+001
8.861785e+002,3.127847e+001
8.871428e+002,3.176904e+001
8.881070e+002,3.151033e+001
8.890712e+002,3.010860e+001
8.900355e+002,2.830863e+001
8.909997e+002,2.732780e+001
8.919639e+002,2.736042e+001
8.929282e+002,2.695447e+001
8.938924e+002,2.577946e+001
8.948566e+002,2.465890e+001
8.958209e+002,2.396601e+001
8.967851e+002,2.366273e+001
8.977493e+002,2.365223e+001
8.987136e+002,2.438817e+001
8.996778e+002,2.446751e+001
9.006420e+002,2.265436e+001
9.016063e+002,2.054541e+001
9.025705e+002,2.002718e+001
9.035347e+002,2.137527e+001
9.044990e+002,2.273068e+001
9.054632e+002,2.143194e+001
9.064274e+002,1.814885e+001
9.073917e+002,1.636039e+001
9.083559e+002,1.620447e+001
9.093201e+002,1.632654e+001
9.102844e+002,1.555769e+001
9.112486e+002,1.397662e+001
9.122128e+002,1.325253e+001
9.131771e+002,1.464617e+001
9.141413e+002,1.526797e+001
9.151055e+002,1.434586e+001
9.160698e+002,1.289629e+001
9.170340e+002,1.176066e+001
9.179982e+002,1.114670e+001
9.189625e+002,1.101671e+001
9.199267e+002,1.184287e+001
9.208909e+002,1.276561e+001
9.218552e+002,1.302144e+001
9.228194e+002,1.262293e+001
9.237836e+002,1.172017e+001
9.247479e+002,1.041975e+001
9.257121e+002,8.862585e+000
9.266763e+002,7.886450e+000
9.276406e+002,7.670724e+000
9.286048e+002,7.649780e+000
9.295690e+002,7.911929e+000
9.305333e+002,8.266825e+000
9.314975e+002,8.765549e+000
9.324617e+002,9.514257e+000
9.334260e+002,9.205981e+000
9.343902e+002,5.288001e+000
9.353545e+002,1.964236e+000
9.363187e+002,1.222360e+000
9.372830e+002,2.448877e+000
9.382472e+002,4.453259e+000
9.392114e+002,6.473532e+000
9.401757e+002,8.374021e+000
9.411399e+002,9.768619e+000
9.421041e+002,1.064215e+001
9.430684e+002,1.069631e+001
9.440326e+002,9.575983e+000
9.449968e+002,8.147125e+000
9.459611e+002,7.503568e+000
9.469253e+002,7.768786e+000
9.478895e+002,8.388104e+000
9.488538e+002,1.020890e+001
9.498180e+002,1.130807e+001
9.507822e+002,1.051891e+001
9.517465e+002,8.870447e+000
9.527107e+002,7.829566e+000
9.536749e+002,7.997787e+000
9.546392e+002,8.872904e+000
9.556034e+002,1.009435e+001
9.565676e+002,1.150155e+001
9.575319e+002,1.329865e+001
9.584961e+002,1.536647e+001
9.594603e+002,1.660006e+001
9.604246e+002,1.561937e+001
9.613888e+002,1.237919e+001
9.623530e+002,1.148964e+001
9.633173e+002,1.430718e+001
9.642815e+002,1.755011e+001
9.652457e+002,2.054093e+001
9.662100e+002,2.401457e+001
9.671742e+002,2.849305e+001
9.681384e+002,3.398991e+001
9.691027e+002,4.150341e+001
9.700669e+002,5.169822e+001
9.710311e+002,6.443742e+001
9.719954e+002,8.423676e+001
9.729596e+002,1.064649e+002
9.739238e+002,1.211983e+002
9.748881e+002,1.217310e+002
9.758523e+002,1.112114e+002
9.768165e+002,9.931929e+001
9.777808e+002,8.553802e+001
9.787450e+002,7.349416e+001
9.797092e+002,6.406390e+001
9.806735e+002,5.610925e+001
9.816377e+002,4.832035e+001
9.826019e+002,4.068284e+001
9.835662e+002,3.501943e+001
9.845304e+002,3.307970e+001
9.854946e+002,3.192455e+001
9.864589e+002,3.079792e+001
9.874231e+002,2.975633e+001
9.883873e+002,2.872795e+001
9.893516e+002,2.776409e+001
9.903158e+002,2.742091e+001
9.912800e+002,2.857482e+001
9.922443e+002,3.127734e+001
9.932085e+002,3.460756e+001
9.941727e+002,3.852771e+001
9.951370e+002,4.360066e+001
9.961012e+002,5.008262e+001
9.970654e+002,5.781769e+001
9.980297e+002,6.642253e+001
9.989939e+002,7.229464e+001
9.999581e+002,8.609004e+001
1.000922e+003,1.040113e+002
1.001887e+003,1.334330e+002
1.002851e+003,1.837017e+002
1.003815e+003,2.522997e+002
1.004779e+003,3.298253e+002
1.005744e+003,4.225007e+002
1.006708e+003,4.957406e+002
1.007672e+003,4.958738e+002
1.008636e+003,4.426920e+002
1.009600e+003,3.732701e+002
1.010565e+003,3.029486e+002
1.011529e+003,2.360005e+002
1.012493e+003,1.819503e+002
1.013457e+003,1.426570e+002
1.014422e+003,1.133374e+002
1.015386e+003,9.674667e+001
1.016350e+003,8.393700e+001
1.017314e+003,7.216145e+001
1.018279e+003,6.145155e+001
1.019243e+003,5.252987e+001
1.020207e+003,4.576790e+001
1.021171e+003,4.036189e+001
1.022135e+003,3.584830e+001
1.023100e+003,3.222010e+001
1.024064e+003,2.990347e+001
1.025028e+003,2.860086e+001
1.025992e+003,2.736576e+001
1.026957e+003,2.534371e+001
1.027921e+003,2.274855e+001
1.028885e+003,2.075570e+001
1.029849e+003,1.963649e+001
1.030814e+003,1.849352e+001
1.031778e+003,1.670695e+001
1.032742e+003,1.515178e+001
1.033706e+003,1.497155e+001
1.034671e+003,1.621007e+001
1.035635e+003,1.720388e+001
1.036599e+003,1.707460e+001
1.037563e+003,1.686411e+001
1.038527e+003,1.725542e+001
1.039492e+003,1.783087e+001
1.040456e+003,1.797492e+001
1.041420e+003,1.750968e+001
1.042384e+003,1.687294e+001
1.043349e+003,1.672921e+001
1.044313e+003,1.705085e+001
1.045277e+003,1.683976e+001
1.046241e+003,1.593628e+001
1.047206e+003,1.502065e+001
1.048170e+003,1.409088e+001
1.049134e+003,1.344166e+001
1.050098e+003,1.405379e+001
1.051063e+003,1.665227e+001
1.052027e+003,1.855154e+001
1.052991e+003,1.857730e+001
1.053955e+003,1.789607e+001
1.054919e+003,1.678835e+001
1.055884e+003,1.554635e+001
1.056848e+003,1.458099e+001
1.057812e+003,1.415980e+001
1.058776e+003,1.400316e+001
1.059741e+003,1.336223e+001
1.060705e+003,1.229887e+001
1.061669e+003,1.164973e+001
1.062633e+003,1.156590e+001
1.063598e+003,1.168175e+001
1.064562e+003,1.174883e+001
1.065526e+003,1.180257e+001
1.066490e+003,1.181206e+001
1.067454e+003,1.150853e+001
1.068419e+003,1.159527e+001
1.069383e+003,1.232421e+001
1.070347e+003,1.328771e+001
1.071311e+003,1.431920e+001
1.072276e+003,1.531333e+001
1.073240e+003,1.609765e+001
1.074204e+003,1.651403e+001
1.075168e+003,1.670741e+001
1.076133e+003,1.707103e+001
1.077097e+003,1.752110e+001
1.078061e+003,1.772672e+001
1.079025e+003,1.761094e+001
1.079990e+003,1.713419e+001
1.080954e+003,1.595397e+001
1.081918e+003,1.380111e+001
1.082882e+003,1.287759e+001
1.083846e+003,1.473753e+001
1.084811e+003,1.612005e+001
1.085775e+003,1.608011e+001
1.086739e+003,1.544207e+001
1.087703e+003,1.515654e+001
1.088668e+003,1.544212e+001
1.089632e+003,1.578344e+001
1.090596e+003,1.575196e+001
1.091560e+003,1.537145e+001
1.092525e+003,1.452079e+001
1.093489e+003,1.338683e+001
1.094453e+003,1.292046e+001
1.095417e+003,1.366681e+001
1.096381e+003,1.496272e+001
1.097346e+003,1.532914e+001
1.098310e+003,1.423892e+001
1.099274e+003,1.410761e+001
1.100238e+003,1.622303e+001
1.101203e+003,1.772377e+001
1.102167e+003,1.723070e+001
1.103131e+003,1.584589e+001
1.104095e+003,1.504245e+001
1.105060e+003,1.522188e+001
1.106024e+003,1.580463e+001
1.106988e+003,1.654259e+001
1.107952e+003,1.724031e+001
1.108917e+003,1.756034e+001
1.109881e+003,1.752714e+001
1.110845e+003,1.724983e+001
1.111809e+003,1.674050e+001
1.112773e+003,1.616602e+001
1.113738e+003,1.602261e+001
1.114702e+003,1.664683e+001
1.115666e+003,1.687488e+001
1.116630e+003,1.633645e+001
1.117595e+003,1.584239e+001
1.118559e+003,1.560760e+001
1.119523e+003,1.561890e+001
1.120487e+003,1.580328e+001
1.121452e+003,1.615311e+001
1.122416e+003,1.685800e+001
1.123380e+003,1.868423e+001
1.124344e+003,2.030518e+001
1.125308e+003,1.941857e+001
1.126273e+003,1.672341e+001
1.127237e+003,1.496020e+001
1.128201e+003,1.567503e+001
1.129165e+003,1.774790e+001
1.130130e+003,1.847607e+001
1.131094e+003,1.713080e+001
1.132058e+003,1.657565e+001
1.133022e+003,1.739862e+001
1.133987e+003,1.816424e+001
1.134951e+003,1.841410e+001
1.135915e+003,1.837907e+001
1.136879e+003,1.844863e+001
1.137844e+003,1.871023e+001
1.138808e+003,1.879793e+001
1.139772e+003,1.804640e+001
1.140736e+003,1.724070e+001
1.141700e+003,1.784373e+001
1.142665e+003,1.940304e+001
1.143629e+003,2.027659e+001
1.144593e+003,1.962947e+001
1.145557e+003,1.838644e+001
1.146522e+003,1.836194e+001
1.147486e+003,1.987295e+001
1.148450e+003,2.100270e+001
1.149414e+003,2.165359e+001
1.150379e+003,2.223316e+001
1.151343e+003,2.305058e+001
1.152307e+003,2.375196e+001
1.153271e+003,2.369980e+001
1.154235e+003,2.282399e+001
1.155200e+003,2.190513e+001
1.156164e+003,2.123801e+001
1.157128e+003,2.141705e+001
1.158092e+003,2.404506e+001
1.159057e+003,2.789441e+001
1.160021e+003,2.953860e+001
1.160985e+003,2.762213e+001
1.161949e+003,2.437999e+001
1.162914e+003,2.307215e+001
1.163878e+003,2.385147e+001
1.164842e+003,2.533726e+001
1.165806e+003,2.886823e+001
1.166771e+003,3.132889e+001
1.167735e+003,3.188957e+001
1.168699e+003,3.157676e+001
1.169663e+003,3.081443e+001
1.170627e+003,3.000644e+001
1.171592e+003,3.027090e+001
1.172556e+003,3.256556e+001
1.173520e+003,3.553861e+001
1.174484e+003,3.751217e+001
1.175449e+003,3.856237e+001
1.176413e+003,3.833450e+001
1.177377e+003,3.673197e+001
1.178341e+003,3.518373e+001
1.179306e+003,3.518293e+001
1.180270e+003,3.663964e+001
1.181234e+003,3.821493e+001
1.182198e+003,4.050617e+001
1.183162e+003,4.170267e+001
1.184127e+003,4.069398e+001
1.185091e+003,3.959934e+001
1.186055e+003,4.003350e+001
1.187019e+003,4.147815e+001
1.187984e+003,4.253411e+001
1.188948e+003,4.254620e+001
1.189912e+003,4.147379e+001
1.190876e+003,3.847839e+001
1.191841e+003,3.474087e+001
1.192805e+003,3.333324e+001
1.193769e+003,3.440006e+001
1.194733e+003,3.578390e+001
1.195698e+003,3.619729e+001
1.196662e+003,3.596078e+001
1.197626e+003,3.595554e+001
1.198590e+003,3.630709e+001
1.199554e+003,3.637023e+001
1.200519e+003,3.632076e+001
1.201483e+003,3.578868e+001
1.202447e+003,3.401490e+001
1.203411e+003,3.199438e+001
1.204376e+003,3.101702e+001
1.205340e+003,3.125665e+001
1.206304e+003,3.174142e+001
1.207268e+003,3.172055e+001
1.208233e+003,3.135378e+001
1.209197e+003,3.068439e+001
1.210161e+003,2.972200e+001
1.211125e+003,2.918871e+001
1.212089e+003,2.949172e+001
1.213054e+003,2.980066e+001
1.214018e+003,2.894118e+001
1.214982e+003,2.712860e+001
1.215946e+003,2.657778e+001
1.216911e+003,2.813187e+001
1.217875e+003,2.971366e+001
1.218839e+003,3.072448e+001
1.219803e+003,3.142544e+001
1.220768e+003,3.208728e+001
1.221732e+003,3.270357e+001
1.222696e+003,3.302874e+001
1.223660e+003,3.292537e+001
1.224625e+003,3.268061e+001
1.225589e+003,3.280084e+001
1.226553e+003,3.327109e+001
1.227517e+003,3.385057e+001
1.228481e+003,3.473853e+001
1.229446e+003,3.535192e+001
1.230410e+003,3.556058e+001
1.231374e+003,3.525142e+001
1.232338e+003,3.377448e+001
1.233303e+003,3.098284e+001
1.234267e+003,2.975544e+001
1.235231e+003,3.254087e+001
1.236195e+003,3.521943e+001
1.237160e+003,3.525813e+001
1.238124e+003,3.397287e+001
1.239088e+003,3.289020e+001
1.240052e+003,3.244929e+001
1.241016e+003,3.238321e+001
1.241981e+003,3.243968e+001
1.242945e+003,3.250449e+001
1.243909e+003,3.205415e+001
1.244873e+003,3.060875e+001
1.245838e+003,2.997297e+001
1.246802e+003,3.054414e+001
1.247766e+003,3.145886e+001
1.248730e+003,3.228178e+001
1.249695e+003,3.307839e+001
1.250659e+003,3.417027e+001
1.251623e+003,3.569225e+001
1.252587e+003,3.682990e+001
1.253552e+003,3.682111e+001
1.254516e+003,3.631956e+001
1.255480e+003,3.583383e+001
1.256444e+003,3.543588e+001
1.257408e+003,3.518347e+001
1.258373e+003,3.511669e+001
1.259337e+003,3.545529e+001
1.260301e+003,3.668868e+001
1.261265e+003,3.886712e+001
1.262230e+003,3.944342e+001
1.263194e+003,3.631374e+001
1.264158e+003,3.433370e+001
1.265122e+003,3.468791e+001
1.266087e+003,3.542671e+001
1.267051e+003,3.491920e+001
1.268015e+003,3.377530e+001
1.268979e+003,3.401168e+001
1.269943e+003,3.646065e+001
1.270908e+003,3.893261e+001
1.271872e+003,3.878444e+001
1.272836e+003,3.717898e+001
1.273800e+003,3.701834e+001
1.274765e+003,3.824296e+001
1.275729e+003,3.951678e+001
1.276693e+003,4.027745e+001
1.277657e+003,4.067456e+001
1.278622e+003,4.104408e+001
1.279586e+003,4.140073e+001
1.280550e+003,4.077759e+001
1.281514e+003,3.800912e+001
1.282479e+003,3.620753e+001
1.283443e+003,3.665486e+001
1.284407e+003,3.775084e+001
1.285371e+003,3.814728e+001
1.286335e+003,3.801836e+001
1.287300e+003,3.852943e+001
1.288264e+003,4.028628e+001
1.289228e+003,4.228579e+001
1.290192e+003,4.290023e+001
1.291157e+003,4.214307e+001
1.292121e+003,4.123875e+001
1.293085e+003,3.993605e+001
1.294049e+003,3.897833e+001
1.295014e+003,3.876011e+001
1.295978e+003,3.902389e+001
1.296942e+003,3.942641e+001
1.297906e+003,3.999444e+001
1.298870e+003,4.111994e+001
1.299835e+003,4.322937e+001
1.300799e+003,4.499532e+001
1.301763e+003,4.535707e+001
1.302727e+003,4.513879e+001
1.303692e+003,4.504632e+001
1.304656e+003,4.518132e+001
1.305620e+003,4.530940e+001
1.306584e+003,4.526934e+001
1.307549e+003,4.523986e+001
1.308513e+003,4.564993e+001
1.309477e+003,4.662066e+001
1.310441e+003,4.681002e+001
1.311406e+003,4.504745e+001
1.312370e+003,4.428646e+001
1.313334e+003,4.564515e+001
1.314298e+003,4.757458e+001
1.315263e+003,4.907108e+001
1.316227e+003,4.994603e+001
1.317191e+003,4.999677e+001
1.318155e+003,4.906444e+001
1.319120e+003,4.799068e+001
1.320084e+003,4.756709e+001
1.321048e+003,4.772364e+001
1.322012e+003,4.852746e+001
1.322976e+003,4.987343e+001
1.323941e+003,5.065057e+001
1.324905e+003,5.032582e+001
1.325869e+003,4.940528e+001
1.326833e+003,4.832865e+001
1.327798e+003,4.708724e+001
1.328762e+003,4.673484e+001
1.329726e+003,4.786779e+001
1.330690e+003,4.889666e+001
1.331655e+003,4.942937e+001
1.332619e+003,4.970754e+001
1.333583e+003,4.990406e+001
1.334547e+003,4.996451e+001
1.335511e+003,4.951554e+001
1.336476e+003,4.853742e+001
1.337440e+003,4.796410e+001
1.338404e+003,4.908303e+001
1.339368e+003,5.157368e+001
1.340333e+003,5.237834e+001
1.341297e+003,5.080484e+001
1.342261e+003,4.965787e+001
1.343225e+003,4.945024e+001
1.344190e+003,4.957308e+001
1.345154e+003,4.970419e+001
1.346118e+003,4.983195e+001
1.347082e+003,5.002900e+001
1.348047e+003,5.031525e+001
1.349011e+003,5.026814e+001
1.349975e+003,4.931448e+001
1.350939e+003,4.834726e+001
1.351903e+003,4.827348e+001
1.352868e+003,4.885667e+001
1.353832e+003,4.975147e+001
1.354796e+003,5.083277e+001
1.355760e+003,5.172388e+001
1.356725e+003,5.195412e+001
1.357689e+003,5.178320e+001
1.358653e+003,5.258841e+001
1.359617e+003,5.530103e+001
1.360582e+003,5.627131e+001
1.361546e+003,5.319156e+001
1.362510e+003,5.078124e+001
1.363474e+003,5.121523e+001
1.364438e+003,5.275869e+001
1.365403e+003,5.330266e+001
1.366367e+003,5.272440e+001
1.367331e+003,5.241669e+001
1.368295e+003,5.330040e+001
1.369260e+003,5.472825e+001
1.370224e+003,5.560812e+001
1.371188e+003,5.601953e+001
1.372152e+003,5.658952e+001
1.373117e+003,5.746062e+001
1.374081e+003,5.777328e+001
1.375045e+003,5.668365e+001
1.376009e+003,5.535186e+001
1.376974e+003,5.515325e+001
1.377938e+003,5.599639e+001
1.378902e+003,5.708183e+001
1.379866e+003,5.844346e+001
1.380830e+003,5.896210e+001
1.381795e+003,5.700333e+001
1.382759e+003,5.448618e+001
1.383723e+003,5.293626e+001
1.384687e+003,5.238305e+001
1.385652e+003,5.261566e+001
1.386616e+003,5.352316e+001
1.387580e+003,5.467734e+001
1.388544e+003,5.554779e+001
1.389509e+003,5.614252e+001
1.390473e+003,5.693291e+001
1.391437e+003,5.847483e+001
1.392401e+003,5.912316e+001
1.393365e+003,5.776958e+001
1.394330e+003,5.665816e+001
1.395294e+003,5.667263e+001
1.396258e+003,5.740134e+001
1.397222e+003,5.855126e+001
1.398187e+003,5.994498e+001
1.399151e+003,6.135394e+001
1.400115e+003,6.256416e+001
1.401079e+003,6.326564e+001
1.402044e+003,6.287376e+001
1.403008e+003,6.136654e+001
1.403972e+003,5.994387e+001
1.404936e+003,5.839827e+001
1.405901e+003,5.755355e+001
1.406865e+003,5.790295e+001
1.407829e+003,5.883215e+001
1.408793e+003,5.988610e+001
1.409757e+003,6.101040e+001
1.410722e+003,6.206126e+001
1.411686e+003,6.299327e+001
1.412650e+003,6.346854e+001
1.413614e+003,6.284887e+001
1.414579e+003,6.217889e+001
1.415543e+003,6.267493e+001
1.416507e+003,6.405674e+001
1.417471e+003,6.568143e+001
1.418436e+003,6.729800e+001
1.419400e+003,6.814590e+001
1.420364e+003,6.708597e+001
1.421328e+003,6.492641e+001
1.422292e+003,6.529506e+001
1.423257e+003,6.935661e+001
1.424221e+003,7.138580e+001
1.425185e+003,6.814881e+001
1.426149e+003,6.556871e+001
1.427114e+003,6.565517e+001
1.428078e+003,6.710887e+001
1.429042e+003,6.907118e+001
1.430006e+003,7.097170e+001
1.430971e+003,7.204352e+001
1.431935e+003,7.196365e+001
1.432899e+003,7.146117e+001
1.433863e+003,7.160882e+001
1.434828e+003,7.240042e+001
1.435792e+003,7.312127e+001
1.436756e+003,7.376730e+001
1.437720e+003,7.393800e+001
1.438684e+003,7.390413e+001
1.439649e+003,7.327180e+001
1.440613e+003,7.105913e+001
1.441577e+003,6.843363e+001
1.442541e+003,6.729726e+001
1.443506e+003,6.784559e+001
1.444470e+003,6.910744e+001
1.445434e+003,7.084171e+001
1.446398e+003,7.231291e+001
1.447363e+003,7.178616e+001
1.448327e+003,7.025217e+001
1.449291e+003,7.080512e+001
1.450255e+003,7.376093e+001
1.451219e+003,7.574387e+001
1.452184e+003,7.423267e+001
1.453148e+003,7.198763e+001
1.454112e+003,7.293500e+001
1.455076e+003,7.647215e+001
1.456041e+003,7.893015e+001
1.457005e+003,7.982941e+001
1.457969e+003,8.008075e+001
1.458933e+003,7.929187e+001
1.459898e+003,7.874762e+001
1.460862e+003,7.972591e+001
1.461826e+003,8.118961e+001
1.462790e+003,8.145414e+001
1.463755e+003,8.035381e+001
1.464719e+003,7.906871e+001
1.465683e+003,7.844012e+001
1.466647e+003,7.844682e+001
1.467611e+003,7.911314e+001
1.468576e+003,8.054891e+001
1.469540e+003,8.157871e+001
1.470504e+003,8.225504e+001
1.471468e+003,8.250566e+001
1.472433e+003,8.239790e+001
1.473397e+003,8.177651e+001
1.474361e+003,8.009862e+001
1.475325e+003,7.806683e+001
1.476290e+003,7.640347e+001
1.477254e+003,7.549435e+001
1.478218e+003,7.609212e+001
1.479182e+003,7.890884e+001
1.480146e+003,8.238080e+001
1.481111e+003,8.267821e+001
1.482075e+003,7.929645e+001
1.483039e+003,7.763123e+001
1.484003e+003,7.863351e+001
1.484968e+003,7.953989e+001
1.485932e+003,7.958150e+001
1.486896e+003,7.963312e+001
1.487860e+003,8.074169e+001
1.488825e+003,8.224808e+001
1.489789e+003,8.262096e+001
1.490753e+003,8.152238e+001
1.491717e+003,7.959592e+001
1.492682e+003,7.679879e+001
1.493646e+003,7.426990e+001
1.494610e+003,7.434726e+001
1.495574e+003,7.623912e+001
1.496538e+003,7.765874e+001
1.497503e+003,7.842954e+001
1.498467e+003,7.864616e+001
1.499431e+003,7.755280e+001
1.500395e+003,7.649895e+001
1.501360e+003,7.789803e+001
1.502324e+003,8.109949e+001
1.503288e+003,8.248286e+001
1.504252e+003,8.111362e+001
1.505217e+003,7.950236e+001
1.506181e+003,7.909086e+001
1.507145e+003,7.858006e+001
1.508109e+003,7.621131e+001
1.509073e+003,7.337541e+001
1.510038e+003,7.243864e+001
1.511002e+003,7.359367e+001
1.511966e+003,7.541692e+001
1.512930e+003,7.728146e+001
1.513895e+003,7.847282e+001
1.514859e+003,7.693608e+001
1.515823e+003,7.267360e+001
1.516787e+003,7.129142e+001
1.517752e+003,7.429971e+001
1.518716e+003,7.687122e+001
1.519680e+003,7.791330e+001
1.520644e+003,7.803532e+001
1.521609e+003,7.705418e+001
1.522573e+003,7.556433e+001
1.523537e+003,7.387148e+001
1.524501e+003,7.242470e+001
1.525465e+003,7.215993e+001
1.526430e+003,7.350829e+001
1.527394e+003,7.534312e+001
1.528358e+003,7.598325e+001
1.529322e+003,7.550664e+001
1.530287e+003,7.502525e+001
1.531251e+003,7.451507e+001
1.532215e+003,7.417112e+001
1.533179e+003,7.378777e+001
1.534144e+003,7.372401e+001
1.535108e+003,7.457990e+001
1.536072e+003,7.545491e+001
1.537036e+003,7.523742e+001
1.538000e+003,7.418107e+001
1.538965e+003,7.344829e+001
1.539929e+003,7.349211e+001
1.540893e+003,7.345546e+001
1.541857e+003,7.238029e+001
1.542822e+003,7.056457e+001
1.543786e+003,6.890025e+001
1.544750e+003,6.712251e+001
1.545714e+003,6.634856e+001
1.546679e+003,6.696980e+001
1.547643e+003,6.795026e+001
1.548607e+003,6.973599e+001
1.549571e+003,7.119386e+001
1.550536e+003,7.102122e+001
1.551500e+003,6.949109e+001
1.552464e+003,6.727492e+001
1.553428e+003,6.480869e+001
1.554392e+003,6.371016e+001
1.555357e+003,6.552059e+001
1.556321e+003,6.850239e+001
1.557285e+003,6.928612e+001
1.558249e+003,6.795848e+001
1.559214e+003,6.663052e+001
1.560178e+003,6.537425e+001
1.561142e+003,6.405620e+001
1.562106e+003,6.207618e+001
1.563071e+003,6.041640e+001
1.564035e+003,6.034340e+001
1.564999e+003,6.126173e+001
1.565963e+003,6.149564e+001
1.566927e+003,6.081066e+001
1.567892e+003,6.067442e+001
1.568856e+003,6.199871e+001
1.569820e+003,6.356873e+001
1.570784e+003,6.409303e+001
1.571749e+003,6.375350e+001
1.572713e+003,6.297764e+001
1.573677e+003,6.182670e+001
1.574641e+003,6.065070e+001
1.575606e+003,5.937946e+001
1.576570e+003,5.832496e+001
1.577534e+003,5.812313e+001
1.578498e+003,5.820603e+001
1.579463e+003,5.732428e+001
1.580427e+003,5.547680e+001
1.581391e+003,5.357824e+001
1.582355e+003,5.163998e+001
1.583319e+003,5.076315e+001
1.584284e+003,5.272810e+001
1.585248e+003,5.520017e+001
1.586212e+003,5.448187e+001
1.587176e+003,5.186738e+001
1.588141e+003,5.147794e+001
1.589105e+003,5.421532e+001
1.590069e+003,5.645447e+001
1.591033e+003,5.579461e+001
1.591998e+003,5.349530e+001
1.592962e+003,5.060243e+001
1.593926e+003,4.754450e+001
1.594890e+003,4.722798e+001
1.595854e+003,5.055692e+001
1.596819e+003,5.277894e+001
1.597783e+003,5.165759e+001
1.598747e+003,4.956919e+001
1.599711e+003,4.808818e+001
1.600676e+003,4.683997e+001
1.601640e+003,4.520856e+001
1.602604e+003,4.341288e+001
1.603568e+003,4.248177e+001
1.604533e+003,4.282403e+001
1.605497e+003,4.350994e+001
1.606461e+003,4.376115e+001
1.607425e+003,4.362731e+001
1.608390e+003,4.319355e+001
1.609354e+003,4.249522e+001
1.610318e+003,4.177400e+001
1.611282e+003,4.080387e+001
1.612246e+003,4.022066e+001
1.613211e+003,4.091076e+001
1.614175e+003,4.151923e+001
1.615139e+003,4.095015e+001
1.616103e+003,3.981934e+001
1.617068e+003,3.915449e+001
1.618032e+003,3.905744e+001
1.618996e+003,3.892794e+001
1.619960e+003,3.842075e+001
1.620925e+003,3.757575e+001
1.621889e+003,3.633951e+001
1.622853e+003,3.483811e+001
1.623817e+003,3.376060e+001
1.624781e+003,3.322108e+001
1.625746e+003,3.266388e+001
1.626710e+003,3.189674e+001
1.627674e+003,3.112814e+001
1.628638e+003,3.009526e+001
1.629603e+003,2.932952e+001
1.630567e+003,2.998752e+001
1.631531e+003,3.112250e+001
1.632495e+003,3.027420e+001
1.633460e+003,2.718058e+001
1.634424e+003,2.482453e+001
1.635388e+003,2.548751e+001
1.636352e+003,2.759246e+001
1.637317e+003,2.857036e+001
1.638281e+003,2.843360e+001
1.639245e+003,2.714661e+001
1.640209e+003,2.409935e+001
1.641173e+003,2.226610e+001
1.642138e+003,2.311242e+001
1.643102e+003,2.436628e+001
1.644066e+003,2.551889e+001
1.645030e+003,2.599459e+001
1.645995e+003,2.449493e+001
1.646959e+003,2.195225e+001
1.647923e+003,2.097887e+001
1.648887e+003,2.227407e+001
1.649852e+003,2.363466e+001
1.650816e+003,2.323557e+001
1.651780e+003,2.178053e+001
1.652744e+003,2.056382e+001
1.653708e+003,1.958737e+001
1.654673e+003,1.921098e+001
1.655637e+003,1.969398e+001
1.656601e+003,1.987986e+001
1.657565e+003,1.917328e+001
1.658530e+003,1.846474e+001
1.659494e+003,1.863253e+001
1.660458e+003,1.875165e+001
1.661422e+003,1.726343e+001
1.662387e+003,1.486175e+001
1.663351e+003,1.410046e+001
1.664315e+003,1.576547e+001
1.665279e+003,1.726210e+001
1.666244e+003,1.622550e+001
1.667208e+003,1.387355e+001
1.668172e+003,1.256914e+001
1.669136e+003,1.225852e+001
1.670100e+003,1.233675e+001
1.671065e+003,1.283730e+001
1.672029e+003,1.338418e+001
1.672993e+003,1.420304e+001
1.673957e+003,1.460571e+001
1.674922e+003,1.362445e+001
1.675886e+003,1.236004e+001
1.676850e+003,1.228732e+001
1.677814e+003,1.307606e+001
1.678779e+003,1.328092e+001
1.679743e+003,1.245164e+001
1.680707e+003,1.124068e+001
1.681671e+003,9.850263e+000
1.682635e+003,8.718992e+000
1.683600e+003,8.740794e+000
1.684564e+003,9.778786e+000
1.685528e+003,1.108119e+001
1.686492e+003,1.268736e+001
1.687457e+003,1.325090e+001
1.688421e+003,1.187784e+001
1.689385e+003,1.023400e+001
1.690349e+003,9.342921e+000
1.691314e+003,9.099772e+000
1.692278e+003,9.937047e+000
1.693242e+003,1.133124e+001
1.694206e+003,1.124917e+001
1.695171e+003,9.068420e+000
1.696135e+003,7.042460e+000
1.697099e+003,6.780635e+000
1.698063e+003,7.215775e+000
1.699027e+003,6.893453e+000
1.699992e+003,6.167741e+000
1.700956e+003,6.291154e+000
1.701920e+003,7.342752e+000
1.702884e+003,7.761365e+000
1.703849e+003,6.806932e+000
1.704813e+003,5.904701e+000
1.705777e+003,6.417160e+000
1.706741e+003,7.380389e+000
1.707706e+003,7.085617e+000
1.708670e+003,5.879274e+000
1.709634e+003,5.095279e+000
1.710598e+003,4.990805e+000
1.711563e+003,4.644284e+000
1.712527e+003,3.397449e+000
1.713491e+003,2.062154e+000
1.714455e+003,9.634979e-001
1.715419e+003,4.137940e-001
1.716384e+003,1.449597e+000
1.717348e+003,3.654228e+000
1.718312e+003,4.584447e+000
1.719276e+003,3.472543e+000
1.720241e+003,2.317935e+000
1.721205e+003,2.614932e+000
1.722169e+003,3.437320e+000
1.723133e+003,3.322861e+000
1.724098e+003,2.388416e+000
1.725062e+003,1.331165e+000
1.726026e+003,-1.324173e-001
1.726990e+003,-6.721802e-001
1.727954e+003,8.313385e-001
1.728919e+003,2.112996e+000
1.729883e+003,1.908362e+000
1.730847e+003,1.223584e+000
1.731811e+003,1.315449e+000
1.732776e+003,1.699301e+000
1.733740e+003,7.415634e-001
1.734704e+003,-1.545596e+000
1.735668e+003,-3.012775e+000
1.736633e+003,-2.417911e+000
1.737597e+003,-7.990814e-001
1.738561e+003,5.704254e-001
1.739525e+003,1.700169e+000
1.740490e+003,2.587962e+000
1.741454e+003,3.349174e+000
1.742418e+003,3.351295e+000
1.743382e+003,2.010283e+000
1.744346e+003,8.303269e-001
1.745311e+003,1.420395e-001
1.746275e+003,-4.281281e-001
1.747239e+003,-1.296606e+000
1.748203e+003,-2.022357e+000
1.749168e+003,-2.045775e+000
1.750132e+003,-1.396591e+000
1.751096e+003,-1.252487e-001
1.752060e+003,1.534425e+000
1.753025e+003,2.445778e+000
1.753989e+003,1.507254e+000
1.754953e+003,-3.729828e-001
1.755917e+003,-1.109013e+000
1.756881e+003,-6.839889e-001
1.757846e+003,-2.835251e-001
1.758810e+003,2.998382e-001
1.759774e+003,3.110138e-001
1.760738e+003,-1.144371e+000
1.761703e+003,-2.140465e+000
1.762667e+003,-1.557700e+000
1.763631e+003,-6.772095e-001
1.764595e+003,-4.453125e-001
1.765560e+003,-6.806015e-001
1.766524e+003,-1.093899e+000
1.767488e+003,-1.527646e+000
1.768452e+003,-1.432803e+000
1.769417e+003,-3.975616e-001
1.770381e+003,3.188415e-001
1.771345e+003,-1.301382e+000
1.772309e+003,-4.041753e+000
1.773273e+003,-4.609633e+000
1.774238e+003,-3.218402e+000
1.775202e+003,-2.327811e+000
1.776166e+003,-2.353143e+000
1.777130e+003,-2.071237e+000
1.778095e+003,-7.471954e-001
1.779059e+003,5.010437e-001
1.780023e+003,6.488541e-001
1.780987e+003,1.491089e-001
1.781952e+003,-3.247727e-001
1.782916e+003,-7.810913e-001
1.783880e+003,-1.123079e+000
1.784844e+003,-1.242857e+000
1.785808e+003,-1.589944e+000
1.786773e+003,-2.714429e+000
1.787737e+003,-3.723781e+000
1.788701e+003,-3.993285e+000
1.789665e+003,-3.686961e+000
1.790630e+003,-2.637445e+000
1.791594e+003,-1.266490e+000
1.792558e+003,-9.381531e-001
1.793522e+003,-1.917346e+000
1.794487e+003,-3.035295e+000
1.795451e+003,-3.591621e+000
1.796415e+003,-3.422206e+000
1.797379e+003,-2.099560e+000
1.798344e+003,-1.384857e-001
1.799308e+003,-1.219955e-001
1.800272e+003,-2.999098e+000
1.801236e+003,-4.177007e+000
1.802201e+003,-2.053693e+000
1.803165e+003,-8.129547e-001
1.804129e+003,-1.776210e+000
1.805093e+003,-2.911331e+000
1.806057e+003,-3.200740e+000
1.807022e+003,-3.026834e+000
1.807986e+003,-2.928009e+000
1.808950e+003,-2.810571e+000
1.809914e+003,-2.018040e+000
1.810879e+003,-5.826401e-001
1.811843e+003,2.430160e-001
1.812807e+003,-4.964676e-001
1.813771e+003,-1.891469e+000
1.814736e+003,-2.574914e+000
1.815700e+003,-2.583926e+000
1.816664e+003,-1.948122e+000
1.817628e+003,-5.028198e-001
1.818593e+003,-2.555725e-001
1.819557e+003,-1.960716e+000
1.820521e+003,-3.227631e+000
1.821485e+003,-3.025239e+000
1.822449e+003,-2.369167e+000
1.823414e+003,-1.939723e+000
1.824378e+003,-1.583995e+000
1.825342e+003,-9.056671e-001
1.826306e+003,-7.747193e-002
1.827271e+003,1.150909e-001
1.828235e+003,-5.474136e-001
1.829199e+003,-1.360101e+000
1.830163e+003,-2.239021e+000
1.831128e+003,-2.776500e+000
1.832092e+003,-2.447575e+000
1.833056e+003,-1.679388e+000
1.834020e+003,-9.301575e-001
1.834984e+003,-3.913956e-001
1.835949e+003,-6.562164e-001
1.836913e+003,-1.709686e+000
1.837877e+003,-2.421309e+000
1.838841e+003,-2.184021e+000
1.839806e+003,-1.500104e+000
1.840770e+003,-8.827499e-001
1.841734e+003,-3.575180e-001
1.842698e+003,3.281555e-002
1.843663e+003,3.212204e-001
1.844627e+003,3.964218e-001
1.845591e+003,-2.102814e-002
1.846555e+003,-2.381958e-001
1.847520e+003,4.196625e-002
1.848484e+003,1.148972e-001
1.849448e+003,-3.642395e-001
1.850412e+003,-1.023849e+000
1.851376e+003,-1.832390e+000
1.852341e+003,-2.468396e+000
1.853305e+003,-2.471124e+000
1.854269e+003,-1.830194e+000
1.855233e+003,-6.624573e-001
1.856198e+003,9.328049e-001
1.857162e+003,2.008940e+000
1.858126e+003,1.361790e+000
1.859090e+003,3.273620e-002
1.860055e+003,3.570648e-001
1.861019e+003,1.950063e+000
1.861983e+003,2.545654e+000
1.862947e+003,2.016428e+000
1.863911e+003,1.281125e+000
1.864876e+003,4.711975e-001
1.865840e+003,-2.206573e-002
1.866804e+003,1.456360e-001
1.867768e+003,4.479401e-001
1.868733e+003,-1.839584e-001
1.869697e+003,-9.862808e-001
1.870661e+003,9.865052e-001
1.871625e+003,5.766113e+000
1.872590e+003,7.498534e+000
1.873554e+003,3.534502e+000
1.874518e+003,6.803986e-001
1.875482e+003,1.823474e+000
1.876447e+003,3.406738e+000
1.877411e+003,3.343678e+000
1.878375e+003,2.551001e+000
1.879339e+003,1.951639e+000
1.880303e+003,1.616734e+000
1.881268e+003,1.395140e+000
1.882232e+003,1.269334e+000
1.883196e+003,1.377537e+000
1.884160e+003,1.782629e+000
1.885125e+003,2.237755e+000
1.886089e+003,2.438025e+000
1.887053e+003,2.501563e+000
1.888017e+003,2.841063e+000
1.888982e+003,3.471683e+000
1.889946e+003,3.778821e+000
1.890910e+003,3.675896e+000
1.891874e+003,3.747142e+000
1.892839e+003,4.315341e+000
1.893803e+003,4.489473e+000
1.894767e+003,3.350090e+000
1.895731e+003,2.295206e+000
1.896695e+003,2.837526e+000
1.897660e+003,4.161665e+000
1.898624e+003,4.995563e+000
1.899588e+003,5.312776e+000
1.900552e+003,5.426738e+000
1.901517e+003,5.281215e+000
1.902481e+003,5.296158e+000
1.903445e+003,6.121593e+000
1.904409e+003,6.613725e+000
1.905374e+003,5.667922e+000
1.906338e+003,4.303938e+000
1.907302e+003,3.631308e+000
1.908266e+003,3.492288e+000
1.909230e+003,3.288509e+000
1.910195e+003,3.020294e+000
1.911159e+003,3.387686e+000
1.912123e+003,4.619748e+000
1.913087e+003,5.696962e+000
1.914052e+003,5.626925e+000
1.915016e+003,4.835661e+000
1.915980e+003,4.134981e+000
1.916944e+003,3.559140e+000
1.917909e+003,3.665758e+000
1.918873e+003,4.683017e+000
1.919837e+003,5.068123e+000
1.920801e+003,4.440384e+000
1.921766e+003,3.743629e+000
1.922730e+003,3.156531e+000
1.923694e+003,2.753860e+000
1.924658e+003,2.730824e+000
1.925622e+003,2.858887e+000
1.926587e+003,2.681737e+000
1.927551e+003,2.430560e+000
1.928515e+003,3.074672e+000
1.929479e+003,4.840813e+000
1.930444e+003,5.998082e+000
1.931408e+003,5.856505e+000
1.932372e+003,5.280518e+000
1.933336e+003,4.269072e+000
1.934301e+003,3.414372e+000
1.935265e+003,3.291995e+000
1.936229e+003,3.591779e+000
1.937193e+003,3.938017e+000
1.938157e+003,4.222995e+000
1.939122e+003,4.428642e+000
1.940086e+003,4.543574e+000
1.941050e+003,4.445851e+000
1.942014e+003,4.070073e+000
1.942979e+003,3.829460e+000
1.943943e+003,4.309776e+000
1.944907e+003,5.157487e+000
1.945871e+003,5.240785e+000
1.946836e+003,4.633171e+000
1.947800e+003,4.798723e+000
1.948764e+003,5.923904e+000
1.949728e+003,5.876790e+000
1.950693e+003,3.758882e+000
1.951657e+003,2.239645e+000
1.952621e+003,2.947630e+000
1.953585e+003,4.122301e+000
1.954549e+003,4.170424e+000
1.955514e+003,3.452014e+000
1.956478e+003,2.363812e+000
1.957442e+003,1.009137e+000
1.958406e+003,1.272754e+000
1.959371e+003,4.164697e+000
1.960335e+003,5.914578e+000
1.961299e+003,5.232059e+000
1.962263e+003,4.460683e+000
1.963228e+003,4.447154e+000
1.964192e+003,4.546842e+000
1.965156e+003,4.245511e+000
1.966120e+003,3.809769e+000
1.967084e+003,3.433804e+000
1.968049e+003,3.337242e+000
1.969013e+003,4.015935e+000
1.969977e+003,5.412476e+000
1.970941e+003,6.639224e+000
1.971906e+003,7.205034e+000
1.972870e+003,7.277289e+000
1.973834e+003,6.885274e+000
1.974798e+003,6.263304e+000
1.975763e+003,5.623648e+000
1.976727e+003,5.096458e+000
1.977691e+003,5.266000e+000
1.978655e+003,6.032136e+000
1.979620e+003,6.619555e+000
1.980584e+003,6.848657e+000
1.981548e+003,6.489894e+000
1.982512e+003,5.349681e+000
1.983476e+003,4.303789e+000
1.984441e+003,4.268426e+000
1.985405e+003,5.017877e+000
1.986369e+003,6.172501e+000
1.987333e+003,7.713767e+000
1.988298e+003,7.540965e+000
1.989262e+003,4.576922e+000
1.990226e+003,2.918576e+000
1.991190e+003,3.091222e+000
1.992155e+003,3.897893e+000
1.993119e+003,5.631784e+000
1.994083e+003,7.236540e+000
1.995047e+003,8.567022e+000
1.996011e+003,9.153130e+000
1.996976e+003,7.950450e+000
1.997940e+003,5.826585e+000
1.998904e+003,4.708821e+000
1.999868e+003,4.780356e+000
2.000833e+003,5.417488e+000
2.001797e+003,6.701352e+000
2.002761e+003,7.861957e+000
2.003725e+003,8.713348e+000
2.004690e+003,9.216255e+000
2.005654e+003,9.324199e+000
2.006618e+003,9.086433e+000
2.007582e+003,8.238378e+000
2.008547e+003,7.266022e+000
2.009511e+003,7.018767e+000
2.010475e+003,7.433110e+000
2.011439e+003,7.904556e+000
2.012403e+003,8.141932e+000
2.013368e+003,7.927167e+000
2.014332e+003,7.052106e+000
2.015296e+003,6.225261e+000
2.016260e+003,6.691359e+000
2.017225e+003,7.695920e+000
2.018189e+003,7.000496e+000
2.019153e+003,5.268683e+000
2.020117e+003,5.669377e+000
2.021082e+003,8.120848e+000
2.022046e+003,9.138524e+000
2.023010e+003,7.883432e+000
2.023974e+003,6.821555e+000
2.024938e+003,7.316528e+000
2.025903e+003,7.926385e+000
2.026867e+003,7.076129e+000
2.027831e+003,5.570548e+000
2.028795e+003,5.372232e+000
2.029760e+003,6.442225e+000
2.030724e+003,7.047311e+000
2.031688e+003,7.150241e+000
2.032652e+003,6.691823e+000
2.033617e+003,5.193703e+000
2.034581e+003,4.278316e+000
2.035545e+003,4.413872e+000
2.036509e+003,5.165419e+000
2.037474e+003,6.766118e+000
2.038438e+003,8.351076e+000
2.039402e+003,9.088986e+000
2.040366e+003,9.150812e+000
2.041330e+003,8.838017e+000
2.042295e+003,8.183393e+000
2.043259e+003,7.320901e+000
2.044223e+003,5.874911e+000
2.045187e+003,5.218822e+000
2.046152e+003,6.159979e+000
2.047116e+003,7.158586e+000
2.048080e+003,8.113960e+000
2.049044e+003,8.367091e+000
2.050009e+003,6.906915e+000
2.050973e+003,4.982355e+000
2.051937e+003,3.849263e+000
2.052901e+003,3.573717e+000
2.053865e+003,4.068083e+000
2.054830e+003,5.113838e+000
2.055794e+003,5.892366e+000
2.056758e+003,6.011249e+000
2.057722e+003,6.184638e+000
2.058687e+003,7.268028e+000
2.059651e+003,8.269218e+000
2.060615e+003,8.138713e+000
2.061579e+003,7.352466e+000
2.062544e+003,6.263913e+000
2.063508e+003,5.234793e+000
2.064472e+003,4.945036e+000
2.065436e+003,5.284778e+000
2.066401e+003,5.614233e+000
2.067365e+003,5.697484e+000
2.068329e+003,5.649565e+000
2.069293e+003,5.553223e+000
2.070258e+003,5.412566e+000
2.071222e+003,5.187625e+000
2.072186e+003,5.043477e+000
2.073150e+003,5.401839e+000
2.074115e+003,6.139696e+000
2.075079e+003,6.670473e+000
2.076043e+003,7.008861e+000
2.077007e+003,7.867848e+000
2.077971e+003,9.302437e+000
2.078936e+003,9.204199e+000
2.079900e+003,6.744922e+000
2.080864e+003,4.512373e+000
2.081828e+003,4.363426e+000
2.082792e+003,5.345479e+000
2.083757e+003,6.209315e+000
2.084721e+003,6.919398e+000
2.085685e+003,7.393944e+000
2.086649e+003,7.660233e+000
2.087614e+003,7.165812e+000
2.088578e+003,5.553140e+000
2.089542e+003,5.057222e+000
2.090506e+003,6.324914e+000
2.091471e+003,7.234091e+000
2.092435e+003,6.880937e+000
2.093399e+003,6.615028e+000
2.094363e+003,7.665712e+000
2.095328e+003,8.720474e+000
2.096292e+003,7.706328e+000
2.097256e+003,5.444037e+000
2.098220e+003,4.954349e+000
2.099185e+003,6.472252e+000
2.100149e+003,7.626196e+000
2.101113e+003,8.424101e+000
2.102077e+003,8.784426e+000
2.103042e+003,8.720416e+000
2.104006e+003,8.181860e+000
2.104970e+003,6.361440e+000
2.105934e+003,5.021329e+000
2.106898e+003,5.548041e+000
2.107863e+003,6.621454e+000
2.108827e+003,6.962420e+000
2.109791e+003,6.793887e+000
2.110755e+003,6.498825e+000
2.111719e+003,6.150552e+000
2.112684e+003,6.566752e+000
2.113648e+003,8.360545e+000
2.114612e+003,9.509638e+000
2.115576e+003,9.172350e+000
2.116541e+003,8.675364e+000
2.117505e+003,8.411772e+000
2.118469e+003,8.249155e+000
2.119433e+003,8.006533e+000
2.120398e+003,7.911357e+000
2.121362e+003,8.532919e+000
2.122326e+003,9.284772e+000
2.123290e+003,8.816439e+000
2.124255e+003,7.360872e+000
2.125219e+003,6.824289e+000
2.126183e+003,7.812981e+000
2.127147e+003,8.650876e+000
2.128112e+003,8.343504e+000
2.129076e+003,8.095816e+000
2.130040e+003,8.714300e+000
2.131004e+003,9.451442e+000
2.131969e+003,9.704939e+000
2.132933e+003,9.725545e+000
2.133897e+003,9.928854e+000
2.134861e+003,1.016527e+001
2.135825e+003,1.010311e+001
2.136790e+003,9.670865e+000
2.137754e+003,8.720500e+000
2.138718e+003,7.334699e+000
2.139682e+003,6.644501e+000
2.140646e+003,7.471713e+000
2.141611e+003,8.541509e+000
2.142575e+003,8.720564e+000
2.143539e+003,8.678125e+000
2.144503e+003,9.241758e+000
2.145468e+003,9.946062e+000
2.146432e+003,1.013941e+001
2.147396e+003,9.912639e+000
2.148360e+003,9.324966e+000
2.149325e+003,8.658292e+000
2.150289e+003,8.648834e+000
2.151253e+003,9.405891e+000
2.152217e+003,1.025341e+001
2.153182e+003,1.083574e+001
2.154146e+003,1.098224e+001
2.155110e+003,1.031301e+001
2.156074e+003,9.445105e+000
2.157039e+003,9.137812e+000
2.158003e+003,9.119867e+000
2.158967e+003,8.992348e+000
2.159931e+003,8.849081e+000
2.160896e+003,8.927849e+000
2.161860e+003,9.216181e+000
2.162824e+003,9.500302e+000
2.163788e+003,9.787875e+000
2.164752e+003,1.051719e+001
2.165717e+003,1.184246e+001
2.166681e+003,1.292902e+001
2.167645e+003,1.304848e+001
2.168609e+003,1.257005e+001
2.169573e+003,1.181520e+001
2.170538e+003,1.098697e+001
2.171502e+003,1.053875e+001
2.172466e+003,1.024788e+001
2.173430e+003,9.295584e+000
2.174395e+003,8.094360e+000
2.175359e+003,8.489708e+000
2.176323e+003,1.037308e+001
2.177287e+003,1.133526e+001
2.178252e+003,1.054096e+001
2.179216e+003,9.669354e+000
2.180180e+003,9.940462e+000
2.181144e+003,1.082128e+001
2.182109e+003,1.184234e+001
2.183073e+003,1.266468e+001
2.184037e+003,1.260221e+001
2.185001e+003,1.185823e+001
2.185966e+003,1.068417e+001
2.186930e+003,9.387918e+000
2.187894e+003,8.756154e+000
2.188858e+003,8.837341e+000
2.189823e+003,9.488154e+000
2.190787e+003,1.045209e+001
2.191751e+003,1.069813e+001
2.192715e+003,9.741879e+000
2.193679e+003,8.471736e+000
2.194644e+003,7.610495e+000
2.195608e+003,7.451811e+000
2.196572e+003,9.271826e+000
2.197536e+003,1.173721e+001
2.198500e+003,1.085321e+001
2.199465e+003,8.069742e+000
2.200429e+003,8.081988e+000
2.201393e+003,1.034874e+001
2.202357e+003,1.120868e+001
2.203322e+003,1.017200e+001
2.204286e+003,8.920560e+000
2.205250e+003,8.247801e+000
2.206214e+003,8.603617e+000
2.207179e+003,1.029973e+001
2.208143e+003,1.211999e+001
2.209107e+003,1.258050e+001
2.210071e+003,1.234116e+001
2.211036e+003,1.267852e+001
2.212000e+003,1.322364e+001
2.212964e+003,1.267497e+001
2.213928e+003,1.163405e+001
2.214893e+003,1.242491e+001
2.215857e+003,1.465973e+001
2.216821e+003,1.560946e+001
2.217785e+003,1.483605e+001
2.218750e+003,1.432672e+001
2.219714e+003,1.499767e+001
2.220678e+003,1.597053e+001
2.221642e+003,1.657988e+001
2.222606e+003,1.696971e+001
2.223571e+003,1.720287e+001
2.224535e+003,1.740924e+001
2.225499e+003,1.783310e+001
2.226463e+003,1.842501e+001
2.227427e+003,1.898796e+001
2.228392e+003,1.965665e+001
2.229356e+003,2.102610e+001
2.230320e+003,2.287832e+001
2.231284e+003,2.410988e+001
2.232249e+003,2.452514e+001
2.233213e+003,2.506907e+001
2.234177e+003,2.623800e+001
2.235141e+003,2.763867e+001
2.236106e+003,2.901549e+001
2.237070e+003,3.018979e+001
2.238034e+003,3.046053e+001
2.238998e+003,3.075389e+001
2.239963e+003,3.277614e+001
2.240927e+003,3.555368e+001
2.241891e+003,3.736808e+001
2.242855e+003,3.851424e+001
2.243820e+003,3.979923e+001
2.244784e+003,4.145225e+001
2.245748e+003,4.359912e+001
2.246712e+003,4.620041e+001
2.247677e+003,4.899770e+001
2.248641e+003,5.191989e+001
2.249605e+003,5.416315e+001
2.250569e+003,5.454996e+001
2.251533e+003,5.476090e+001
2.252498e+003,5.681949e+001
2.253462e+003,5.897366e+001
2.254426e+003,5.965036e+001
2.255390e+003,5.906147e+001
2.256354e+003,5.711423e+001
2.257319e+003,5.447634e+001
2.258283e+003,5.234968e+001
2.259247e+003,5.063560e+001
2.260211e+003,4.812101e+001
2.261176e+003,4.459735e+001
2.262140e+003,4.157758e+001
2.263104e+003,3.998307e+001
2.264068e+003,3.773098e+001
2.265033e+003,3.229703e+001
2.265997e+003,2.769041e+001
2.266961e+003,2.703348e+001
2.267925e+003,2.729705e+001
2.268890e+003,2.619271e+001
2.269854e+003,2.463852e+001
2.270818e+003,2.405983e+001
2.271782e+003,2.377510e+001
2.272747e+003,2.215172e+001
2.273711e+003,1.954884e+001
2.274675e+003,1.786598e+001
2.275639e+003,1.747204e+001
2.276604e+003,1.758148e+001
2.277568e+003,1.869798e+001
2.278532e+003,1.881104e+001
2.279496e+003,1.662585e+001
2.280460e+003,1.439251e+001
2.281425e+003,1.269320e+001
2.282389e+003,1.145602e+001
2.283353e+003,1.085292e+001
2.284317e+003,1.054945e+001
2.285281e+003,1.027374e+001
2.286246e+003,1.004776e+001
2.287210e+003,1.000078e+001
2.288174e+003,1.006963e+001
2.289138e+003,9.933507e+000
2.290103e+003,9.588335e+000
2.291067e+003,9.000566e+000
2.292031e+003,7.860484e+000
2.292995e+003,7.086743e+000
2.293960e+003,6.730481e+000
2.294924e+003,6.683408e+000
2.295888e+003,7.165656e+000
2.296852e+003,7.500897e+000
2.297817e+003,7.258507e+000
2.298781e+003,6.968140e+000
2.299745e+003,7.252235e+000
2.300709e+003,7.584666e+000
2.301674e+003,6.965849e+000
2.302638e+003,5.587459e+000
2.303602e+003,4.438478e+000
2.304566e+003,3.489909e+000
2.305531e+003,3.015700e+000
2.306495e+003,3.084975e+000
2.307459e+003,3.354021e+000
2.308423e+003,3.807289e+000
2.309387e+003,4.179535e+000
2.310352e+003,4.406629e+000
2.311316e+003,4.373442e+000
2.312280e+003,4.010600e+000
2.313244e+003,3.947362e+000
2.314208e+003,4.735191e+000
2.315173e+003,5.617435e+000
2.316137e+003,5.544684e+000
2.317101e+003,4.655437e+000
2.318065e+003,2.828848e+000
2.319030e+003,6.073395e-001
2.319994e+003,4.226181e-001
2.320958e+003,1.806046e+000
2.321922e+003,3.095030e+000
2.322887e+003,3.915807e+000
2.323851e+003,3.287637e+000
2.324815e+003,1.480228e+000
2.325779e+003,8.448151e-001
2.326744e+003,2.104184e+000
2.327708e+003,3.153928e+000
2.328672e+003,2.636824e+000
2.329636e+003,1.582256e+000
2.330601e+003,6.971390e-001
2.331565e+003,2.417130e-001
2.332529e+003,8.195526e-001
2.333493e+003,1.675278e+000
2.334458e+003,2.090186e+000
2.335422e+003,2.056184e+000
2.336386e+003,1.154643e+000
2.337350e+003,1.536209e-001
2.338314e+003,7.577545e-001
2.339279e+003,2.352194e+000
2.340243e+003,2.516685e+000
2.341207e+003,9.300171e-001
2.342171e+003,-3.979172e-001
2.343135e+003,-8.489349e-001
2.344100e+003,-8.895966e-001
2.345064e+003,-8.543701e-002
2.346028e+003,1.582687e-001
2.346992e+003,-1.356845e+000
2.347957e+003,-2.555991e+000
2.348921e+003,-2.220543e+000
2.349885e+003,-1.442534e+000
2.350849e+003,-8.115891e-001
2.351814e+003,-4.064453e-001
2.352778e+003,-5.279160e-001
2.353742e+003,-8.053009e-001
2.354706e+003,-1.011063e-001
2.355671e+003,1.451050e+000
2.356635e+003,1.692592e+000
2.357599e+003,2.207016e-001
2.358563e+003,-9.055115e-001
2.359528e+003,-1.662541e+000
2.360492e+003,-2.180183e+000
2.361456e+003,-2.485428e+000
2.362420e+003,-2.334579e+000
2.363385e+003,-1.479921e+000
2.364349e+003,-1.197025e+000
2.365313e+003,-2.296278e+000
2.366277e+003,-3.174904e+000
2.367241e+003,-2.259352e+000
2.368206e+003,-9.443008e-001
2.369170e+003,-1.549858e+000
2.370134e+003,-3.383292e+000
2.371098e+003,-4.666278e+000
2.372063e+003,-5.359987e+000
2.373027e+003,-5.075717e+000
2.373991e+003,-4.046205e+000
2.374955e+003,-3.067062e+000
2.375919e+003,-2.279720e+000
2.376884e+003,-1.725916e+000
2.377848e+003,-1.431712e+000
2.378812e+003,-1.494058e+000
2.379776e+003,-1.873460e+000
2.380741e+003,-2.222035e+000
2.381705e+003,-2.351155e+000
2.382669e+003,-2.234381e+000
2.383633e+003,-1.842828e+000
2.384598e+003,-1.222292e+000
2.385562e+003,9.002228e-002
2.386526e+003,9.812988e-001
2.387490e+003,6.633148e-002
2.388455e+003,-1.173486e+000
2.389419e+003,-1.296831e+000
2.390383e+003,-8.346955e-001
2.391347e+003,-3.674301e-001
2.392312e+003,-1.392975e-001
2.393276e+003,-6.503494e-001
2.394240e+003,-1.779375e+000
2.395204e+003,-2.296771e+000
2.396168e+003,-1.854446e+000
2.397133e+003,-1.742787e+000
2.398097e+003,-2.545279e+000
2.399061e+003,-2.653839e+000
2.400025e+003,-1.404863e+000
2.400990e+003,-7.697922e-001
2.401954e+003,-1.488765e+000
2.402918e+003,-2.147710e+000
2.403882e+003,-2.065292e+000
2.404846e+003,-1.814420e+000
2.405811e+003,-1.865785e+000
2.406775e+003,-1.891597e+000
2.407739e+003,-1.371046e+000
2.408703e+003,-7.268952e-001
2.409668e+003,-1.329851e+000
2.410632e+003,-2.745369e+000
2.411596e+003,-2.411313e+000
2.412560e+003,-8.822784e-001
2.413525e+003,-6.582764e-001
2.414489e+003,-1.559297e+000
2.415453e+003,-2.274417e+000
2.416417e+003,-2.521318e+000
2.417382e+003,-2.132341e+000
2.418346e+003,-1.299103e+000
2.419310e+003,-1.178624e+000
2.420274e+003,-2.195372e+000
2.421239e+003,-2.584316e+000
2.422203e+003,-9.140121e-001
2.423167e+003,5.906174e-001
2.424131e+003,1.527466e-001
2.425095e+003,-7.253922e-001
2.426060e+003,-1.651395e+000
2.427024e+003,-1.954569e+000
2.427988e+003,-4.229385e-001
2.428952e+003,1.269229e+000
2.429917e+003,1.095319e+000
2.430881e+003,2.597794e-001
2.431845e+003,1.005121e+000
2.432809e+003,2.762030e+000
2.433773e+003,3.124032e+000
2.434738e+003,2.087418e+000
2.435702e+003,1.293545e+000
2.436666e+003,5.549866e-001
2.437630e+003,8.719757e-001
2.438595e+003,2.637086e+000
2.439559e+003,3.570802e+000
2.440523e+003,3.233450e+000
2.441487e+003,3.439687e+000
2.442452e+003,4.745613e+000
2.443416e+003,5.875684e+000
2.444380e+003,6.183057e+000
2.445344e+003,6.096953e+000
2.446309e+003,5.975456e+000
2.447273e+003,5.564919e+000
2.448237e+003,4.255960e+000
2.449201e+003,3.059047e+000
2.450166e+003,4.553464e+000
2.451130e+003,6.583243e+000
2.452094e+003,4.876962e+000
2.453058e+003,1.846695e+000
2.454022e+003,1.343611e+000
2.454987e+003,2.551277e+000
2.455951e+003,3.779326e+000
2.456915e+003,4.616751e+000
2.457879e+003,4.894815e+000
2.458844e+003,4.681731e+000
2.459808e+003,4.287364e+000
2.460772e+003,3.673079e+000
2.461736e+003,3.699626e+000
2.462700e+003,5.100725e+000
2.463665e+003,6.145450e+000
2.464629e+003,6.569663e+000
2.465593e+003,6.884644e+000
2.466557e+003,7.219115e+000
2.467522e+003,7.253221e+000
2.468486e+003,6.651538e+000
2.469450e+003,6.422530e+000
2.470414e+003,7.476048e+000
2.471379e+003,8.381076e+000
2.472343e+003,7.273369e+000
2.473307e+003,5.496336e+000
2.474271e+003,6.000865e+000
2.475236e+003,7.949841e+000
2.476200e+003,8.650702e+000
2.477164e+003,8.471983e+000
2.478128e+003,8.509712e+000
2.479093e+003,8.618456e+000
2.480057e+003,7.868108e+000
2.481021e+003,6.808351e+000
2.481985e+003,7.269536e+000
2.482949e+003,9.106384e+000
2.483914e+003,1.076580e+001
2.484878e+003,1.171634e+001
2.485842e+003,1.178040e+001
2.486806e+003,1.071260e+001
2.487771e+003,9.841995e+000
2.488735e+003,1.002097e+001
2.489699e+003,9.873766e+000
2.490663e+003,8.087537e+000
2.491627e+003,7.287601e+000
2.492592e+003,9.372641e+000
2.493556e+003,1.115188e+001
2.494520e+003,1.089816e+001
2.495484e+003,1.019623e+001
2.496449e+003,1.023252e+001
2.497413e+003,1.083346e+001
2.498377e+003,1.187148e+001
2.499341e+003,1.299579e+001
2.500306e+003,1.334313e+001
2.501270e+003,1.292978e+001
2.502234e+003,1.114812e+001
2.503198e+003,8.783255e+000
2.504163e+003,8.912107e+000
2.505127e+003,1.092467e+001
2.506091e+003,1.314668e+001
2.507055e+003,1.487308e+001
2.508020e+003,1.473410e+001
2.508984e+003,1.314990e+001
2.509948e+003,1.255993e+001
2.510912e+003,1.361168e+001
2.511876e+003,1.455567e+001
2.512841e+003,1.460150e+001
2.513805e+003,1.506332e+001
2.514769e+003,1.683993e+001
2.515733e+003,1.832603e+001
2.516698e+003,1.897069e+001
2.517662e+003,1.945186e+001
2.518626e+003,2.033764e+001
2.519590e+003,2.050500e+001
2.520554e+003,1.876736e+001
2.521519e+003,1.760830e+001
2.522483e+003,1.934246e+001
2.523447e+003,2.222132e+001
2.524411e+003,2.383418e+001
2.525376e+003,2.438807e+001
2.526340e+003,2.368585e+001
2.527304e+003,2.259195e+001
2.528268e+003,2.446444e+001
2.529233e+003,2.803951e+001
2.530197e+003,3.051717e+001
2.531161e+003,3.198045e+001
2.532125e+003,3.289521e+001
2.533090e+003,3.350986e+001
2.534054e+003,3.411199e+001
2.535018e+003,3.479999e+001
2.535982e+003,3.554039e+001
2.536947e+003,3.632937e+001
2.537911e+003,3.735764e+001
2.538875e+003,3.876920e+001
2.539839e+003,4.008839e+001
2.540803e+003,4.102492e+001
2.541768e+003,4.228944e+001
2.542732e+003,4.426268e+001
2.543696e+003,4.566681e+001
2.544660e+003,4.612428e+001
2.545625e+003,4.657366e+001
2.546589e+003,4.752420e+001
2.547553e+003,4.761069e+001
2.548517e+003,4.569053e+001
2.549482e+003,4.366364e+001
2.550446e+003,4.375929e+001
2.551410e+003,4.515565e+001
2.552374e+003,4.746592e+001
2.553339e+003,4.933067e+001
2.554303e+003,4.877086e+001
2.555267e+003,4.663499e+001
2.556231e+003,4.254690e+001
2.557196e+003,3.880593e+001
2.558160e+003,3.927655e+001
2.559124e+003,4.159309e+001
2.560088e+003,4.124212e+001
2.561052e+003,3.880238e+001
2.562017e+003,3.757848e+001
2.562981e+003,3.768061e+001
2.563945e+003,3.749739e+001
2.564909e+003,3.704054e+001
2.565874e+003,3.619352e+001
2.566838e+003,3.499397e+001
2.567802e+003,3.312758e+001
2.568766e+003,3.058220e+001
2.569730e+003,2.890971e+001
2.570695e+003,2.833977e+001
2.571659e+003,2.775593e+001
2.572623e+003,2.680229e+001
2.573587e+003,2.641470e+001
2.574552e+003,2.701362e+001
2.575516e+003,2.631591e+001
2.576480e+003,2.220357e+001
2.577444e+003,1.837218e+001
2.578409e+003,1.729507e+001
2.579373e+003,1.710668e+001
2.580337e+003,1.758165e+001
2.581301e+003,1.773150e+001
2.582266e+003,1.660616e+001
2.583230e+003,1.548705e+001
2.584194e+003,1.531056e+001
2.585158e+003,1.536027e+001
2.586123e+003,1.501010e+001
2.587087e+003,1.434650e+001
2.588051e+003,1.342312e+001
2.589015e+003,1.244820e+001
2.589979e+003,1.217099e+001
2.590944e+003,1.235238e+001
2.591908e+003,1.225509e+001
2.592872e+003,1.174563e+001
2.593836e+003,9.975825e+000
2.594801e+003,7.820273e+000
2.595765e+003,7.187602e+000
2.596729e+003,7.793712e+000
2.597693e+003,8.779765e+000
2.598657e+003,9.650144e+000
2.599622e+003,9.437006e+000
2.600586e+003,7.994203e+000
2.601550e+003,6.783356e+000
2.602514e+003,6.058571e+000
2.603479e+003,5.436070e+000
2.604443e+003,4.730782e+000
2.605407e+003,4.830289e+000
2.606371e+003,6.113690e+000
2.607336e+003,6.288619e+000
2.608300e+003,4.824454e+000
2.609264e+003,3.352695e+000
2.610228e+003,2.534819e+000
2.611193e+003,2.736092e+000
2.612157e+003,4.106674e+000
2.613121e+003,5.025661e+000
2.614085e+003,4.029277e+000
2.615050e+003,2.994534e+000
2.616014e+003,3.909348e+000
2.616978e+003,4.733505e+000
2.617942e+003,3.877606e+000
2.618906e+003,2.916649e+000
2.619871e+003,3.398421e+000
2.620835e+003,3.412463e+000
2.621799e+003,6.301987e-001
2.622763e+003,-1.937582e+000
2.623728e+003,-1.350928e+000
2.624692e+003,8.376633e-001
2.625656e+003,2.288318e+000
2.626620e+003,3.111015e+000
2.627584e+003,3.566040e+000
2.628549e+003,3.669875e+000
2.629513e+003,3.501094e+000
2.630477e+003,3.015877e+000
2.631441e+003,1.567770e+000
2.632406e+003,7.503204e-002
2.633370e+003,7.391907e-001
2.634334e+003,2.502296e+000
2.635298e+003,2.865248e+000
2.636263e+003,1.963676e+000
2.637227e+003,1.365482e+000
2.638191e+003,1.267310e+000
2.639155e+003,1.108432e+000
2.640120e+003,8.538635e-001
2.641084e+003,5.402542e-001
2.642048e+003,-1.949921e-002
2.643012e+003,6.407257e-001
2.643977e+003,2.624594e+000
2.644941e+003,3.854019e+000
2.645905e+003,3.954044e+000
2.646869e+003,2.699947e+000
2.647833e+003,4.310486e-001
2.648798e+003,-6.626648e-001
2.649762e+003,1.666534e-001
2.650726e+003,8.025192e-001
2.651690e+003,2.623901e-002
2.652655e+003,-3.794296e-001
2.653619e+003,9.054245e-001
2.654583e+003,1.906978e+000
2.655547e+003,1.878171e+000
2.656511e+003,1.801910e+000
2.657476e+003,1.984549e+000
2.658440e+003,1.949841e+000
2.659404e+003,1.480995e+000
2.660368e+003,8.625076e-001
2.661333e+003,2.783157e-001
2.662297e+003,-2.346390e-001
2.663261e+003,-6.988846e-001
2.664225e+003,-7.275330e-001
2.665190e+003,7.740280e-001
2.666154e+003,2.137894e+000
2.667118e+003,8.761002e-001
2.668082e+003,-7.576721e-001
2.669047e+003,-6.629837e-001
2.670011e+003,-7.328644e-002
2.670975e+003,-1.481003e-001
2.671939e+003,-4.188263e-001
2.672904e+003,-2.566345e-001
2.673868e+003,1.071594e-001
2.674832e+003,4.240280e-001
2.675796e+003,4.845001e-001
2.676760e+003,-3.687714e-001
2.677725e+003,-1.799806e+000
2.678689e+003,-2.448830e+000
2.679653e+003,-2.477905e+000
2.680617e+003,-2.171896e+000
2.681582e+003,-1.798149e+000
2.682546e+003,-2.119727e+000
2.683510e+003,-2.553966e+000
2.684474e+003,-1.585693e+000
2.685438e+003,1.241226e-001
2.686403e+003,5.847015e-001
2.687367e+003,-2.244049e-001
2.688331e+003,-1.019402e+000
2.689295e+003,-1.753082e+000
2.690260e+003,-8.388199e-001
2.691224e+003,2.150752e+000
2.692188e+003,2.444595e+000
2.693152e+003,1.583343e-001
2.694117e+003,-8.820190e-002
2.695081e+003,1.648883e+000
2.696045e+003,2.259135e+000
2.697009e+003,1.334866e+000
2.697974e+003,-1.621796e-001
2.698938e+003,-1.651651e+000
2.699902e+003,-1.826038e+000
2.700866e+003,-1.627350e-001
2.701831e+003,1.050087e+000
2.702795e+003,1.200748e+000
2.703759e+003,7.058380e-001
2.704723e+003,-1.148195e+000
2.705688e+003,-1.180037e+000
2.706652e+003,1.432018e+000
2.707616e+003,2.552533e+000
2.708580e+003,1.183736e+000
2.709544e+003,-2.613144e-001
2.710509e+003,-7.961960e-001
2.711473e+003,-1.309366e+000
2.712437e+003,-2.293952e+000
2.713401e+003,-2.403507e+000
2.714365e+003,7.461548e-003
2.715330e+003,1.456174e+000
2.716294e+003,-1.195555e+000
2.717258e+003,-3.094873e+000
2.718222e+003,-1.335776e+000
2.719187e+003,-5.031341e-001
2.720151e+003,-2.670190e+000
2.721115e+003,-3.828984e+000
2.722079e+003,-1.877473e+000
2.723044e+003,3.856949e-001
2.724008e+003,8.757172e-001
2.724972e+003,6.386032e-001
2.725936e+003,6.326050e-001
2.726901e+003,9.158630e-001
2.727865e+003,1.965767e+000
2.728829e+003,2.796986e+000
2.729793e+003,2.540895e+000
2.730758e+003,1.838574e+000
2.731722e+003,9.236725e-001
2.732686e+003,-5.353393e-002
2.733650e+003,-1.327107e+000
2.734615e+003,-1.950670e+000
2.735579e+003,-9.114288e-001
2.736543e+003,3.867874e-001
2.737507e+003,2.672882e-002
2.738471e+003,-1.149564e+000
2.739436e+003,-1.895230e+000
2.740400e+003,-2.047371e+000
2.741364e+003,-6.875092e-001
2.742328e+003,7.668991e-001
2.743292e+003,4.655380e-001
2.744257e+003,-4.722534e-001
2.745221e+003,-8.949768e-001
2.746185e+003,-1.060292e+000
2.747149e+003,-1.563954e+000
2.748114e+003,-1.950476e+000
2.749078e+003,-1.461910e+000
2.750042e+003,-4.245560e-001
2.751006e+003,3.576523e-001
2.751971e+003,8.462769e-001
2.752935e+003,8.043060e-001
2.753899e+003,4.404373e-001
2.754863e+003,2.234222e-001
2.755828e+003,2.351684e-002
2.756792e+003,-5.740768e-001
2.757756e+003,-1.208485e+000
2.758720e+003,-1.332831e+000
2.759685e+003,-1.003586e+000
2.760649e+003,-2.038223e-001
2.761613e+003,7.032654e-001
2.762577e+003,5.259384e-001
2.763542e+003,-5.402405e-001
2.764506e+003,-9.291977e-001
2.765470e+003,-7.543610e-001
2.766434e+003,-5.722321e-001
2.767398e+003,-3.743103e-001
2.768363e+003,7.660218e-002
2.769327e+003,4.535187e-001
2.770291e+003,-1.283279e-001
2.771255e+003,-1.194444e+000
2.772219e+003,-1.577048e+000
2.773184e+003,-1.202945e+000
2.774148e+003,-3.254395e-001
2.775112e+003,9.241211e-001
2.776076e+003,9.290009e-001
2.777041e+003,-3.248047e-001
2.778005e+003,-1.566017e+000
2.778969e+003,-2.627190e+000
2.779933e+003,-2.393825e+000
2.780898e+003,-1.338945e+000
2.781862e+003,-9.961899e-001
2.782826e+003,-1.299092e+000
2.783790e+003,-1.561011e+000
2.784755e+003,-1.558313e+000
2.785719e+003,-8.393219e-001
2.786683e+003,6.113037e-001
2.787647e+003,7.457107e-001
2.788612e+003,-6.382767e-001
2.789576e+003,-1.825783e+000
2.790540e+003,-2.781918e+000
2.791504e+003,-2.553155e+000
2.792469e+003,-1.445265e+000
2.793433e+003,-1.258679e+000
2.794397e+003,-1.805644e+000
2.795361e+003,-1.432234e+000
2.796325e+003,-2.441269e-001
2.797290e+003,1.198135e-001
2.798254e+003,-6.049179e-001
2.799218e+003,-1.363829e+000
2.800182e+003,-2.195590e+000
2.801146e+003,-2.045921e+000
2.802111e+003,-8.156570e-001
2.803075e+003,7.916748e-001
2.804039e+003,2.548110e+000
2.805003e+003,2.926680e+000
2.805968e+003,1.986078e+000
2.806932e+003,5.426453e-001
2.807896e+003,-8.690811e-001
2.808860e+003,-1.313147e+000
2.809825e+003,-7.753448e-001
2.810789e+003,-8.675430e-001
2.811753e+003,-2.169009e+000
2.812717e+003,-1.973560e+000
2.813682e+003,3.044662e-001
2.814646e+003,8.735153e-001
2.815610e+003,-2.668213e-001
2.816574e+003,-5.789322e-001
2.817539e+003,-4.358673e-002
2.818503e+003,-1.578842e-001
2.819467e+003,-1.006735e+000
2.820431e+003,-1.867393e+000
2.821396e+003,-2.414110e+000
2.822360e+003,-2.228203e+000
2.823324e+003,-1.187482e+000
2.824288e+003,3.671371e-001
2.825252e+003,2.961229e+000
2.826217e+003,3.662204e+000
2.827181e+003,2.445538e+000
2.828145e+003,1.804260e-001
2.829109e+003,-2.563683e+000
2.830073e+003,-2.895873e+000
2.831038e+003,-1.121609e+000
2.832002e+003,-1.554459e-001
2.832966e+003,-4.290070e-001
2.833930e+003,-4.776672e-001
2.834895e+003,3.775787e-002
2.835859e+003,8.348144e-001
2.836823e+003,2.147501e+000
2.837787e+003,2.147643e+000
2.838752e+003,7.317444e-001
2.839716e+003,4.821014e-002
2.840680e+003,1.156906e-001
2.841644e+003,2.014618e-002
2.842609e+003,-2.762527e-001
2.843573e+003,-1.745331e-001
2.844537e+003,2.126267e-001
2.845501e+003,-1.258347e-001
2.846466e+003,-1.298486e+000
2.847430e+003,-1.757587e+000
2.848394e+003,-1.327303e+000
2.849358e+003,-4.361740e-001
2.850323e+003,9.911515e-001
2.851287e+003,1.498987e+000
2.852251e+003,1.131068e+000
2.853215e+003,2.603989e-001
2.854179e+003,-6.771606e-001
2.855144e+003,-3.386749e-001
2.856108e+003,8.261887e-001
2.857072e+003,7.188568e-001
2.858036e+003,-7.495743e-001
2.859000e+003,-1.467787e+000
2.859965e+003,-1.293904e+000
2.860929e+003,-1.286363e+000
2.861893e+003,-1.473947e+000
2.862857e+003,-8.923553e-001
2.863822e+003,2.184387e-001
2.864786e+003,4.048859e-001
2.865750e+003,-4.054565e-002
2.866714e+003,1.404877e-001
2.867679e+003,6.787079e-001
2.868643e+003,3.316604e-001
2.869607e+003,-7.287949e-001
2.870571e+003,-1.029222e+000
2.871536e+003,-6.165298e-001
2.872500e+003,-2.726486e-001
2.873464e+003,-1.076965e-002
2.874428e+003,4.447174e-001
2.875393e+003,8.604660e-001
2.876357e+003,-9.226227e-002
2.877321e+003,-1.456172e+000
2.878285e+003,-9.267212e-001
2.879250e+003,7.603119e-001
2.880214e+003,2.040106e+000
2.881178e+003,2.597310e+000
2.882142e+003,2.299686e+000
2.883106e+003,1.252016e+000
2.884071e+003,-5.791962e-001
2.885035e+003,-2.652356e+000
2.885999e+003,-1.303325e+000
2.886963e+003,1.717265e+000
2.887927e+003,2.259793e+000
2.888892e+003,1.304832e+000
2.889856e+003,-2.476044e-002
2.890820e+003,-9.321915e-001
2.891784e+003,-3.227081e-002
2.892749e+003,1.534847e+000
2.893713e+003,1.916624e+000
2.894677e+003,1.435719e+000
2.895641e+003,6.257889e-001
2.896606e+003,-1.427368e-001
2.897570e+003,3.567902e-001
2.898534e+003,1.430277e+000
2.899498e+003,2.402484e+000
2.900463e+003,2.780908e+000
2.901427e+003,1.566669e+000
2.902391e+003,-1.922607e-004
2.903355e+003,-5.347702e-001
2.904320e+003,-8.528427e-001
2.905284e+003,-1.933240e+000
2.906248e+003,-2.714691e+000
2.907212e+003,-1.428607e+000
2.908177e+003,5.676239e-001
2.909141e+003,1.209732e+000
2.910105e+003,1.089610e+000
2.911069e+003,5.389206e-001
2.912033e+003,-1.074707e-001
2.912998e+003,-9.636459e-001
2.913962e+003,-1.227358e+000
2.914926e+003,-2.017975e-001
2.915890e+003,6.975495e-001
2.916854e+003,4.154526e-001
2.917819e+003,-6.539307e-002
2.918783e+003,2.676529e-001
2.919747e+003,6.671951e-001
2.920711e+003,2.462631e-001
2.921676e+003,-2.377228e-001
2.922640e+003,-3.519012e-001
2.923604e+003,-3.443131e-001
2.924568e+003,-4.812973e-001
2.925533e+003,1.875916e-002
2.926497e+003,1.547429e+000
2.927461e+003,2.386325e+000
2.928425e+003,1.793457e+000
2.929390e+003,-3.886795e-001
2.930354e+003,-4.870735e+000
2.931318e+003,-7.206627e+000
2.932282e+003,-2.443291e+000
2.933247e+003,1.007045e+000
2.934211e+003,5.773544e-001
2.935175e+003,-1.307617e-001
2.936139e+003,-1.117235e+000
2.937104e+003,-1.291479e+000
2.938068e+003,-4.792145e-001
2.939032e+003,-4.169189e-001
2.939996e+003,-1.399486e+000
2.940960e+003,-1.004843e+000
2.941925e+003,1.632361e+000
2.942889e+003,2.664972e+000
2.943853e+003,-1.374512e-002
2.944817e+003,-1.336694e+000
2.945781e+003,-8.507751e-001
2.946746e+003,-9.366455e-001
2.947710e+003,-1.628330e+000
2.948674e+003,-1.148535e+000
2.949638e+003,3.645126e-001
2.950603e+003,1.464951e+000
2.951567e+003,1.923354e+000
2.952531e+003,2.254530e+000
2.953495e+003,2.494409e+000
2.954460e+003,2.139549e+000
2.955424e+003,1.202385e+000
2.956388e+003,-6.040832e-001
2.957352e+003,-3.002179e+000
2.958317e+003,-3.088483e+000
2.959281e+003,-1.439908e+000
2.960245e+003,9.871902e-001
2.961209e+003,3.094100e+000
2.962174e+003,2.740404e+000
2.963138e+003,1.029329e+000
2.964102e+003,6.384079e-001
2.965066e+003,1.205061e+000
2.966031e+003,1.841148e+000
2.966995e+003,2.433992e+000
2.967959e+003,2.549435e+000
2.968923e+003,2.391545e+000
2.969887e+003,2.379546e+000
2.970852e+003,2.378342e+000
2.971816e+003,2.162471e+000
2.972780e+003,1.934644e+000
2.973744e+003,1.844875e+000
2.974708e+003,2.014159e+000
2.975673e+003,2.693448e+000
2.976637e+003,2.942127e+000
2.977601e+003,1.482846e+000
2.978565e+003,-1.978104e-001
2.979530e+003,2.199432e-001
2.980494e+003,8.914582e-001
2.981458e+003,-6.046753e-002
2.982422e+003,-6.189148e-001
2.983387e+003,9.453872e-001
2.984351e+003,1.508588e+000
2.985315e+003,-1.997253e-001
2.986279e+003,-1.359593e+000
2.987244e+003,-5.734375e-001
2.988208e+003,2.478455e-001
2.989172e+003,-1.008011e-001
2.990136e+003,-7.251571e-001
2.991101e+003,-1.394731e+000
2.992065e+003,-1.557515e+000
2.993029e+003,-7.954544e-001
2.993993e+003,-4.959274e-001
2.994958e+003,-8.454437e-001
2.995922e+003,-9.373535e-001
2.996886e+003,-5.887467e-001
2.997850e+003,1.860367e-001
2.998814e+003,1.155283e+000
2.999779e+003,1.183572e+000
3.000743e+003,-1.313324e-002
3.001707e+003,-8.872986e-002
3.002671e+003,1.427539e+000
3.003635e+003,1.292342e+000
3.004600e+003,-3.306686e-001
3.005564e+003,-4.472763e-001
3.006528e+003,5.583709e-001
3.007492e+003,1.097769e+000
3.008457e+003,1.220520e+000
3.009421e+003,1.645639e+000
3.010385e+003,2.100049e+000
3.011349e+003,1.683957e+000
3.012314e+003,6.480713e-001
3.013278e+003,-4.625458e-001
3.014242e+003,-1.411551e+000
3.015206e+003,-1.203197e+000
3.016171e+003,-4.800201e-001
3.017135e+003,-2.650986e-001
3.018099e+003,-2.347672e-001
3.019063e+003,-1.853165e-001
3.020028e+003,1.691803e-001
3.020992e+003,1.338893e+000
3.021956e+003,1.912573e+000
3.022920e+003,5.628204e-001
3.023885e+003,-1.031970e+000
3.024849e+003,-1.004871e+000
3.025813e+003,-4.322143e-001
3.026777e+003,-1.342163e-002
3.027741e+003,8.822937e-002
3.028706e+003,-7.791626e-001
3.029670e+003,-8.095490e-001
3.030634e+003,7.337875e-001
3.031598e+003,9.565872e-001
3.032563e+003,-9.086319e-001
3.033527e+003,-9.946716e-001
3.034491e+003,2.077756e+000
3.035455e+003,4.205763e+000
3.036420e+003,3.534848e+000
3.037384e+003,2.086998e+000
3.038348e+003,-3.518097e-001
3.039312e+003,-1.518597e+000
3.040277e+003,-1.369127e+000
3.041241e+003,-8.766845e-001
3.042205e+003,-3.454041e-001
3.043169e+003,-7.168061e-001
3.044134e+003,-1.532240e+000
3.045098e+003,-8.981308e-001
3.046062e+003,8.656281e-001
3.047026e+003,1.295943e+000
3.047990e+003,5.701874e-001
3.048955e+003,-4.107971e-001
3.049919e+003,-1.458501e+000
3.050883e+003,-1.793787e+000
3.051847e+003,-1.531935e+000
3.052812e+003,-4.869781e-001
3.053776e+003,6.671646e-001
3.054740e+003,1.196645e+000
3.055704e+003,1.289122e+000
3.056668e+003,1.131430e+000
3.057633e+003,8.709564e-001
3.058597e+003,6.079315e-001
3.059561e+003,6.766754e-001
3.060525e+003,2.067918e+000
3.061490e+003,2.969308e+000
3.062454e+003,1.021446e+000
3.063418e+003,-1.779297e-001
3.064382e+003,1.205849e+000
3.065347e+003,2.064955e+000
3.066311e+003,1.556589e+000
3.067275e+003,8.058884e-001
3.068239e+003,2.805451e-001
3.069204e+003,-1.985168e-001
3.070168e+003,-7.268143e-001
3.071132e+003,-1.306935e+000
3.072096e+003,-2.389000e+000
3.073061e+003,-1.700908e+000
3.074025e+003,1.024361e+000
3.074989e+003,2.328154e+000
3.075953e+003,2.249077e+000
3.076917e+003,2.198915e+000
3.077882e+003,2.142272e+000
3.078846e+003,1.144844e+000
3.079810e+003,-3.557938e-001
3.080774e+003,-7.189789e-001
3.081739e+003,-2.996902e-001
3.082703e+003,-2.668518e-001
3.083667e+003,-4.482437e-001
3.084631e+003,-2.561935e-001
3.085595e+003,1.709839e-001
3.086560e+003,8.347076e-001
3.087524e+003,1.376364e+000
3.088488e+003,1.476837e+000
3.089452e+003,1.132491e+000
3.090417e+003,1.936279e-001
3.091381e+003,-3.466538e-001
3.092345e+003,3.102463e-001
3.093309e+003,1.023998e+000
3.094274e+003,6.808395e-001
3.095238e+003,3.121399e-001
3.096202e+003,7.214813e-001
3.097166e+003,9.695038e-001
3.098131e+003,8.500290e-001
3.099095e+003,7.561172e-001
3.100059e+003,7.288224e-001
3.101023e+003,2.885590e-001
3.101988e+003,-5.451202e-001
3.102952e+003,-1.197992e+000
3.103916e+003,-1.482399e+000
3.104880e+003,-1.215205e+000
3.105844e+003,-3.726684e-001
3.106809e+003,9.822540e-002
3.107773e+003,2.000183e-001
3.108737e+003,-2.297211e-001
3.109701e+003,-8.999985e-001
3.110666e+003,-9.462967e-001
3.111630e+003,-8.227402e-001
3.112594e+003,-1.677182e+000
3.113558e+003,-2.528999e+000
3.114522e+003,-2.022267e+000
3.115487e+003,-9.729874e-001
3.116451e+003,-5.463578e-001
3.117415e+003,-1.776688e-001
3.118379e+003,1.524344e+000
3.119344e+003,2.703755e+000
3.120308e+003,1.421816e+000
3.121272e+003,-1.237991e-001
3.122236e+003,-1.326804e+000
3.123201e+003,-1.746312e+000
3.124165e+003,-1.259570e+000
3.125129e+003,-3.669418e-001
3.126093e+003,5.916947e-001
3.127058e+003,6.554337e-001
3.128022e+003,-7.231140e-001
3.128986e+003,-1.615686e+000
3.129950e+003,-1.661909e+000
3.130915e+003,-1.505647e+000
3.131879e+003,-1.193315e+000
3.132843e+003,-1.394637e+000
3.133807e+003,-1.794043e+000
3.134771e+003,-1.275369e+000
3.135736e+003,-2.228867e-001
3.136700e+003,4.496933e-001
3.137664e+003,5.865326e-001
3.138628e+003,-3.810577e-002
3.139593e+003,-1.019826e+000
3.140557e+003,-1.757910e+000
3.141521e+003,-1.822371e+000
3.142485e+003,5.117676e-001
3.143449e+003,2.393454e+000
3.144414e+003,1.040231e+000
3.145378e+003,-7.439591e-001
3.146342e+003,-1.945029e+000
3.147306e+003,-2.393935e+000
3.148271e+003,-2.037503e+000
3.149235e+003,-1.200795e+000
3.150199e+003,-3.275757e-002
3.151163e+003,7.912704e-001
3.152128e+003,1.001547e+000
3.153092e+003,6.786194e-001
3.154056e+003,-2.435318e-001
3.155020e+003,-8.647217e-001
3.155985e+003,-1.114418e+000
3.156949e+003,-8.649185e-001
3.157913e+003,-3.274078e-001
3.158877e+003,9.480286e-002
3.159842e+003,1.992493e-001
3.160806e+003,-4.056610e-001
3.161770e+003,-1.187853e+000
3.162734e+003,-5.278244e-001
3.163698e+003,6.567688e-001
3.164663e+003,2.524811e-001
3.165627e+003,-6.097488e-001
3.166591e+003,-1.121387e+000
3.167555e+003,-1.021330e+000
3.168520e+003,-6.033783e-002
3.169484e+003,8.655472e-001
3.170448e+003,1.343976e+000
3.171412e+003,1.290088e+000
3.172376e+003,6.532425e-001
3.173341e+003,3.193008e-001
3.174305e+003,1.062068e+000
3.175269e+003,1.031198e+000
3.176233e+003,-1.880890e-001
3.177198e+003,-3.004822e-001
3.178162e+003,5.365326e-001
3.179126e+003,2.983292e-001
3.180090e+003,-7.102707e-001
3.181055e+003,-9.700378e-001
3.182019e+003,-6.094208e-001
3.182983e+003,-7.928299e-001
3.183947e+003,-9.194382e-001
3.184912e+003,9.178772e-001
3.185876e+003,3.138417e+000
3.186840e+003,1.599388e+000
3.187804e+003,-8.212616e-001
3.188769e+003,-1.172183e+000
3.189733e+003,-9.922562e-001
3.190697e+003,-1.159171e+000
3.191661e+003,-1.225554e+000
3.192625e+003,-9.975220e-001
3.193590e+003,-8.894607e-001
3.194554e+003,-1.113342e+000
3.195518e+003,-1.459447e+000
3.196482e+003,-2.028453e+000
3.197447e+003,-1.693417e+000
3.198411e+003,-2.325485e-001
3.199375e+003,8.448486e-001
3.200339e+003,1.469933e+000
3.201303e+003,1.452199e+000
3.202268e+003,1.154877e+000
3.203232e+003,1.634943e+000
3.204196e+003,2.217711e+000
3.205160e+003,1.041043e+000
3.206125e+003,-3.767883e-001
3.207089e+003,1.069127e+000
3.208053e+003,3.168924e+000
3.209017e+003,1.624582e+000
3.209982e+003,-4.546829e-001
3.210946e+003,-8.928436e-001
3.211910e+003,-1.271393e-001
3.212874e+003,2.040160e+000
3.213839e+003,2.768124e+000
3.214803e+003,1.267483e+000
3.215767e+003,1.598434e-001
3.216731e+003,4.406616e-001
3.217696e+003,2.645416e-001
3.218660e+003,-1.226953e+000
3.219624e+003,-8.121582e-001
3.220588e+003,1.591319e+000
3.221552e+003,2.025093e+000
3.222517e+003,1.048869e+000
3.223481e+003,1.963135e-001
3.224445e+003,-3.988770e-001
3.225409e+003,-7.997574e-001
3.226374e+003,-8.870773e-001
3.227338e+003,-5.067627e-001
3.228302e+003,6.967163e-002
3.229266e+003,5.795105e-001
3.230230e+003,8.027970e-001
3.231195e+003,2.170532e-001
3.232159e+003,-2.224167e-001
3.233123e+003,9.193268e-002
3.234087e+003,9.447022e-002
3.235052e+003,-3.790131e-001
3.236016e+003,7.294159e-002
3.236980e+003,1.323167e+000
3.237944e+003,7.094727e-001
3.238909e+003,-1.880635e+000
3.239873e+003,-2.166015e+000
3.240837e+003,-2.950668e-001
3.241801e+003,1.875626e-001
3.242766e+003,-4.339203e-001
3.243730e+003,-1.397087e+000
3.244694e+003,-2.213359e+000
3.245658e+003,-2.139369e+000
3.246623e+003,-1.632826e+000
3.247587e+003,-1.020241e+000
3.248551e+003,-4.995071e-001
3.249515e+003,-1.946640e-001
3.250479e+003,-3.580780e-002
3.251444e+003,-1.096954e-002
3.252408e+003,1.416733e-001
3.253372e+003,1.186084e+000
3.254336e+003,7.243881e-001
3.255301e+003,-1.519080e+000
3.256265e+003,-2.030944e+000
3.257229e+003,-1.085802e+000
3.258193e+003,-1.432636e+000
3.259157e+003,-2.676039e+000
3.260122e+003,-2.640091e+000
3.261086e+003,-1.604881e+000
3.262050e+003,-5.843002e-001
3.263014e+003,1.702164e-001
3.263979e+003,-2.834457e-001
3.264943e+003,-8.488251e-001
3.265907e+003,1.645584e-001
3.266871e+003,1.049379e+000
3.267836e+003,7.728134e-001
3.268800e+003,4.608765e-001
3.269764e+003,4.422165e-001
3.270728e+003,-1.258850e-002
3.271693e+003,-1.081764e+000
3.272657e+003,-1.980478e+000
3.273621e+003,-2.438981e+000
3.274585e+003,-1.636667e+000
3.275550e+003,5.168640e-001
3.276514e+003,7.731018e-002
3.277478e+003,-1.691844e+000
3.278442e+003,-8.876969e-001
3.279406e+003,8.178329e-001
3.280371e+003,6.084488e-001
3.281335e+003,-2.461655e-001
3.282299e+003,-5.715057e-001
3.283263e+003,-4.037643e-001
3.284228e+003,2.688858e-001
3.285192e+003,9.766815e-001
3.286156e+003,1.762999e+000
3.287120e+003,1.455713e+000
3.288084e+003,-7.722870e-001
3.289049e+003,-1.564389e+000
3.290013e+003,-8.105896e-001
3.290977e+003,-5.536072e-001
3.291941e+003,-8.526306e-001
3.292906e+003,-5.073059e-001
3.293870e+003,1.735306e-001
3.294834e+003,-4.386215e-001
3.295798e+003,-1.518138e+000
3.296763e+003,-6.189087e-001
3.297727e+003,9.475586e-001
3.298691e+003,1.266501e+000
3.299655e+003,9.129883e-001
3.300620e+003,-4.407776e-001
3.301584e+003,-9.711182e-001
3.302548e+003,-1.387070e-001
3.303512e+003,9.529449e-001
3.304477e+003,1.805502e+000
3.305441e+003,2.107971e+000
3.306405e+003,1.722432e+000
3.307369e+003,8.616501e-001
3.308333e+003,-4.776917e-001
3.309298e+003,-3.826843e-001
3.310262e+003,7.585449e-001
3.311226e+003,2.344254e+000
3.312190e+003,3.579178e+000
3.313155e+003,2.951186e+000
3.314119e+003,2.078351e+000
3.315083e+003,2.287039e+000
3.316047e+003,2.659622e+000
3.317011e+003,2.452374e+000
3.317976e+003,1.925475e+000
3.318940e+003,8.321335e-001
3.319904e+003,6.617478e-001
3.320868e+003,2.017513e+000
3.321833e+003,1.692566e+000
3.322797e+003,-2.036591e-002
3.323761e+003,2.990082e-001
3.324725e+003,1.959117e+000
3.325690e+003,1.748343e+000
3.326654e+003,5.162643e-001
3.327618e+003,8.932999e-001
3.328582e+003,1.886375e+000
3.329547e+003,1.701024e+000
3.330511e+003,8.812500e-001
3.331475e+003,-4.465210e-001
3.332439e+003,-1.398270e+000
3.333404e+003,-1.733733e+000
3.334368e+003,-9.684326e-001
3.335332e+003,8.260406e-001
3.336296e+003,1.342143e+000
3.337260e+003,2.359070e-001
3.338225e+003,-4.260834e-001
3.339189e+003,-2.499405e-001
3.340153e+003,-4.298019e-001
3.341117e+003,-9.010513e-001
3.342082e+003,-1.773949e+000
3.343046e+003,-2.228290e+000
3.344010e+003,1.322540e-001
3.344974e+003,2.011073e+000
3.345938e+003,5.881790e-001
3.346903e+003,-1.039629e+000
3.347867e+003,-1.410638e+000
3.348831e+003,-1.337445e+000
3.349795e+003,-1.252284e+000
3.350760e+003,-1.435747e+000
3.351724e+003,-2.264645e+000
3.352688e+003,-2.123987e+000
3.353652e+003,-1.108122e+000
3.354617e+003,-7.147217e-002
3.355581e+003,7.099121e-001
3.356545e+003,6.444381e-001
3.357509e+003,1.897812e-001
3.358474e+003,7.139282e-002
3.359438e+003,-3.411469e-001
3.360402e+003,-1.784441e+000
3.361366e+003,-2.396248e+000
3.362331e+003,6.575302e-001
3.363295e+003,2.254141e+000
3.364259e+003,-6.171722e-001
3.365223e+003,-1.324910e+000
3.366188e+003,3.087082e-001
3.367152e+003,6.417267e-001
3.368116e+003,-3.410873e-001
3.369080e+003,-1.140984e+000
3.370044e+003,-1.522121e+000
3.371009e+003,-1.688722e+000
3.371973e+003,-1.537549e+000
3.372937e+003,-5.028671e-001
3.373901e+003,1.688507e-001
3.374865e+003,-2.054927e+000
3.375830e+003,-3.356560e+000
3.376794e+003,-1.775803e+000
3.377758e+003,-1.129909e+000
3.378722e+003,-2.027953e+000
3.379687e+003,-2.214238e+000
3.380651e+003,-1.282352e+000
3.381615e+003,-3.707108e-001
3.382579e+003,1.847183e-001
3.383544e+003,-1.908218e-001
3.384508e+003,-1.128722e+000
3.385472e+003,-1.586583e+000
3.386436e+003,-1.441789e+000
3.387401e+003,1.379089e-001
3.388365e+003,1.226317e+000
3.389329e+003,8.700622e-001
3.390293e+003,1.577454e-001
3.391258e+003,-3.767807e-001
3.392222e+003,5.573273e-002
3.393186e+003,1.780193e+000
3.394150e+003,2.328470e+000
3.395115e+003,1.389708e+000
3.396079e+003,1.935738e+000
3.397043e+003,3.278943e+000
3.398007e+003,3.157700e+000
3.398971e+003,2.540904e+000
3.399936e+003,2.721188e+000
3.400900e+003,3.340797e+000
3.401864e+003,4.230071e+000
3.402828e+003,4.293768e+000
3.403792e+003,2.745694e+000
3.404757e+003,1.842259e+000
3.405721e+003,3.176569e+000
3.406685e+003,4.084631e+000
3.407649e+003,4.442304e+000
3.408614e+003,4.877426e+000
3.409578e+003,5.634347e+000
3.410542e+003,7.647601e+000
3.411506e+003,9.810069e+000
3.412471e+003,1.044087e+001
3.413435e+003,1.031668e+001
3.414399e+003,1.012829e+001
3.415363e+003,1.025998e+001
3.416328e+003,1.126875e+001
3.417292e+003,1.223455e+001
3.418256e+003,1.298432e+001
3.419220e+003,1.290563e+001
3.420185e+003,1.220188e+001
3.421149e+003,1.278813e+001
3.422113e+003,1.411811e+001
3.423077e+003,1.395673e+001
3.424042e+003,1.310214e+001
3.425006e+003,1.351976e+001
3.425970e+003,1.406638e+001
3.426934e+003,1.266192e+001
