7.140112e+001,1.880928e+002
7.236536e+001,1.819884e+002
7.332959e+001,1.876516e+002
7.429382e+001,1.978306e+002
7.525806e+001,2.144592e+002
7.622229e+001,2.214052e+002
7.718652e+001,2.068264e+002
7.815076e+001,1.591552e+002
7.911499e+001,1.257338e+002
8.007922e+001,1.014087e+002
8.104346e+001,8.894942e+001
8.200769e+001,9.202155e+001
8.297192e+001,1.207420e+002
8.393616e+001,1.544266e+002
8.490039e+001,1.991925e+002
8.586462e+001,2.443995e+002
8.682886e+001,2.727712e+002
8.779310e+001,2.478377e+002
8.875733e+001,2.051040e+002
8.972157e+001,1.619700e+002
9.068580e+001,1.255860e+002
9.165003e+001,9.671289e+001
9.261427e+001,8.476375e+001
9.357850e+001,8.425249e+001
9.454273e+001,8.660535e+001
9.550697e+001,8.614053e+001
9.647120e+001,8.233138e+001
9.743543e+001,7.826558e+001
9.839967e+001,7.373322e+001
9.936390e+001,6.883797e+001
1.003281e+002,6.354016e+001
1.012924e+002,5.584017e+001
1.022566e+002,5.045237e+001
1.032208e+002,4.867899e+001
1.041851e+002,4.993592e+001
1.051493e+002,5.265505e+001
1.061135e+002,5.954753e+001
1.070778e+002,6.415597e+001
1.080420e+002,6.227594e+001
1.090062e+002,5.324851e+001
1.099705e+002,4.040845e+001
1.109347e+002,2.976138e+001
1.118989e+002,2.168882e+001
1.128632e+002,1.975613e+001
1.138274e+002,2.669717e+001
1.147916e+002,4.456726e+001
1.157559e+002,5.399387e+001
1.167201e+002,5.289288e+001
1.176843e+002,4.782722e+001
1.186486e+002,4.681168e+001
1.196128e+002,5.358073e+001
1.205770e+002,5.962315e+001
1.215413e+002,6.799733e+001
1.225055e+002,7.542200e+001
1.234697e+002,7.510706e+001
1.244340e+002,5.102016e+001
1.253982e+002,2.679749e+001
1.263624e+002,6.752478e+000
1.273267e+002,-6.326037e+000
1.282909e+002,-1.024393e+001
1.292551e+002,1.220563e+001
1.302194e+002,4.218406e+001
1.311836e+002,6.236660e+001
1.321478e+002,6.186098e+001
1.331121e+002,4.058775e+001
1.340763e+002,2.305859e+001
1.350405e+002,7.574475e+000
1.360048e+002,-1.880103e+000
1.369690e+002,3.291748e-001
1.379332e+002,2.772131e+001
1.388975e+002,4.451499e+001
1.398617e+002,4.740168e+001
1.408259e+002,4.119768e+001
1.417902e+002,3.342681e+001
1.427544e+002,2.463288e+001
1.437186e+002,1.731577e+001
1.446829e+002,1.211840e+001
1.456471e+002,8.970240e+000
1.466113e+002,7.254565e+000
1.475756e+002,4.959680e+000
1.485398e+002,4.601697e+000
1.495040e+002,1.073029e+001
1.504683e+002,2.410236e+001
1.514325e+002,4.148415e+001
1.523967e+002,4.231775e+001
1.533610e+002,3.052378e+001
1.543252e+002,1.716974e+001
1.552894e+002,1.020749e+001
1.562537e+002,1.236277e+001
1.572179e+002,1.308890e+001
1.581821e+002,1.004226e+001
1.591464e+002,7.304968e+000
1.601106e+002,9.918872e+000
1.610748e+002,2.544666e+001
1.620391e+002,3.476914e+001
1.630033e+002,2.979653e+001
1.639676e+002,1.707731e+001
1.649318e+002,7.125000e+000
1.658960e+002,1.411479e+001
1.668603e+002,2.308375e+001
1.678245e+002,2.257229e+001
1.687887e+002,1.308792e+001
1.697530e+002,6.114136e-001
1.707172e+002,3.174731e+000
1.716814e+002,1.506682e+001
1.726457e+002,2.274921e+001
1.736099e+002,2.097018e+001
1.745741e+002,9.294983e+000
1.755384e+002,2.248413e-001
1.765026e+002,-7.608618e+000
1.774668e+002,-1.268147e+001
1.784311e+002,-1.315469e+001
1.793953e+002,-6.868970e+000
1.803595e+002,-2.201904e+000
1.813238e+002,-2.620972e-001
1.822880e+002,-2.592407e-001
1.832522e+002,-1.820764e+000
1.842165e+002,-5.148547e+000
1.851807e+002,-8.855066e+000
1.861449e+002,-1.271135e+001
1.871092e+002,-1.616848e+001
1.880734e+002,-1.876008e+001
1.890376e+002,-2.004017e+001
1.900019e+002,-1.918055e+001
1.909661e+002,-1.387067e+001
1.919303e+002,-4.162976e+000
1.928946e+002,7.227502e+000
1.938588e+002,1.099480e+001
1.948230e+002,2.000207e+000
1.957873e+002,-3.289966e+000
1.967515e+002,-1.102136e+000
1.977157e+002,8.392431e+000
1.986800e+002,1.747698e+001
1.996442e+002,2.483747e+001
2.006084e+002,3.185530e+001
2.015727e+002,4.100659e+001
2.025369e+002,5.284444e+001
2.035011e+002,5.897257e+001
2.044654e+002,4.939248e+001
2.054296e+002,3.527461e+001
2.063938e+002,2.269439e+001
2.073581e+002,1.570786e+001
2.083223e+002,1.270175e+001
2.092865e+002,6.362817e+000
2.102508e+002,-8.390503e-001
2.112150e+002,-2.012048e+000
2.121792e+002,1.027286e+001
2.131435e+002,4.101528e+001
2.141077e+002,5.836589e+001
2.150719e+002,5.788993e+001
2.160362e+002,4.860022e+001
2.170004e+002,4.380877e+001
2.179646e+002,4.866648e+001
2.189289e+002,5.105764e+001
2.198931e+002,4.639711e+001
2.208573e+002,3.874755e+001
2.218216e+002,3.585349e+001
2.227858e+002,4.591360e+001
2.237500e+002,5.952520e+001
2.247143e+002,7.906692e+001
2.256785e+002,1.001470e+002
2.266427e+002,1.139619e+002
2.276070e+002,9.647917e+001
2.285712e+002,6.373060e+001
2.295354e+002,3.546660e+001
2.304997e+002,1.752729e+001
2.314639e+002,8.769251e+000
2.324281e+002,2.602661e+000
2.333924e+002,-1.092029e+000
2.343566e+002,-2.918176e+000
2.353208e+002,-2.147656e+000
2.362851e+002,1.962610e+000
2.372493e+002,3.596582e+000
2.382135e+002,7.640991e-001
2.391778e+002,-2.535058e+000
2.401420e+002,-4.248950e+000
2.411062e+002,-3.478601e+000
2.420705e+002,-2.794714e+000
2.430347e+002,-3.739063e+000
2.439989e+002,-5.474658e+000
2.449632e+002,-7.658142e+000
2.459274e+002,-1.008272e+001
2.468916e+002,-1.199895e+001
2.478559e+002,-1.164568e+001
2.488201e+002,-9.877283e+000
2.497843e+002,-8.611572e+000
2.507486e+002,-1.015970e+001
2.517128e+002,-1.555121e+001
2.526770e+002,-1.601615e+001
2.536413e+002,-9.166382e+000
2.546055e+002,3.560913e-001
2.555697e+002,5.116992e+000
2.565340e+002,-3.211670e-002
2.574982e+002,-3.149585e+000
2.584625e+002,-1.889233e+000
2.594267e+002,1.891431e+000
2.603909e+002,4.851013e+000
2.613552e+002,4.799597e+000
2.623194e+002,3.239624e+000
2.632836e+002,-1.519287e-001
2.642479e+002,-4.446594e+000
2.652121e+002,-8.051221e+000
2.661763e+002,-7.975207e+000
2.671406e+002,-5.835706e+000
2.681048e+002,-4.062940e+000
2.690690e+002,-3.116016e+000
2.700333e+002,-2.731982e+000
2.709975e+002,-1.756238e+000
2.719617e+002,6.136597e-001
2.729260e+002,1.188989e+000
2.738902e+002,-2.018469e+000
2.748544e+002,-8.921972e+000
2.758187e+002,-1.311624e+001
2.767829e+002,-1.249521e+001
2.777471e+002,-1.127051e+001
2.787114e+002,-1.039783e+001
2.796756e+002,-1.004155e+001
2.806398e+002,-9.524414e+000
2.816041e+002,-8.487574e+000
2.825683e+002,-7.224072e+000
2.835325e+002,-5.913977e+000
2.844968e+002,-4.608008e+000
2.854610e+002,-3.102173e+000
2.864252e+002,1.581421e-001
2.873895e+002,3.904248e+000
2.883537e+002,5.827771e+000
2.893179e+002,4.483801e+000
2.902822e+002,-3.039307e-001
2.912464e+002,-4.472510e+000
2.922106e+002,-8.250586e+000
2.931749e+002,-1.154123e+001
2.941391e+002,-1.438390e+001
2.951033e+002,-1.697149e+001
2.960676e+002,-1.863098e+001
2.970318e+002,-2.022165e+001
2.979960e+002,-2.040358e+001
2.989603e+002,-1.780104e+001
2.999245e+002,-1.129487e+001
3.008887e+002,-4.363733e+000
3.018530e+002,1.696314e+000
3.028172e+002,6.338904e+000
3.037814e+002,8.611231e+000
3.047457e+002,7.640491e+000
3.057099e+002,4.484888e+000
3.066741e+002,2.958081e+000
3.076384e+002,2.630371e+000
3.086026e+002,2.197546e+000
3.095668e+002,1.654907e-001
3.105311e+002,-4.182947e+000
3.114953e+002,-7.112817e+000
3.124595e+002,-8.387439e+000
3.134238e+002,-8.757629e+000
3.143880e+002,-9.156726e+000
3.153522e+002,-1.018016e+001
3.163165e+002,-1.018536e+001
3.172807e+002,-8.092102e+000
3.182449e+002,-5.110816e+000
3.192092e+002,-2.775903e+000
3.201734e+002,-2.624744e+000
3.211376e+002,-2.443359e+000
3.221019e+002,-3.435669e-001
3.230661e+002,3.079041e+000
3.240303e+002,7.072632e+000
3.249946e+002,1.092813e+001
3.259588e+002,1.398687e+001
3.269230e+002,1.459573e+001
3.278873e+002,1.267305e+001
3.288515e+002,9.382910e+000
3.298157e+002,6.757861e+000
3.307800e+002,4.958093e+000
3.317442e+002,4.223083e+000
3.327084e+002,4.477502e+000
3.336727e+002,5.575195e+000
3.346369e+002,7.513062e+000
3.356011e+002,1.200295e+001
3.365654e+002,1.489644e+001
3.375296e+002,1.450081e+001
3.384938e+002,1.215721e+001
3.394581e+002,9.935925e+000
3.404223e+002,9.571912e+000
3.413865e+002,9.962171e+000
3.423508e+002,1.020410e+001
3.433150e+002,1.028619e+001
3.442792e+002,1.018143e+001
3.452435e+002,9.643811e+000
3.462077e+002,8.913208e+000
3.471719e+002,1.002699e+001
3.481362e+002,1.274736e+001
3.491004e+002,1.772273e+001
3.500646e+002,2.630857e+001
3.510289e+002,3.530093e+001
3.519931e+002,5.463036e+001
3.529573e+002,8.686489e+001
3.539216e+002,1.287696e+002
3.548858e+002,1.774267e+002
3.558500e+002,2.533257e+002
3.568143e+002,3.032847e+002
3.577785e+002,3.037378e+002
3.587427e+002,2.672309e+002
3.597070e+002,2.148073e+002
3.606712e+002,1.605050e+002
3.616354e+002,1.112655e+002
3.625997e+002,7.398586e+001
3.635639e+002,4.863234e+001
3.645281e+002,3.334851e+001
3.654924e+002,2.499865e+001
3.664566e+002,2.588804e+001
3.674208e+002,2.516143e+001
3.683851e+002,2.241080e+001
3.693493e+002,1.807267e+001
3.703135e+002,1.300566e+001
3.712778e+002,5.380579e+000
3.722420e+002,1.124512e-001
3.732062e+002,-2.383069e+000
3.741705e+002,-2.474658e+000
3.751347e+002,-3.885620e-001
3.760989e+002,5.744800e+000
3.770632e+002,1.110659e+001
3.780274e+002,1.280585e+001
3.789916e+002,1.191315e+001
3.799559e+002,1.036952e+001
3.809201e+002,1.043378e+001
3.818844e+002,1.119818e+001
3.828486e+002,9.723719e+000
3.838128e+002,6.231372e+000
3.847771e+002,2.492761e+000
3.857413e+002,1.191577e+000
3.867055e+002,3.888550e+000
3.876698e+002,5.096692e+000
3.886340e+002,1.989771e+000
3.895982e+002,-1.440418e+000
3.905625e+002,1.073010e+000
3.915267e+002,1.598151e+001
3.924909e+002,2.611407e+001
3.934552e+002,2.721886e+001
3.944194e+002,2.338278e+001
3.953836e+002,1.853505e+001
3.963479e+002,1.419205e+001
3.973121e+002,1.157062e+001
3.982763e+002,1.237216e+001
3.992406e+002,1.488855e+001
4.002048e+002,1.653110e+001
4.011690e+002,1.473541e+001
4.021333e+002,1.029153e+001
4.030975e+002,9.819910e+000
4.040617e+002,1.334474e+001
4.050260e+002,1.743148e+001
4.059902e+002,1.836235e+001
4.069544e+002,1.419731e+001
4.079187e+002,1.222765e+001
4.088829e+002,1.376665e+001
4.098471e+002,1.583143e+001
4.108114e+002,1.590999e+001
4.117756e+002,1.284777e+001
4.127398e+002,1.076171e+001
4.137041e+002,1.197960e+001
4.146683e+002,1.412382e+001
4.156325e+002,1.548191e+001
4.165968e+002,1.513675e+001
4.175610e+002,1.412189e+001
4.185252e+002,1.429745e+001
4.194895e+002,1.508180e+001
4.204537e+002,1.554697e+001
4.214179e+002,1.515719e+001
4.223822e+002,1.411467e+001
4.233464e+002,1.633336e+001
4.243106e+002,2.266946e+001
4.252749e+002,2.752179e+001
4.262391e+002,2.679123e+001
4.272033e+002,1.964889e+001
4.281676e+002,1.747030e+001
4.291318e+002,2.432498e+001
4.300960e+002,3.233851e+001
4.310603e+002,3.783408e+001
4.320245e+002,4.073237e+001
4.329887e+002,4.597066e+001
4.339530e+002,5.507698e+001
4.349172e+002,7.043880e+001
4.358814e+002,9.672385e+001
4.368457e+002,1.330716e+002
4.378099e+002,1.747116e+002
4.387741e+002,2.180176e+002
4.397384e+002,2.575313e+002
4.407026e+002,2.744505e+002
4.416668e+002,2.634626e+002
4.426311e+002,2.305695e+002
4.435953e+002,1.955174e+002
4.445595e+002,1.504526e+002
4.455238e+002,1.141630e+002
4.464880e+002,8.976881e+001
4.474522e+002,7.442320e+001
4.484165e+002,6.253356e+001
4.493807e+002,5.472749e+001
4.503449e+002,4.849865e+001
4.513092e+002,4.314202e+001
4.522734e+002,3.855553e+001
4.532376e+002,3.497063e+001
4.542019e+002,3.311455e+001
4.551661e+002,3.140590e+001
4.561303e+002,2.716776e+001
4.570946e+002,2.137788e+001
4.580588e+002,1.609640e+001
4.590230e+002,1.358330e+001
4.599873e+002,1.416776e+001
4.609515e+002,1.456650e+001
4.619157e+002,1.452017e+001
4.628800e+002,1.464663e+001
4.638442e+002,1.562002e+001
4.648084e+002,1.785801e+001
4.657727e+002,1.968079e+001
4.667369e+002,2.145303e+001
4.677011e+002,2.272529e+001
4.686654e+002,2.314482e+001
4.696296e+002,2.256315e+001
4.705938e+002,2.127666e+001
4.715581e+002,1.919182e+001
4.725223e+002,1.676792e+001
4.734865e+002,1.402598e+001
4.744508e+002,1.115474e+001
4.754150e+002,8.603699e+000
4.763792e+002,7.746484e+000
4.773435e+002,8.112097e+000
4.783077e+002,8.864172e+000
4.792719e+002,9.855164e+000
4.802362e+002,1.096329e+001
4.812004e+002,1.136182e+001
4.821646e+002,1.030195e+001
4.831289e+002,9.290064e+000
4.840931e+002,7.879382e+000
4.850573e+002,6.485950e+000
4.860216e+002,6.456885e+000
4.869858e+002,1.038590e+001
4.879500e+002,1.327416e+001
4.889143e+002,1.329376e+001
4.898785e+002,1.124548e+001
4.908427e+002,8.232458e+000
4.918070e+002,4.574780e+000
4.927712e+002,1.678766e+000
4.937354e+002,2.023267e+000
4.946997e+002,4.622119e+000
4.956639e+002,7.017774e+000
4.966281e+002,6.691077e+000
4.975924e+002,3.313660e+000
4.985566e+002,1.248077e+000
4.995208e+002,2.706238e-001
5.004851e+002,3.752564e-001
5.014493e+002,2.079962e+000
5.024135e+002,6.039246e+000
5.033778e+002,8.442065e+000
5.043420e+002,7.970447e+000
5.053063e+002,7.204602e+000
5.062705e+002,7.651196e+000
5.072347e+002,9.374109e+000
5.081990e+002,1.025292e+001
5.091632e+002,6.060925e+000
5.101274e+002,1.556287e+000
5.110917e+002,1.553711e-001
5.120559e+002,2.201013e+000
5.130201e+002,5.690906e+000
5.139844e+002,6.731506e+000
5.149486e+002,5.350928e+000
5.159128e+002,3.741534e+000
5.168771e+002,2.028253e+000
5.178413e+002,4.705261e-001
5.188055e+002,-3.424805e-001
5.197698e+002,4.048401e-001
5.207340e+002,6.530029e-001
5.216982e+002,9.194946e-002
5.226625e+002,-8.417847e-001
5.236267e+002,-1.849970e+000
5.245909e+002,-3.175153e+000
5.255552e+002,-3.537616e+000
5.265194e+002,-1.415478e+000
5.274836e+002,1.204694e+000
5.284479e+002,2.574176e+000
5.294121e+002,1.751544e+000
5.303763e+002,-3.745728e-001
5.313406e+002,-2.664911e+000
5.323048e+002,-4.793988e+000
5.332690e+002,-5.536603e+000
5.342333e+002,-4.210639e+000
5.351975e+002,-1.162982e+000
5.361617e+002,7.130005e-001
5.371260e+002,3.879639e-001
5.380902e+002,6.039673e-001
5.390544e+002,2.621405e+000
5.400187e+002,5.560126e+000
5.409829e+002,6.554791e+000
5.419471e+002,3.034662e+000
5.429114e+002,-2.661133e-003
5.438756e+002,-1.064960e+000
5.448398e+002,-8.449463e-001
5.458041e+002,-4.589416e-001
5.467683e+002,-6.057495e-001
5.477325e+002,-1.116516e+000
5.486968e+002,-1.844446e+000
5.496610e+002,-2.667633e+000
5.506252e+002,-3.340869e+000
5.515895e+002,-3.662799e+000
5.525537e+002,-3.644012e+000
5.535179e+002,-3.571735e+000
5.544822e+002,-3.430573e+000
5.554464e+002,-3.154199e+000
5.564106e+002,-2.610809e+000
5.573749e+002,-1.836273e+000
5.583391e+002,-1.513531e+000
5.593033e+002,-1.904053e+000
5.602676e+002,-2.462360e+000
5.612318e+002,-3.580304e+000
5.621960e+002,-4.833167e+000
5.631603e+002,-4.996167e+000
5.641245e+002,-2.012799e+000
5.650887e+002,1.012915e+000
5.660530e+002,1.016919e+000
5.670172e+002,-1.104742e+000
5.679814e+002,-3.104266e+000
5.689457e+002,-2.528888e+000
5.699099e+002,3.969299e-001
5.708741e+002,1.920862e+000
5.718384e+002,2.174103e+000
5.728026e+002,1.425800e+000
5.737668e+002,-7.165893e-001
5.747311e+002,-5.003394e+000
5.756953e+002,-6.870142e+000
5.766595e+002,-4.361975e+000
5.776238e+002,-1.859161e+000
5.785880e+002,-1.005005e+000
5.795522e+002,-1.851526e+000
5.805165e+002,-3.174335e+000
5.814807e+002,-4.869214e+000
5.824449e+002,-6.103088e+000
5.834092e+002,-6.220141e+000
5.843734e+002,-5.461505e+000
5.853376e+002,-4.506012e+000
5.863019e+002,-4.143207e+000
5.872661e+002,-4.227038e+000
5.882303e+002,-3.876672e+000
5.891946e+002,-3.076196e+000
5.901588e+002,-2.039716e+000
5.911230e+002,-9.217407e-001
5.920873e+002,4.210205e-001
5.930515e+002,1.112433e+000
5.940157e+002,1.407373e+000
5.949800e+002,1.116480e+000
5.959442e+002,-3.553284e-001
5.969084e+002,-2.937323e+000
5.978727e+002,-4.771228e+000
5.988369e+002,-3.941303e+000
5.998011e+002,-2.766071e+000
6.007654e+002,-1.727759e+000
6.017296e+002,-1.169470e+000
6.026938e+002,-1.596008e+000
6.036581e+002,-4.024085e+000
6.046223e+002,-7.303778e+000
6.055865e+002,-7.789111e+000
6.065508e+002,-5.640320e+000
6.075150e+002,-3.240137e+000
6.084792e+002,-3.295300e+000
6.094435e+002,-6.676489e+000
6.104077e+002,-7.880090e+000
6.113719e+002,-5.453839e+000
6.123362e+002,-3.168103e+000
6.133004e+002,-3.324756e+000
6.142646e+002,-5.952576e+000
6.152289e+002,-7.868945e+000
6.161931e+002,-7.207776e+000
6.171573e+002,-6.077753e+000
6.181216e+002,-4.825000e+000
6.190858e+002,-3.644342e+000
6.200500e+002,-2.707312e+000
6.210143e+002,-2.271063e+000
6.219785e+002,-2.207172e+000
6.229427e+002,-2.228863e+000
6.239070e+002,-2.281659e+000
6.248712e+002,-2.027521e+000
6.258354e+002,-1.059839e+000
6.267997e+002,8.610840e-001
6.277639e+002,1.763696e+000
6.287281e+002,1.517029e+000
6.296924e+002,6.198853e-001
6.306566e+002,-1.382825e+000
6.316208e+002,-4.276471e+000
6.325851e+002,-5.732892e+000
6.335493e+002,-3.377722e+000
6.345135e+002,-8.693298e-001
6.354778e+002,1.099884e+000
6.364420e+002,2.350488e+000
6.374063e+002,2.867151e+000
6.383705e+002,2.529181e+000
6.393347e+002,1.619959e+000
6.402990e+002,5.203064e-001
6.412632e+002,-5.740722e-001
6.422274e+002,-1.213995e+000
6.431917e+002,-1.066858e+000
6.441559e+002,-1.906433e-001
6.451201e+002,4.772827e-001
6.460844e+002,9.782593e-001
6.470486e+002,1.265002e+000
6.480128e+002,1.425061e+000
6.489771e+002,1.400720e+000
6.499413e+002,8.565003e-001
6.509055e+002,-1.069794e+000
6.518698e+002,-2.507080e+000
6.528340e+002,-2.615381e+000
6.537982e+002,-2.066345e+000
6.547625e+002,-1.878778e+000
6.557267e+002,-2.736762e+000
6.566909e+002,-3.627905e+000
6.576552e+002,-2.925739e+000
6.586194e+002,-1.327008e+000
6.595836e+002,4.125427e-001
6.605479e+002,1.913898e+000
6.615121e+002,3.078845e+000
6.624763e+002,3.250098e+000
6.634406e+002,1.721905e+000
6.644048e+002,9.951599e-001
6.653690e+002,1.998541e+000
6.663333e+002,3.708710e+000
6.672975e+002,4.129480e+000
6.682617e+002,2.245306e+000
6.692260e+002,1.160059e+000
6.701902e+002,2.504755e+000
6.711544e+002,4.158368e+000
6.721187e+002,3.995319e+000
6.730829e+002,1.371088e+000
6.740471e+002,-1.546942e+000
6.750114e+002,-1.214905e+000
6.759756e+002,4.397461e-001
6.769398e+002,1.638574e+000
6.779041e+002,1.955981e+000
6.788683e+002,1.781061e+000
6.798325e+002,1.828784e+000
6.807968e+002,2.242883e+000
6.817610e+002,2.255402e+000
6.827252e+002,1.470795e+000
6.836895e+002,6.309143e-001
6.846537e+002,4.035034e-001
6.856179e+002,8.699096e-001
6.865822e+002,1.371252e+000
6.875464e+002,2.250250e+000
6.885106e+002,2.687469e+000
6.894749e+002,1.829858e+000
6.904391e+002,6.870117e-002
6.914034e+002,-1.142712e+000
6.923676e+002,-1.530762e-002
6.933318e+002,1.840082e+000
6.942961e+002,2.014313e+000
6.952603e+002,8.037659e-001
6.962245e+002,-6.799133e-001
6.971888e+002,-1.440552e+000
6.981530e+002,-1.492072e+000
6.991172e+002,-1.737921e+000
7.000815e+002,-2.650098e+000
7.010457e+002,-2.982281e+000
7.020099e+002,-1.841132e+000
7.029742e+002,4.462891e-001
7.039384e+002,2.183173e+000
7.049026e+002,2.944904e+000
7.058669e+002,3.047601e+000
7.068311e+002,2.050910e+000
7.077953e+002,6.875733e-001
7.087596e+002,-6.024780e-002
7.097238e+002,3.799988e-001
7.106880e+002,1.178229e+000
7.116523e+002,5.412415e-001
7.126165e+002,-6.649536e-001
7.135807e+002,-9.363953e-001
7.145450e+002,2.971924e-001
7.155092e+002,2.382519e+000
7.164734e+002,3.482568e+000
7.174377e+002,2.979907e+000
7.184019e+002,2.645422e+000
7.193661e+002,2.546912e+000
7.203304e+002,2.487207e+000
7.212946e+002,2.352728e+000
7.222589e+002,2.223193e+000
7.232231e+002,1.784473e+000
7.241873e+002,1.360107e-001
7.251516e+002,-1.149377e+000
7.261158e+002,-9.032715e-001
7.270800e+002,6.543884e-001
7.280443e+002,2.140479e+000
7.290085e+002,1.949261e+000
7.299727e+002,1.049170e+000
7.309370e+002,1.745660e+000
7.319012e+002,3.794995e+000
7.328654e+002,5.569140e+000
7.338297e+002,5.563904e+000
7.347939e+002,3.688531e+000
7.357581e+002,1.792596e+000
7.367224e+002,-9.763916e-001
7.376866e+002,-2.743817e+000
7.386508e+002,-2.526025e+000
7.396151e+002,-9.252197e-001
7.405793e+002,4.255066e-001
7.415435e+002,1.123596e+000
7.425078e+002,1.510870e+000
7.434720e+002,1.705981e+000
7.444362e+002,1.672968e+000
7.454005e+002,1.253369e+000
7.463647e+002,4.228210e-001
7.473289e+002,-4.528870e-001
7.482932e+002,-4.737976e-001
7.492574e+002,6.033935e-002
7.502216e+002,3.081787e-001
7.511859e+002,2.906494e-002
7.521501e+002,-5.601257e-001
7.531143e+002,-9.861633e-001
7.540786e+002,-9.462646e-001
7.550428e+002,-1.395447e+000
7.560070e+002,-3.255517e+000
7.569713e+002,-4.663660e+000
7.579355e+002,-4.069769e+000
7.588997e+002,-1.584637e+000
7.598640e+002,3.767334e-001
7.608282e+002,-3.152588e-001
7.617924e+002,-1.009607e+000
7.627567e+002,-3.105530e-001
7.637209e+002,1.475610e+000
7.646851e+002,3.493335e+000
7.656494e+002,5.038733e+000
7.666136e+002,6.407153e+000
7.675778e+002,9.682013e+000
7.685421e+002,1.455760e+001
7.695063e+002,1.699688e+001
7.704705e+002,1.444912e+001
7.714348e+002,8.319977e+000
7.723990e+002,4.309314e+000
7.733632e+002,4.294751e+000
7.743275e+002,3.617554e+000
7.752917e+002,1.258899e+000
7.762559e+002,-1.339630e+000
7.772202e+002,-2.797089e+000
7.781844e+002,-2.771661e+000
7.791486e+002,-2.495282e+000
7.801129e+002,-2.947259e+000
7.810771e+002,-3.678375e+000
7.820413e+002,-4.584247e+000
7.830056e+002,-5.497479e+000
7.839698e+002,-6.160437e+000
7.849340e+002,-6.297394e+000
7.858983e+002,-5.880377e+000
7.868625e+002,-4.848151e+000
7.878267e+002,-2.986346e+000
7.887910e+002,-1.421417e+000
7.897552e+002,-9.135254e-001
7.907194e+002,-1.302801e+000
7.916837e+002,-1.386243e+000
7.926479e+002,-4.996765e-001
7.936121e+002,-1.526978e-001
7.945764e+002,-1.096362e+000
7.955406e+002,-2.494952e+000
7.965048e+002,-3.246057e+000
7.974691e+002,-2.873633e+000
7.984333e+002,-2.396460e+000
7.993975e+002,-4.070514e+000
8.003618e+002,-6.173205e+000
8.013260e+002,-6.460504e+000
8.022902e+002,-4.648828e+000
8.032545e+002,-2.157819e+000
8.042187e+002,-1.092627e+000
8.051829e+002,-1.714612e+000
8.061472e+002,-2.443170e+000
8.071114e+002,-3.631122e+000
8.080756e+002,-4.587293e+000
8.090399e+002,-5.109088e+000
8.100041e+002,-5.127801e+000
8.109683e+002,-4.229444e+000
8.119326e+002,-1.007233e+000
8.128968e+002,1.374109e+000
8.138610e+002,9.282837e-001
8.148253e+002,-6.128418e-001
8.157895e+002,-9.991882e-001
8.167537e+002,8.495666e-001
8.177180e+002,3.663782e+000
8.186822e+002,5.482477e+000
8.196464e+002,6.420197e+000
8.206107e+002,6.124646e+000
8.215749e+002,4.342920e+000
8.225391e+002,2.462537e+000
8.235034e+002,2.980536e+000
8.244676e+002,7.413465e+000
8.254318e+002,9.339478e+000
8.263961e+002,7.741669e+000
8.273603e+002,5.728620e+000
8.283245e+002,4.430377e+000
8.292888e+002,3.865765e+000
8.302530e+002,3.679053e+000
8.312172e+002,3.740289e+000
8.321815e+002,4.164655e+000
8.331457e+002,5.989050e+000
8.341099e+002,7.858441e+000
8.350742e+002,7.452362e+000
8.360384e+002,3.863696e+000
8.370026e+002,-9.516419e-001
8.379669e+002,-2.282513e+000
8.389311e+002,6.469727e-002
8.398953e+002,2.068445e+000
8.408596e+002,3.661194e+000
8.418238e+002,4.397632e+000
8.427880e+002,3.341956e+000
8.437523e+002,-6.156006e-002
8.447165e+002,-2.290131e+000
8.456807e+002,-2.109406e+000
8.466450e+002,-1.607025e+000
8.476092e+002,-1.343713e+000
8.485734e+002,-1.380926e+000
8.495377e+002,-1.646454e+000
8.505019e+002,-2.152417e+000
8.514661e+002,-2.563013e+000
8.524304e+002,-2.220679e+000
8.533946e+002,-1.562213e+000
8.543588e+002,-1.446674e+000
8.553231e+002,-2.164996e+000
8.562873e+002,-3.035663e+000
8.572515e+002,-2.485077e+000
8.582158e+002,4.892883e-001
8.591800e+002,1.564417e+000
8.601442e+002,-6.368347e-001
8.611085e+002,-3.248242e+000
8.620727e+002,-4.364356e+000
8.630369e+002,-3.996320e+000
8.640012e+002,-3.499097e+000
8.649654e+002,-3.371539e+000
8.659296e+002,-3.174060e+000
8.668939e+002,-2.432751e+000
8.678581e+002,-1.601331e+000
8.688223e+002,-1.387366e+000
8.697866e+002,-2.116675e+000
8.707508e+002,-3.274420e+000
8.717150e+002,-3.924982e+000
8.726793e+002,-4.081061e+000
8.736435e+002,-3.496906e+000
8.746077e+002,-1.870599e+000
8.755720e+002,-2.728027e-001
8.765362e+002,-3.208008e-001
8.775004e+002,-2.593231e+000
8.784647e+002,-3.958130e+000
8.794289e+002,-4.108704e+000
8.803931e+002,-3.765253e+000
8.813574e+002,-2.642780e+000
8.823216e+002,-1.282764e+000
8.832858e+002,-6.857788e-001
8.842501e+002,-1.400372e+000
8.852143e+002,-2.448498e+000
8.861785e+002,-2.900733e+000
8.871428e+002,-3.125031e+000
8.881070e+002,-3.551795e+000
8.890712e+002,-4.275134e+000
8.900355e+002,-5.038721e+000
8.909997e+002,-5.411304e+000
8.919639e+002,-5.289227e+000
8.929282e+002,-5.410321e+000
8.938924e+002,-6.265936e+000
8.948566e+002,-6.720508e+000
8.958209e+002,-5.715442e+000
8.967851e+002,-3.721863e+000
8.977493e+002,-2.868323e+000
8.987136e+002,-4.393775e+000
8.996778e+002,-5.884247e+000
9.006420e+002,-6.487775e+000
9.016063e+002,-6.562952e+000
9.025705e+002,-6.102600e+000
9.035347e+002,-5.314044e+000
9.044990e+002,-5.022192e+000
9.054632e+002,-6.668109e+000
9.064274e+002,-9.612183e+000
9.073917e+002,-1.095361e+001
9.083559e+002,-1.058138e+001
9.093201e+002,-9.383795e+000
9.102844e+002,-7.756934e+000
9.112486e+002,-5.777374e+000
9.122128e+002,-4.730512e+000
9.131771e+002,-5.797516e+000
9.141413e+002,-6.294507e+000
9.151055e+002,-5.474439e+000
9.160698e+002,-4.277625e+000
9.170340e+002,-3.681335e+000
9.179982e+002,-3.918530e+000
9.189625e+002,-4.350677e+000
9.199267e+002,-4.549609e+000
9.208909e+002,-4.560065e+000
9.218552e+002,-4.276471e+000
9.228194e+002,-3.817102e+000
9.237836e+002,-3.584845e+000
9.247479e+002,-3.909430e+000
9.257121e+002,-4.592993e+000
9.266763e+002,-4.411817e+000
9.276406e+002,-2.696039e+000
9.286048e+002,-1.666138e+000
9.295690e+002,-1.724640e+000
9.305333e+002,-2.426727e+000
9.314975e+002,-3.566217e+000
9.324617e+002,-5.240637e+000
9.334260e+002,-6.193677e+000
9.343902e+002,-5.157831e+000
9.353545e+002,-3.883624e+000
9.363187e+002,-2.930377e+000
9.372830e+002,-2.339893e+000
9.382472e+002,-2.011713e+000
9.392114e+002,-1.856561e+000
9.401757e+002,-1.799274e+000
9.411399e+002,-1.751263e+000
9.421041e+002,-1.772443e+000
9.430684e+002,-2.117285e+000
9.440326e+002,-3.110297e+000
9.449968e+002,-3.976556e+000
9.459611e+002,-3.392340e+000
9.469253e+002,-9.000244e-001
9.478895e+002,5.203308e-001
9.488538e+002,-4.183655e-001
9.498180e+002,-1.297955e+000
9.507822e+002,-1.572388e+000
9.517465e+002,-1.388763e+000
9.527107e+002,-9.511963e-001
9.536749e+002,-3.092651e-001
9.546392e+002,3.203430e-001
9.556034e+002,3.609070e-001
9.565676e+002,2.910339e-001
9.575319e+002,9.483215e-001
9.584961e+002,2.378381e+000
9.594603e+002,3.902948e+000
9.604246e+002,4.805878e+000
9.613888e+002,5.056317e+000
9.623530e+002,4.786652e+000
9.633173e+002,2.861169e+000
9.642815e+002,1.952978e+000
9.652457e+002,2.921442e+000
9.662100e+002,4.905402e+000
9.671742e+002,6.439099e+000
9.681384e+002,7.111969e+000
9.691027e+002,9.226300e+000
9.700669e+002,1.050563e+001
9.710311e+002,1.742704e+001
9.719954e+002,3.965570e+001
9.729596e+002,7.120614e+001
9.739238e+002,1.002457e+002
9.748881e+002,1.184171e+002
9.758523e+002,1.245922e+002
9.768165e+002,1.124085e+002
9.777808e+002,7.699202e+001
9.787450e+002,4.928988e+001
9.797092e+002,3.467888e+001
9.806735e+002,2.693487e+001
9.816377e+002,2.087631e+001
9.826019e+002,1.653010e+001
9.835662e+002,1.368029e+001
9.845304e+002,1.363038e+001
9.854946e+002,1.364994e+001
9.864589e+002,1.232628e+001
9.874231e+002,1.076927e+001
9.883873e+002,1.053434e+001
9.893516e+002,1.207900e+001
9.903158e+002,1.424020e+001
9.912800e+002,1.544476e+001
9.922443e+002,1.609217e+001
9.932085e+002,1.729617e+001
9.941727e+002,1.902457e+001
9.951370e+002,2.225712e+001
9.961012e+002,2.724842e+001
9.970654e+002,3.400828e+001
9.980297e+002,4.264390e+001
9.989939e+002,4.104337e+001
9.999581e+002,6.444026e+001
1.000922e+003,1.176756e+002
1.001887e+003,1.933907e+002
1.002851e+003,3.181740e+002
1.003815e+003,4.699442e+002
1.004779e+003,5.579529e+002
1.005744e+003,5.039653e+002
1.006708e+003,3.762703e+002
1.007672e+003,2.698411e+002
1.008636e+003,1.834411e+002
1.009600e+003,1.203714e+002
1.010565e+003,8.244806e+001
1.011529e+003,6.268031e+001
1.012493e+003,4.833330e+001
1.013457e+003,4.091799e+001
1.014422e+003,3.489902e+001
1.015386e+003,3.020558e+001
1.016350e+003,2.661404e+001
1.017314e+003,2.434443e+001
1.018279e+003,2.291527e+001
1.019243e+003,2.146009e+001
1.020207e+003,1.964038e+001
1.021171e+003,1.821849e+001
1.022135e+003,1.852286e+001
1.023100e+003,1.914511e+001
1.024064e+003,1.850651e+001
1.025028e+003,1.674451e+001
1.025992e+003,1.540530e+001
1.026957e+003,1.594415e+001
1.027921e+003,1.793181e+001
1.028885e+003,1.814949e+001
1.029849e+003,1.549131e+001
1.030814e+003,1.360152e+001
1.031778e+003,1.280325e+001
1.032742e+003,1.273644e+001
1.033706e+003,1.350139e+001
1.034671e+003,1.508840e+001
1.035635e+003,1.605946e+001
1.036599e+003,1.545281e+001
1.037563e+003,1.457684e+001
1.038527e+003,1.375508e+001
1.039492e+003,1.323944e+001
1.040456e+003,1.339833e+001
1.041420e+003,1.431696e+001
1.042384e+003,1.571395e+001
1.043349e+003,1.727386e+001
1.044313e+003,1.890401e+001
1.045277e+003,1.916273e+001
1.046241e+003,1.768552e+001
1.047206e+003,1.608438e+001
1.048170e+003,1.473779e+001
1.049134e+003,1.388635e+001
1.050098e+003,1.447712e+001
1.051063e+003,1.745873e+001
1.052027e+003,1.925254e+001
1.052991e+003,1.716341e+001
1.053955e+003,1.492457e+001
1.054919e+003,1.470691e+001
1.055884e+003,1.607699e+001
1.056848e+003,1.759678e+001
1.057812e+003,1.843483e+001
1.058776e+003,1.899656e+001
1.059741e+003,2.014048e+001
1.060705e+003,2.163763e+001
1.061669e+003,2.210825e+001
1.062633e+003,2.109814e+001
1.063598e+003,1.969250e+001
1.064562e+003,1.895941e+001
1.065526e+003,1.890723e+001
1.066490e+003,1.863298e+001
1.067454e+003,1.739490e+001
1.068419e+003,1.706190e+001
1.069383e+003,1.846025e+001
1.070347e+003,2.033496e+001
1.071311e+003,2.196685e+001
1.072276e+003,2.313842e+001
1.073240e+003,2.378732e+001
1.074204e+003,2.381079e+001
1.075168e+003,2.340463e+001
1.076133e+003,2.284955e+001
1.077097e+003,2.222230e+001
1.078061e+003,2.192217e+001
1.079025e+003,2.214410e+001
1.079990e+003,2.248857e+001
1.080954e+003,2.234143e+001
1.081918e+003,2.161250e+001
1.082882e+003,2.104865e+001
1.083846e+003,2.011472e+001
1.084811e+003,2.002169e+001
1.085775e+003,2.196572e+001
1.086739e+003,2.429262e+001
1.087703e+003,2.507233e+001
1.088668e+003,2.409110e+001
1.089632e+003,2.315696e+001
1.090596e+003,2.382891e+001
1.091560e+003,2.533120e+001
1.092525e+003,2.610571e+001
1.093489e+003,2.626501e+001
1.094453e+003,2.639192e+001
1.095417e+003,2.678069e+001
1.096381e+003,2.729446e+001
1.097346e+003,2.760953e+001
1.098310e+003,2.765574e+001
1.099274e+003,2.774282e+001
1.100238e+003,2.788063e+001
1.101203e+003,2.813751e+001
1.102167e+003,2.887980e+001
1.103131e+003,2.952514e+001
1.104095e+003,2.892994e+001
1.105060e+003,2.688438e+001
1.106024e+003,2.529322e+001
1.106988e+003,2.620213e+001
1.107952e+003,2.845135e+001
1.108917e+003,3.028551e+001
1.109881e+003,3.160363e+001
1.110845e+003,3.213323e+001
1.111809e+003,3.160706e+001
1.112773e+003,3.062115e+001
1.113738e+003,3.084645e+001
1.114702e+003,3.335063e+001
1.115666e+003,3.418154e+001
1.116630e+003,3.169119e+001
1.117595e+003,2.968080e+001
1.118559e+003,2.979676e+001
1.119523e+003,3.105606e+001
1.120487e+003,3.180167e+001
1.121452e+003,3.160003e+001
1.122416e+003,3.166324e+001
1.123380e+003,3.349612e+001
1.124344e+003,3.564241e+001
1.125308e+003,3.604429e+001
1.126273e+003,3.506753e+001
1.127237e+003,3.404457e+001
1.128201e+003,3.365396e+001
1.129165e+003,3.383623e+001
1.130130e+003,3.453735e+001
1.131094e+003,3.604131e+001
1.132058e+003,3.690134e+001
1.133022e+003,3.722603e+001
1.133987e+003,3.698197e+001
1.134951e+003,3.573853e+001
1.135915e+003,3.421276e+001
1.136879e+003,3.333835e+001
1.137844e+003,3.334412e+001
1.138808e+003,3.377682e+001
1.139772e+003,3.424515e+001
1.140736e+003,3.481153e+001
1.141700e+003,3.616862e+001
1.142665e+003,3.789213e+001
1.143629e+003,3.830188e+001
1.144593e+003,3.650813e+001
1.145557e+003,3.393743e+001
1.146522e+003,3.332977e+001
1.147486e+003,3.503900e+001
1.148450e+003,3.674524e+001
1.149414e+003,3.925095e+001
1.150379e+003,4.100082e+001
1.151343e+003,4.135566e+001
1.152307e+003,4.092223e+001
1.153271e+003,4.013668e+001
1.154235e+003,3.912245e+001
1.155200e+003,3.828725e+001
1.156164e+003,3.793276e+001
1.157128e+003,3.822596e+001
1.158092e+003,3.967873e+001
1.159057e+003,4.171447e+001
1.160021e+003,4.270258e+001
1.160985e+003,4.197622e+001
1.161949e+003,4.071929e+001
1.162914e+003,4.079415e+001
1.163878e+003,4.242413e+001
1.164842e+003,4.372732e+001
1.165806e+003,4.458516e+001
1.166771e+003,4.511160e+001
1.167735e+003,4.486322e+001
1.168699e+003,4.464774e+001
1.169663e+003,4.541076e+001
1.170627e+003,4.700930e+001
1.171592e+003,4.833435e+001
1.172556e+003,4.877103e+001
1.173520e+003,4.857753e+001
1.174484e+003,4.759988e+001
1.175449e+003,4.633218e+001
1.176413e+003,4.581510e+001
1.177377e+003,4.627262e+001
1.178341e+003,4.731969e+001
1.179306e+003,4.878210e+001
1.180270e+003,5.061993e+001
1.181234e+003,5.179391e+001
1.182198e+003,5.168150e+001
1.183162e+003,5.183750e+001
1.184127e+003,5.282566e+001
1.185091e+003,5.365685e+001
1.186055e+003,5.371697e+001
1.187019e+003,5.323936e+001
1.187984e+003,5.270313e+001
1.188948e+003,5.227181e+001
1.189912e+003,5.200108e+001
1.190876e+003,5.196698e+001
1.191841e+003,5.225451e+001
1.192805e+003,5.333459e+001
1.193769e+003,5.522252e+001
1.194733e+003,5.623304e+001
1.195698e+003,5.490189e+001
1.196662e+003,5.228301e+001
1.197626e+003,5.122752e+001
1.198590e+003,5.211201e+001
1.199554e+003,5.309005e+001
1.200519e+003,5.432195e+001
1.201483e+003,5.535044e+001
1.202447e+003,5.563961e+001
1.203411e+003,5.583390e+001
1.204376e+003,5.714626e+001
1.205340e+003,5.945225e+001
1.206304e+003,6.065585e+001
1.207268e+003,5.870945e+001
1.208233e+003,5.515515e+001
1.209197e+003,5.411864e+001
1.210161e+003,5.520184e+001
1.211125e+003,5.706628e+001
1.212089e+003,5.980915e+001
1.213054e+003,6.217474e+001
1.214018e+003,6.262620e+001
1.214982e+003,6.145315e+001
1.215946e+003,6.074645e+001
1.216911e+003,6.049674e+001
1.217875e+003,6.094392e+001
1.218839e+003,6.267610e+001
1.219803e+003,6.435752e+001
1.220768e+003,6.484853e+001
1.221732e+003,6.461941e+001
1.222696e+003,6.521619e+001
1.223660e+003,6.739317e+001
1.224625e+003,6.955132e+001
1.225589e+003,6.846574e+001
1.226553e+003,6.402718e+001
1.227517e+003,6.287318e+001
1.228481e+003,6.633712e+001
1.229446e+003,6.974988e+001
1.230410e+003,7.095027e+001
1.231374e+003,7.083785e+001
1.232338e+003,7.096785e+001
1.233303e+003,7.153833e+001
1.234267e+003,7.164939e+001
1.235231e+003,7.048795e+001
1.236195e+003,6.928825e+001
1.237160e+003,6.868164e+001
1.238124e+003,6.836365e+001
1.239088e+003,6.784038e+001
1.240052e+003,6.718082e+001
1.241016e+003,6.721210e+001
1.241981e+003,6.874667e+001
1.242945e+003,7.121297e+001
1.243909e+003,7.198845e+001
1.244873e+003,7.001967e+001
1.245838e+003,6.903220e+001
1.246802e+003,6.947144e+001
1.247766e+003,7.033665e+001
1.248730e+003,7.145526e+001
1.249695e+003,7.248598e+001
1.250659e+003,7.254861e+001
1.251623e+003,7.135188e+001
1.252587e+003,7.042346e+001
1.253552e+003,7.076979e+001
1.254516e+003,7.185962e+001
1.255480e+003,7.380479e+001
1.256444e+003,7.596138e+001
1.257408e+003,7.659833e+001
1.258373e+003,7.513204e+001
1.259337e+003,7.339107e+001
1.260301e+003,7.413052e+001
1.261265e+003,7.743851e+001
1.262230e+003,7.883357e+001
1.263194e+003,7.531122e+001
1.264158e+003,7.375429e+001
1.265122e+003,7.650793e+001
1.266087e+003,7.951299e+001
1.267051e+003,7.971466e+001
1.268015e+003,7.802315e+001
1.268979e+003,7.731413e+001
1.269943e+003,7.873885e+001
1.270908e+003,8.056580e+001
1.271872e+003,8.088933e+001
1.272836e+003,8.033983e+001
1.273800e+003,8.044938e+001
1.274765e+003,8.121568e+001
1.275729e+003,8.219324e+001
1.276693e+003,8.324978e+001
1.277657e+003,8.425552e+001
1.278622e+003,8.479215e+001
1.279586e+003,8.473861e+001
1.280550e+003,8.562120e+001
1.281514e+003,8.959396e+001
1.282479e+003,9.161251e+001
1.283443e+003,8.860323e+001
1.284407e+003,8.480922e+001
1.285371e+003,8.365544e+001
1.286335e+003,8.455569e+001
1.287300e+003,8.471743e+001
1.288264e+003,8.278861e+001
1.289228e+003,8.071659e+001
1.290192e+003,8.161228e+001
1.291157e+003,8.532375e+001
1.292121e+003,8.779582e+001
1.293085e+003,8.870506e+001
1.294049e+003,8.907729e+001
1.295014e+003,8.938228e+001
1.295978e+003,8.948788e+001
1.296942e+003,8.871887e+001
1.297906e+003,8.732489e+001
1.298870e+003,8.762468e+001
1.299835e+003,9.113617e+001
1.300799e+003,9.410118e+001
1.301763e+003,9.327049e+001
1.302727e+003,9.138261e+001
1.303692e+003,9.091606e+001
1.304656e+003,9.199221e+001
1.305620e+003,9.367800e+001
1.306584e+003,9.534467e+001
1.307549e+003,9.668192e+001
1.308513e+003,9.710431e+001
1.309477e+003,9.639095e+001
1.310441e+003,9.588535e+001
1.311406e+003,9.600315e+001
1.312370e+003,9.594358e+001
1.313334e+003,9.526920e+001
1.314298e+003,9.468854e+001
1.315263e+003,9.493748e+001
1.316227e+003,9.583681e+001
1.317191e+003,9.663473e+001
1.318155e+003,9.700222e+001
1.319120e+003,9.715002e+001
1.320084e+003,9.713576e+001
1.321048e+003,9.712858e+001
1.322012e+003,9.782555e+001
1.322976e+003,9.911214e+001
1.323941e+003,9.953915e+001
1.324905e+003,9.820499e+001
1.325869e+003,9.646407e+001
1.326833e+003,9.637927e+001
1.327798e+003,9.789513e+001
1.328762e+003,9.886666e+001
1.329726e+003,9.891151e+001
1.330690e+003,9.865474e+001
1.331655e+003,9.769655e+001
1.332619e+003,9.713829e+001
1.333583e+003,9.780985e+001
1.334547e+003,9.943880e+001
1.335511e+003,1.017640e+002
1.336476e+003,1.044369e+002
1.337440e+003,1.064221e+002
1.338404e+003,1.064077e+002
1.339368e+003,1.046596e+002
1.340333e+003,1.028273e+002
1.341297e+003,1.001653e+002
1.342261e+003,9.931508e+001
1.343225e+003,1.019235e+002
1.344190e+003,1.050814e+002
1.345154e+003,1.072256e+002
1.346118e+003,1.083227e+002
1.347082e+003,1.080700e+002
1.348047e+003,1.062593e+002
1.349011e+003,1.050152e+002
1.349975e+003,1.063085e+002
1.350939e+003,1.080470e+002
1.351903e+003,1.074084e+002
1.352868e+003,1.055345e+002
1.353832e+003,1.050127e+002
1.354796e+003,1.064884e+002
1.355760e+003,1.084296e+002
1.356725e+003,1.094647e+002
1.357689e+003,1.097251e+002
1.358653e+003,1.097137e+002
1.359617e+003,1.093584e+002
1.360582e+003,1.089242e+002
1.361546e+003,1.078351e+002
1.362510e+003,1.073096e+002
1.363474e+003,1.081792e+002
1.364438e+003,1.097688e+002
1.365403e+003,1.114667e+002
1.366367e+003,1.128827e+002
1.367331e+003,1.135500e+002
1.368295e+003,1.131869e+002
1.369260e+003,1.125414e+002
1.370224e+003,1.131534e+002
1.371188e+003,1.151481e+002
1.372152e+003,1.159256e+002
1.373117e+003,1.147321e+002
1.374081e+003,1.137462e+002
1.375045e+003,1.140860e+002
1.376009e+003,1.147806e+002
1.376974e+003,1.143522e+002
1.377938e+003,1.132252e+002
1.378902e+003,1.140028e+002
1.379866e+003,1.180262e+002
1.380830e+003,1.213220e+002
1.381795e+003,1.195376e+002
1.382759e+003,1.170032e+002
1.383723e+003,1.179919e+002
1.384687e+003,1.217012e+002
1.385652e+003,1.255098e+002
1.386616e+003,1.283412e+002
1.387580e+003,1.298905e+002
1.388544e+003,1.294705e+002
1.389509e+003,1.272858e+002
1.390473e+003,1.261143e+002
1.391437e+003,1.269488e+002
1.392401e+003,1.269999e+002
1.393365e+003,1.249885e+002
1.394330e+003,1.232441e+002
1.395294e+003,1.226500e+002
1.396258e+003,1.227600e+002
1.397222e+003,1.229411e+002
1.398187e+003,1.233790e+002
1.399151e+003,1.252700e+002
1.400115e+003,1.293723e+002
1.401079e+003,1.336739e+002
1.402044e+003,1.344763e+002
1.403008e+003,1.316697e+002
1.403972e+003,1.286152e+002
1.404936e+003,1.246271e+002
1.405901e+003,1.223262e+002
1.406865e+003,1.234866e+002
1.407829e+003,1.258362e+002
1.408793e+003,1.268436e+002
1.409757e+003,1.269497e+002
1.410722e+003,1.284669e+002
1.411686e+003,1.321156e+002
1.412650e+003,1.357635e+002
1.413614e+003,1.383591e+002
1.414579e+003,1.400753e+002
1.415543e+003,1.410444e+002
1.416507e+003,1.413827e+002
1.417471e+003,1.410750e+002
1.418436e+003,1.400430e+002
1.419400e+003,1.387238e+002
1.420364e+003,1.375337e+002
1.421328e+003,1.366877e+002
1.422292e+003,1.365895e+002
1.423257e+003,1.371213e+002
1.424221e+003,1.383077e+002
1.425185e+003,1.421009e+002
1.426149e+003,1.439431e+002
1.427114e+003,1.407685e+002
1.428078e+003,1.368733e+002
1.429042e+003,1.360212e+002
1.430006e+003,1.380961e+002
1.430971e+003,1.415305e+002
1.431935e+003,1.453392e+002
1.432899e+003,1.485481e+002
1.433863e+003,1.497504e+002
1.434828e+003,1.491758e+002
1.435792e+003,1.484797e+002
1.436756e+003,1.462834e+002
1.437720e+003,1.461679e+002
1.438684e+003,1.509313e+002
1.439649e+003,1.553383e+002
1.440613e+003,1.561496e+002
1.441577e+003,1.547669e+002
1.442541e+003,1.531576e+002
1.443506e+003,1.517561e+002
1.444470e+003,1.513965e+002
1.445434e+003,1.530730e+002
1.446398e+003,1.548940e+002
1.447363e+003,1.530854e+002
1.448327e+003,1.494424e+002
1.449291e+003,1.492379e+002
1.450255e+003,1.529751e+002
1.451219e+003,1.567570e+002
1.452184e+003,1.592471e+002
1.453148e+003,1.601200e+002
1.454112e+003,1.576725e+002
1.455076e+003,1.528053e+002
1.456041e+003,1.517069e+002
1.457005e+003,1.562519e+002
1.457969e+003,1.608366e+002
1.458933e+003,1.634629e+002
1.459898e+003,1.649377e+002
1.460862e+003,1.655632e+002
1.461826e+003,1.653475e+002
1.462790e+003,1.636676e+002
1.463755e+003,1.609429e+002
1.464719e+003,1.596201e+002
1.465683e+003,1.616306e+002
1.466647e+003,1.652104e+002
1.467611e+003,1.659502e+002
1.468576e+003,1.631107e+002
1.469540e+003,1.623817e+002
1.470504e+003,1.661779e+002
1.471468e+003,1.686647e+002
1.472433e+003,1.680616e+002
1.473397e+003,1.669474e+002
1.474361e+003,1.671114e+002
1.475325e+003,1.678410e+002
1.476290e+003,1.672915e+002
1.477254e+003,1.653210e+002
1.478218e+003,1.641117e+002
1.479182e+003,1.655110e+002
1.480146e+003,1.683196e+002
1.481111e+003,1.696597e+002
1.482075e+003,1.692862e+002
1.483039e+003,1.689565e+002
1.484003e+003,1.681204e+002
1.484968e+003,1.681516e+002
1.485932e+003,1.704353e+002
1.486896e+003,1.730087e+002
1.487860e+003,1.739348e+002
1.488825e+003,1.736231e+002
1.489789e+003,1.734548e+002
1.490753e+003,1.738519e+002
1.491717e+003,1.747865e+002
1.492682e+003,1.767055e+002
1.493646e+003,1.781088e+002
1.494610e+003,1.752140e+002
1.495574e+003,1.697251e+002
1.496538e+003,1.675888e+002
1.497503e+003,1.698959e+002
1.498467e+003,1.720763e+002
1.499431e+003,1.711222e+002
1.500395e+003,1.692191e+002
1.501360e+003,1.697299e+002
1.502324e+003,1.720964e+002
1.503288e+003,1.727132e+002
1.504252e+003,1.704455e+002
1.505217e+003,1.686087e+002
1.506181e+003,1.688498e+002
1.507145e+003,1.701637e+002
1.508109e+003,1.729414e+002
1.509073e+003,1.756415e+002
1.510038e+003,1.750525e+002
1.511002e+003,1.712388e+002
1.511966e+003,1.680423e+002
1.512930e+003,1.678623e+002
1.513895e+003,1.697015e+002
1.514859e+003,1.723889e+002
1.515823e+003,1.757367e+002
1.516787e+003,1.763965e+002
1.517752e+003,1.731477e+002
1.518716e+003,1.707549e+002
1.519680e+003,1.711288e+002
1.520644e+003,1.714031e+002
1.521609e+003,1.695234e+002
1.522573e+003,1.673480e+002
1.523537e+003,1.678946e+002
1.524501e+003,1.707751e+002
1.525465e+003,1.726560e+002
1.526430e+003,1.715396e+002
1.527394e+003,1.690547e+002
1.528358e+003,1.678747e+002
1.529322e+003,1.679333e+002
1.530287e+003,1.673897e+002
1.531251e+003,1.658185e+002
1.532215e+003,1.647360e+002
1.533179e+003,1.643630e+002
1.534144e+003,1.640136e+002
1.535108e+003,1.632868e+002
1.536072e+003,1.624947e+002
1.537036e+003,1.620729e+002
1.538000e+003,1.619749e+002
1.538965e+003,1.619085e+002
1.539929e+003,1.616720e+002
1.540893e+003,1.610971e+002
1.541857e+003,1.600534e+002
1.542822e+003,1.588414e+002
1.543786e+003,1.580955e+002
1.544750e+003,1.577482e+002
1.545714e+003,1.576794e+002
1.546679e+003,1.589013e+002
1.547643e+003,1.588611e+002
1.548607e+003,1.556748e+002
1.549571e+003,1.520163e+002
1.550536e+003,1.499171e+002
1.551500e+003,1.493949e+002
1.552464e+003,1.506172e+002
1.553428e+003,1.535434e+002
1.554392e+003,1.560848e+002
1.555357e+003,1.564890e+002
1.556321e+003,1.551149e+002
1.557285e+003,1.523452e+002
1.558249e+003,1.484514e+002
1.559214e+003,1.463575e+002
1.560178e+003,1.468221e+002
1.561142e+003,1.471919e+002
1.562106e+003,1.459656e+002
1.563071e+003,1.445866e+002
1.564035e+003,1.452835e+002
1.564999e+003,1.468374e+002
1.565963e+003,1.452921e+002
1.566927e+003,1.402569e+002
1.567892e+003,1.372655e+002
1.568856e+003,1.396241e+002
1.569820e+003,1.432643e+002
1.570784e+003,1.436695e+002
1.571749e+003,1.418048e+002
1.572713e+003,1.400888e+002
1.573677e+003,1.386405e+002
1.574641e+003,1.369601e+002
1.575606e+003,1.343291e+002
1.576570e+003,1.322240e+002
1.577534e+003,1.326997e+002
1.578498e+003,1.342604e+002
1.579463e+003,1.337632e+002
1.580427e+003,1.311721e+002
1.581391e+003,1.285428e+002
1.582355e+003,1.262428e+002
1.583319e+003,1.249610e+002
1.584284e+003,1.262287e+002
1.585248e+003,1.279170e+002
1.586212e+003,1.266533e+002
1.587176e+003,1.233806e+002
1.588141e+003,1.213798e+002
1.589105e+003,1.214598e+002
1.590069e+003,1.212782e+002
1.591033e+003,1.189306e+002
1.591998e+003,1.158702e+002
1.592962e+003,1.141773e+002
1.593926e+003,1.136746e+002
1.594890e+003,1.136477e+002
1.595854e+003,1.142591e+002
1.596819e+003,1.144069e+002
1.597783e+003,1.134953e+002
1.598747e+003,1.120070e+002
1.599711e+003,1.100642e+002
1.600676e+003,1.079353e+002
1.601640e+003,1.057472e+002
1.602604e+003,1.038076e+002
1.603568e+003,1.029771e+002
1.604533e+003,1.035621e+002
1.605497e+003,1.046608e+002
1.606461e+003,1.059316e+002
1.607425e+003,1.068632e+002
1.608390e+003,1.057132e+002
1.609354e+003,1.025186e+002
1.610318e+003,9.995757e+001
1.611282e+003,9.832874e+001
1.612246e+003,9.699591e+001
1.613211e+003,9.675591e+001
1.614175e+003,9.564366e+001
1.615139e+003,9.077766e+001
1.616103e+003,8.496883e+001
1.617068e+003,8.330072e+001
1.618032e+003,8.595199e+001
1.618996e+003,8.833553e+001
1.619960e+003,8.776217e+001
1.620925e+003,8.594264e+001
1.621889e+003,8.561885e+001
1.622853e+003,8.638066e+001
1.623817e+003,8.501266e+001
1.624781e+003,8.101988e+001
1.625746e+003,7.866856e+001
1.626710e+003,8.044759e+001
1.627674e+003,8.094621e+001
1.628638e+003,7.572813e+001
1.629603e+003,6.968325e+001
1.630567e+003,6.684485e+001
1.631531e+003,6.652057e+001
1.632495e+003,6.679997e+001
1.633460e+003,6.711659e+001
1.634424e+003,6.745016e+001
1.635388e+003,6.781288e+001
1.636352e+003,6.784999e+001
1.637317e+003,6.678133e+001
1.638281e+003,6.468042e+001
1.639245e+003,6.291326e+001
1.640209e+003,6.146903e+001
1.641173e+003,6.045115e+001
1.642138e+003,6.043377e+001
1.643102e+003,6.022163e+001
1.644066e+003,5.921692e+001
1.645030e+003,5.772086e+001
1.645995e+003,5.581307e+001
1.646959e+003,5.369303e+001
1.647923e+003,5.153661e+001
1.648887e+003,4.949370e+001
1.649852e+003,4.843563e+001
1.650816e+003,4.932841e+001
1.651780e+003,5.108168e+001
1.652744e+003,5.149754e+001
1.653708e+003,5.059703e+001
1.654673e+003,4.898014e+001
1.655637e+003,4.637893e+001
1.656601e+003,4.411132e+001
1.657565e+003,4.253078e+001
1.658530e+003,4.151266e+001
1.659494e+003,4.121856e+001
1.660458e+003,4.116805e+001
1.661422e+003,4.087995e+001
1.662387e+003,4.037880e+001
1.663351e+003,3.998992e+001
1.664315e+003,3.981285e+001
1.665279e+003,3.932131e+001
1.666244e+003,3.797367e+001
1.667208e+003,3.621696e+001
1.668172e+003,3.498622e+001
1.669136e+003,3.419445e+001
1.670100e+003,3.274743e+001
1.671065e+003,3.011611e+001
1.672029e+003,2.877132e+001
1.672993e+003,3.044988e+001
1.673957e+003,3.243568e+001
1.674922e+003,3.330683e+001
1.675886e+003,3.321849e+001
1.676850e+003,3.154197e+001
1.677814e+003,2.907245e+001
1.678779e+003,2.873062e+001
1.679743e+003,3.145953e+001
1.680707e+003,3.346062e+001
1.681671e+003,3.135261e+001
1.682635e+003,2.713278e+001
1.683600e+003,2.366443e+001
1.684564e+003,2.116935e+001
1.685528e+003,2.136611e+001
1.686492e+003,2.483616e+001
1.687457e+003,2.686966e+001
1.688421e+003,2.529760e+001
1.689385e+003,2.309272e+001
1.690349e+003,2.257012e+001
1.691314e+003,2.272842e+001
1.692278e+003,2.263013e+001
1.693242e+003,2.209156e+001
1.694206e+003,2.053325e+001
1.695171e+003,1.767526e+001
1.696135e+003,1.551522e+001
1.697099e+003,1.577062e+001
1.698063e+003,1.690272e+001
1.699027e+003,1.694267e+001
1.699992e+003,1.627900e+001
1.700956e+003,1.600573e+001
1.701920e+003,1.620995e+001
1.702884e+003,1.675299e+001
1.703849e+003,1.787857e+001
1.704813e+003,1.808392e+001
1.705777e+003,1.554589e+001
1.706741e+003,1.208318e+001
1.707706e+003,1.084481e+001
1.708670e+003,1.131406e+001
1.709634e+003,1.133790e+001
1.710598e+003,1.048912e+001
1.711563e+003,1.015600e+001
1.712527e+003,1.164611e+001
1.713491e+003,1.305535e+001
1.714455e+003,1.248893e+001
1.715419e+003,1.101409e+001
1.716384e+003,1.048601e+001
1.717348e+003,1.086890e+001
1.718312e+003,1.114842e+001
1.719276e+003,1.099894e+001
1.720241e+003,1.043383e+001
1.721205e+003,9.392438e+000
1.722169e+003,8.160028e+000
1.723133e+003,7.127435e+000
1.724098e+003,6.377472e+000
1.725062e+003,6.142066e+000
1.726026e+003,6.424426e+000
1.726990e+003,6.884216e+000
1.727954e+003,7.739856e+000
1.728919e+003,8.395185e+000
1.729883e+003,8.885571e+000
1.730847e+003,8.812732e+000
1.731811e+003,7.339856e+000
1.732776e+003,5.117468e+000
1.733740e+003,3.486548e+000
1.734704e+003,2.769940e+000
1.735668e+003,2.754956e+000
1.736633e+003,3.300305e+000
1.737597e+003,3.655853e+000
1.738561e+003,2.745203e+000
1.739525e+003,1.084631e+000
1.740490e+003,1.080249e+000
1.741454e+003,3.628522e+000
1.742418e+003,4.320550e+000
1.743382e+003,1.298303e+000
1.744346e+003,-6.957214e-001
1.745311e+003,-7.565308e-002
1.746275e+003,8.161560e-001
1.747239e+003,7.076599e-001
1.748203e+003,4.784546e-002
1.749168e+003,-6.832886e-001
1.750132e+003,-1.286615e+000
1.751096e+003,-1.631732e+000
1.752060e+003,-1.673010e+000
1.753025e+003,-1.410712e+000
1.753989e+003,-8.180115e-001
1.754953e+003,2.655029e-002
1.755917e+003,1.099805e+000
1.756881e+003,2.424500e+000
1.757846e+003,2.003412e+000
1.758810e+003,-1.292230e+000
1.759774e+003,-2.951233e+000
1.760738e+003,-1.028064e+000
1.761703e+003,6.860901e-001
1.762667e+003,8.310120e-001
1.763631e+003,2.814026e-001
1.764595e+003,-5.676392e-001
1.765560e+003,-1.395374e+000
1.766524e+003,-1.708215e+000
1.767488e+003,-1.556561e+000
1.768452e+003,-1.618439e+000
1.769417e+003,-2.245789e+000
1.770381e+003,-2.909936e+000
1.771345e+003,-2.980417e+000
1.772309e+003,-2.711182e+000
1.773273e+003,-2.748697e+000
1.774238e+003,-3.086539e+000
1.775202e+003,-3.423581e+000
1.776166e+003,-3.726492e+000
1.777130e+003,-3.752313e+000
1.778095e+003,-3.208282e+000
1.779059e+003,-2.736737e+000
1.780023e+003,-3.242355e+000
1.780987e+003,-3.948947e+000
1.781952e+003,-3.337604e+000
1.782916e+003,-1.771332e+000
1.783880e+003,-9.471130e-001
1.784844e+003,-1.137140e+000
1.785808e+003,-1.731671e+000
1.786773e+003,-3.319714e+000
1.787737e+003,-4.277164e+000
1.788701e+003,-2.469913e+000
1.789665e+003,1.456177e-001
1.790630e+003,5.162964e-001
1.791594e+003,-9.751953e-001
1.792558e+003,-2.148599e+000
1.793522e+003,-2.459876e+000
1.794487e+003,-2.946658e+000
1.795451e+003,-4.267831e+000
1.796415e+003,-5.476776e+000
1.797379e+003,-5.325311e+000
1.798344e+003,-4.028891e+000
1.799308e+003,-2.428052e+000
1.800272e+003,-1.523743e-001
1.801236e+003,7.790467e-001
1.802201e+003,-3.439453e-001
1.803165e+003,-1.414880e+000
1.804129e+003,-2.244434e+000
1.805093e+003,-2.812845e+000
1.806057e+003,-2.909338e+000
1.807022e+003,-2.940878e+000
1.807986e+003,-3.502448e+000
1.808950e+003,-4.331354e+000
1.809914e+003,-4.782904e+000
1.810879e+003,-4.631171e+000
1.811843e+003,-3.773779e+000
1.812807e+003,-2.103195e+000
1.813771e+003,-7.251099e-001
1.814736e+003,-1.638104e+000
1.815700e+003,-4.285986e+000
1.816664e+003,-5.650693e+000
1.817628e+003,-5.705353e+000
1.818593e+003,-4.798709e+000
1.819557e+003,-2.230841e+000
1.820521e+003,-7.516235e-001
1.821485e+003,-2.066501e+000
1.822449e+003,-3.866952e+000
1.823414e+003,-4.723178e+000
1.824378e+003,-4.990411e+000
1.825342e+003,-4.741028e+000
1.826306e+003,-4.202603e+000
1.827271e+003,-4.452875e+000
1.828235e+003,-5.886285e+000
1.829199e+003,-6.408557e+000
1.830163e+003,-4.020837e+000
1.831128e+003,-1.438950e+000
1.832092e+003,-1.285059e+000
1.833056e+003,-2.254413e+000
1.834020e+003,-2.076404e+000
1.834984e+003,-1.165469e+000
1.835949e+003,-1.701224e+000
1.836913e+003,-3.887997e+000
1.837877e+003,-5.136905e+000
1.838841e+003,-4.021838e+000
1.839806e+003,-2.463019e+000
1.840770e+003,-2.627173e+000
1.841734e+003,-3.946500e+000
1.842698e+003,-4.659067e+000
1.843663e+003,-4.658084e+000
1.844627e+003,-4.549939e+000
1.845591e+003,-4.318613e+000
1.846555e+003,-4.055200e+000
1.847520e+003,-4.048114e+000
1.848484e+003,-3.733664e+000
1.849448e+003,-2.144309e+000
1.850412e+003,-7.722839e-001
1.851376e+003,-1.301721e+000
1.852341e+003,-2.747693e+000
1.853305e+003,-3.403390e+000
1.854269e+003,-3.071887e+000
1.855233e+003,-2.529364e+000
1.856198e+003,-2.122455e+000
1.857162e+003,-1.615131e+000
1.858126e+003,-5.733948e-001
1.859090e+003,3.447693e-001
1.860055e+003,-8.159943e-001
1.861019e+003,-3.546945e+000
1.861983e+003,-4.071915e+000
1.862947e+003,-2.096353e+000
1.863911e+003,-1.373572e+000
1.864876e+003,-3.156464e+000
1.865840e+003,-4.408661e+000
1.866804e+003,-3.072824e+000
1.867768e+003,-1.204147e+000
1.868733e+003,-1.406290e+000
1.869697e+003,-2.838071e+000
1.870661e+003,-2.825336e+000
1.871625e+003,-1.360355e+000
1.872590e+003,-4.918579e-001
1.873554e+003,-5.313781e-001
1.874518e+003,-9.414185e-001
1.875482e+003,-1.800879e+000
1.876447e+003,-2.687921e+000
1.877411e+003,-3.625183e+000
1.878375e+003,-4.205670e+000
1.879339e+003,-3.849585e+000
1.880303e+003,-2.905447e+000
1.881268e+003,-1.911972e+000
1.882232e+003,-1.132639e+000
1.883196e+003,-8.737640e-001
1.884160e+003,-1.273627e+000
1.885125e+003,-2.151288e+000
1.886089e+003,-3.432315e+000
1.887053e+003,-4.708124e+000
1.888017e+003,-4.615979e+000
1.888982e+003,-3.121494e+000
1.889946e+003,-1.882455e+000
1.890910e+003,-8.757874e-001
1.891874e+003,-2.206848e-001
1.892839e+003,-1.049805e-002
1.893803e+003,-8.233643e-002
1.894767e+003,-3.738922e-001
1.895731e+003,-8.319885e-001
1.896695e+003,-1.770749e+000
1.897660e+003,-2.703366e+000
1.898624e+003,-2.604135e+000
1.899588e+003,-1.597790e+000
1.900552e+003,-1.040439e+000
1.901517e+003,-1.421356e+000
1.902481e+003,-1.494391e+000
1.903445e+003,-3.153320e-001
1.904409e+003,8.502563e-001
1.905374e+003,1.428534e+000
1.906338e+003,1.391071e+000
1.907302e+003,2.779785e-001
1.908266e+003,-1.409634e+000
1.909230e+003,-2.833740e+000
1.910195e+003,-3.677698e+000
1.911159e+003,-3.628519e+000
1.912123e+003,-2.592212e+000
1.913087e+003,-1.000598e+000
1.914052e+003,7.809998e-001
1.915016e+003,2.048547e+000
1.915980e+003,1.121729e+000
1.916944e+003,-1.751865e+000
1.917909e+003,-3.255100e+000
1.918873e+003,-3.198386e+000
1.919837e+003,-2.685355e+000
1.920801e+003,-1.547903e+000
1.921766e+003,-7.780670e-001
1.922730e+003,-8.944122e-001
1.923694e+003,-1.293411e+000
1.924658e+003,-1.672736e+000
1.925622e+003,-1.945612e+000
1.926587e+003,-2.019281e+000
1.927551e+003,-1.883362e+000
1.928515e+003,-1.403546e+000
1.929479e+003,-4.782806e-001
1.930444e+003,-2.860352e-001
1.931408e+003,-2.222607e+000
1.932372e+003,-3.387955e+000
1.933336e+003,-1.709781e+000
1.934301e+003,5.096680e-001
1.935265e+003,1.612170e+000
1.936229e+003,1.913007e+000
1.937193e+003,1.797552e+000
1.938157e+003,1.441998e+000
1.939122e+003,1.068231e+000
1.940086e+003,7.458252e-001
1.941050e+003,3.704346e-001
1.942014e+003,-1.375153e-001
1.942979e+003,-7.075806e-001
1.943943e+003,-1.274677e+000
1.944907e+003,-1.697327e+000
1.945871e+003,-1.470007e+000
1.946836e+003,-6.120056e-001
1.947800e+003,-1.931732e-001
1.948764e+003,-3.469147e-001
1.949728e+003,-3.504059e-001
1.950693e+003,-2.774658e-002
1.951657e+003,2.873901e-001
1.952621e+003,5.345825e-001
1.953585e+003,6.589478e-001
1.954549e+003,6.099731e-001
1.955514e+003,3.548950e-001
1.956478e+003,-3.700836e-001
1.957442e+003,-1.496722e+000
1.958406e+003,-1.880820e+000
1.959371e+003,-1.230359e+000
1.960335e+003,-6.417755e-001
1.961299e+003,-1.624542e-001
1.962263e+003,1.408600e-001
1.963228e+003,1.030853e-001
1.964192e+003,5.941772e-003
1.965156e+003,-1.549896e-001
1.966120e+003,-1.206329e-001
1.967084e+003,6.465942e-001
1.968049e+003,1.850458e+000
1.969013e+003,2.698071e+000
1.969977e+003,2.968201e+000
1.970941e+003,3.045038e+000
1.971906e+003,3.184161e+000
1.972870e+003,2.918677e+000
1.973834e+003,1.242957e+000
1.974798e+003,-6.462525e-001
1.975763e+003,-2.260376e-001
1.976727e+003,1.555920e+000
1.977691e+003,1.504169e+000
1.978655e+003,-1.727905e-001
1.979620e+003,-9.746704e-002
1.980584e+003,2.444653e+000
1.981548e+003,4.016498e+000
1.982512e+003,2.684143e+000
1.983476e+003,1.174152e+000
1.984441e+003,2.435095e+000
1.985405e+003,5.151654e+000
1.986369e+003,6.202667e+000
1.987333e+003,5.652814e+000
1.988298e+003,5.071765e+000
1.989262e+003,4.317773e+000
1.990226e+003,3.737000e+000
1.991190e+003,3.144568e+000
1.992155e+003,3.158783e+000
1.993119e+003,4.810113e+000
1.994083e+003,6.061218e+000
1.995047e+003,5.484698e+000
1.996011e+003,4.253625e+000
1.996976e+003,3.650323e+000
1.997940e+003,3.389307e+000
1.998904e+003,2.403363e+000
1.999868e+003,6.744324e-001
2.000833e+003,-2.035217e-002
2.001797e+003,1.137634e+000
2.002761e+003,2.319519e+000
2.003725e+003,2.860754e+000
2.004690e+003,3.144672e+000
2.005654e+003,3.423517e+000
2.006618e+003,3.556793e+000
2.007582e+003,3.293231e+000
2.008547e+003,2.839942e+000
2.009511e+003,2.527271e+000
2.010475e+003,2.396118e+000
2.011439e+003,2.305188e+000
2.012403e+003,2.198138e+000
2.013368e+003,2.204016e+000
2.014332e+003,2.445428e+000
2.015296e+003,2.627753e+000
2.016260e+003,2.078876e+000
2.017225e+003,1.388196e+000
2.018189e+003,2.232965e+000
2.019153e+003,4.114911e+000
2.020117e+003,4.889612e+000
2.021082e+003,4.528418e+000
2.022046e+003,5.012085e+000
2.023010e+003,6.826734e+000
2.023974e+003,7.286859e+000
2.024938e+003,4.750018e+000
2.025903e+003,2.152271e+000
2.026867e+003,2.674805e+000
2.027831e+003,4.940301e+000
2.028795e+003,5.698590e+000
2.029760e+003,5.057080e+000
2.030724e+003,4.959900e+000
2.031688e+003,5.745959e+000
2.032652e+003,5.462049e+000
2.033617e+003,3.239520e+000
2.034581e+003,1.894421e+000
2.035545e+003,2.673840e+000
2.036509e+003,3.686646e+000
2.037474e+003,3.698200e+000
2.038438e+003,3.498444e+000
2.039402e+003,3.956854e+000
2.040366e+003,4.867975e+000
2.041330e+003,6.037738e+000
2.042295e+003,7.432916e+000
2.043259e+003,7.694373e+000
2.044223e+003,5.934442e+000
2.045187e+003,4.954779e+000
2.046152e+003,5.830096e+000
2.047116e+003,6.795874e+000
2.048080e+003,7.500196e+000
2.049044e+003,7.662646e+000
2.050009e+003,6.734338e+000
2.050973e+003,5.533868e+000
2.051937e+003,4.926745e+000
2.052901e+003,4.888837e+000
2.053865e+003,5.203864e+000
2.054830e+003,5.687469e+000
2.055794e+003,5.901568e+000
2.056758e+003,5.648651e+000
2.057722e+003,5.247027e+000
2.058687e+003,4.509656e+000
2.059651e+003,4.274280e+000
2.060615e+003,6.124774e+000
2.061579e+003,8.285382e+000
2.062544e+003,8.147882e+000
2.063508e+003,6.582611e+000
2.064472e+003,5.399689e+000
2.065436e+003,4.908582e+000
2.066401e+003,5.046051e+000
2.067365e+003,5.623792e+000
2.068329e+003,5.896729e+000
2.069293e+003,5.412256e+000
2.070258e+003,4.715698e+000
2.071222e+003,4.376074e+000
2.072186e+003,4.470752e+000
2.073150e+003,5.307062e+000
2.074115e+003,6.695184e+000
2.075079e+003,7.987665e+000
2.076043e+003,9.041577e+000
2.077007e+003,8.908422e+000
2.077971e+003,7.553809e+000
2.078936e+003,6.734729e+000
2.079900e+003,7.080682e+000
2.080864e+003,7.934161e+000
2.081828e+003,8.916449e+000
2.082792e+003,9.397443e+000
2.083757e+003,8.364222e+000
2.084721e+003,6.435956e+000
2.085685e+003,5.955652e+000
2.086649e+003,7.046136e+000
2.087614e+003,6.911035e+000
2.088578e+003,5.063843e+000
2.089542e+003,4.548895e+000
2.090506e+003,6.256659e+000
2.091471e+003,7.142206e+000
2.092435e+003,5.640259e+000
2.093399e+003,4.646899e+000
2.094363e+003,6.833826e+000
2.095328e+003,9.316193e+000
2.096292e+003,7.741144e+000
2.097256e+003,3.630463e+000
2.098220e+003,2.533215e+000
2.099185e+003,4.839331e+000
2.100149e+003,6.663135e+000
2.101113e+003,8.024755e+000
2.102077e+003,8.763372e+000
2.103042e+003,9.062042e+000
2.104006e+003,8.442993e+000
2.104970e+003,4.781995e+000
2.105934e+003,2.588886e+000
2.106898e+003,6.071777e+000
2.107863e+003,1.065047e+001
2.108827e+003,1.182573e+001
2.109791e+003,1.043621e+001
2.110755e+003,7.879327e+000
2.111719e+003,4.469781e+000
2.112684e+003,3.318829e+000
2.113648e+003,5.825519e+000
2.114612e+003,7.911554e+000
2.115576e+003,8.638880e+000
2.116541e+003,8.852045e+000
2.117505e+003,8.940125e+000
2.118469e+003,8.552607e+000
2.119433e+003,7.176422e+000
2.120398e+003,5.480920e+000
2.121362e+003,3.692322e+000
2.122326e+003,2.279968e+000
2.123290e+003,2.248303e+000
2.124255e+003,3.404199e+000
2.125219e+003,4.332965e+000
2.126183e+003,4.634369e+000
2.127147e+003,4.469458e+000
2.128112e+003,3.142029e+000
2.129076e+003,2.654968e+000
2.130040e+003,5.136981e+000
2.131004e+003,7.680823e+000
2.131969e+003,7.696472e+000
2.132933e+003,6.683508e+000
2.133897e+003,6.773700e+000
2.134861e+003,7.228253e+000
2.135825e+003,5.782965e+000
2.136790e+003,2.904120e+000
2.137754e+003,1.432394e+000
2.138718e+003,2.196933e+000
2.139682e+003,3.332745e+000
2.140646e+003,3.862183e+000
2.141611e+003,4.201385e+000
2.142575e+003,4.812744e+000
2.143539e+003,5.187689e+000
2.144503e+003,4.671417e+000
2.145468e+003,3.814600e+000
2.146432e+003,2.852246e+000
2.147396e+003,2.341394e+000
2.148360e+003,3.933826e+000
2.149325e+003,6.788519e+000
2.150289e+003,7.736047e+000
2.151253e+003,6.079871e+000
2.152217e+003,4.110578e+000
2.153182e+003,3.138922e+000
2.154146e+003,2.833874e+000
2.155110e+003,3.088245e+000
2.156074e+003,3.530487e+000
2.157039e+003,3.655658e+000
2.158003e+003,3.576105e+000
2.158967e+003,3.473517e+000
2.159931e+003,3.426569e+000
2.160896e+003,3.530377e+000
2.161860e+003,3.781232e+000
2.162824e+003,4.215912e+000
2.163788e+003,4.751648e+000
2.164752e+003,5.150818e+000
2.165717e+003,5.242371e+000
2.166681e+003,4.438941e+000
2.167645e+003,1.975110e+000
2.168609e+003,-4.928345e-001
2.169573e+003,-2.177612e-001
2.170538e+003,1.410077e+000
2.171502e+003,1.628110e+000
2.172466e+003,9.818146e-001
2.173430e+003,9.098297e-001
2.174395e+003,1.369281e+000
2.175359e+003,1.713730e+000
2.176323e+003,1.798431e+000
2.177287e+003,1.816794e+000
2.178252e+003,1.783270e+000
2.179216e+003,1.029895e+000
2.180180e+003,-9.341522e-001
2.181144e+003,-2.227234e+000
2.182109e+003,-1.686859e-001
2.183073e+003,3.356354e+000
2.184037e+003,5.096631e+000
2.185001e+003,5.259711e+000
2.185966e+003,3.942425e+000
2.186930e+003,1.664780e+000
2.187894e+003,-4.249848e-001
2.188858e+003,-2.019543e+000
2.189823e+003,-2.731818e+000
2.190787e+003,-2.563132e+000
2.191751e+003,-1.838663e+000
2.192715e+003,-7.707977e-001
2.193679e+003,-2.473389e-001
2.194644e+003,-1.236151e+000
2.195608e+003,-2.738046e+000
2.196572e+003,-3.290100e+000
2.197536e+003,-3.042892e+000
2.198500e+003,-1.970715e+000
2.199465e+003,-4.997009e-001
2.200429e+003,1.166473e-001
2.201393e+003,-1.256988e-001
2.202357e+003,-1.102274e+000
2.203322e+003,-2.492944e+000
2.204286e+003,-2.883588e+000
2.205250e+003,-1.869986e+000
2.206214e+003,-8.993775e-001
2.207179e+003,-9.593598e-001
2.208143e+003,-1.406546e+000
2.209107e+003,-1.569760e+000
2.210071e+003,-1.448462e+000
2.211036e+003,-6.291382e-001
2.212000e+003,2.720276e-001
2.212964e+003,-6.853851e-001
2.213928e+003,-2.787082e+000
2.214893e+003,-3.772867e+000
2.215857e+003,-3.533545e+000
2.216821e+003,-2.939850e+000
2.217785e+003,-2.293817e+000
2.218750e+003,-1.398212e+000
2.219714e+003,-2.687592e-001
2.220678e+003,-2.621460e-003
2.221642e+003,-1.544489e+000
2.222606e+003,-3.620251e+000
2.223571e+003,-4.929285e+000
2.224535e+003,-5.367096e+000
2.225499e+003,-4.121362e+000
2.226463e+003,-2.176541e+000
2.227427e+003,-1.725507e+000
2.228392e+003,-2.341797e+000
2.229356e+003,-2.569339e+000
2.230320e+003,-2.286133e+000
2.231284e+003,-2.070953e+000
2.232249e+003,-2.092764e+000
2.233213e+003,-2.143112e+000
2.234177e+003,-2.095148e+000
2.235141e+003,-1.850198e+000
2.236106e+003,-1.191498e+000
2.237070e+003,-7.018799e-001
2.238034e+003,-1.463895e+000
2.238998e+003,-2.556903e+000
2.239963e+003,-2.491696e+000
2.240927e+003,-1.918301e+000
2.241891e+003,-1.895303e+000
2.242855e+003,-2.374921e+000
2.243820e+003,-3.341846e+000
2.244784e+003,-4.415729e+000
2.245748e+003,-4.476798e+000
2.246712e+003,-3.378998e+000
2.247677e+003,-2.364536e+000
2.248641e+003,-2.066312e+000
2.249605e+003,-1.971967e+000
2.250569e+003,-1.695786e+000
2.251533e+003,-1.472202e+000
2.252498e+003,-1.502206e+000
2.253462e+003,-1.724835e+000
2.254426e+003,-2.371802e+000
2.255390e+003,-2.912195e+000
2.256354e+003,-2.381213e+000
2.257319e+003,-1.365607e+000
2.258283e+003,-9.424561e-001
2.259247e+003,-1.219308e+000
2.260211e+003,-1.892258e+000
2.261176e+003,-2.821457e+000
2.262140e+003,-3.727527e+000
2.263104e+003,-4.539493e+000
2.264068e+003,-5.174402e+000
2.265033e+003,-5.737863e+000
2.265997e+003,-5.900546e+000
2.266961e+003,-5.333871e+000
2.267925e+003,-4.453256e+000
2.268890e+003,-3.231705e+000
2.269854e+003,-2.184470e+000
2.270818e+003,-1.835376e+000
2.271782e+003,-2.025726e+000
2.272747e+003,-2.481802e+000
2.273711e+003,-3.134164e+000
2.274675e+003,-4.160178e+000
2.275639e+003,-5.608072e+000
2.276604e+003,-5.998755e+000
2.277568e+003,-4.243002e+000
2.278532e+003,-2.898441e+000
2.279496e+003,-2.672937e+000
2.280460e+003,-2.969159e+000
2.281425e+003,-4.020764e+000
2.282389e+003,-4.986178e+000
2.283353e+003,-5.370059e+000
2.284317e+003,-5.381473e+000
2.285281e+003,-4.883191e+000
2.286246e+003,-4.374963e+000
2.287210e+003,-5.121918e+000
2.288174e+003,-6.747504e+000
2.289138e+003,-6.537107e+000
2.290103e+003,-3.677493e+000
2.291067e+003,-2.976785e+000
2.292031e+003,-6.383835e+000
2.292995e+003,-8.130814e+000
2.293960e+003,-7.013196e+000
2.294924e+003,-6.144022e+000
2.295888e+003,-6.374032e+000
2.296852e+003,-6.729953e+000
2.297817e+003,-6.863626e+000
2.298781e+003,-6.668082e+000
2.299745e+003,-5.894675e+000
2.300709e+003,-4.899954e+000
2.301674e+003,-4.236649e+000
2.302638e+003,-4.022326e+000
2.303602e+003,-4.886767e+000
2.304566e+003,-6.997195e+000
2.305531e+003,-7.954455e+000
2.306495e+003,-7.597842e+000
2.307459e+003,-6.955234e+000
2.308423e+003,-6.107416e+000
2.309387e+003,-5.267273e+000
2.310352e+003,-4.470651e+000
2.311316e+003,-4.034457e+000
2.312280e+003,-4.100830e+000
2.313244e+003,-4.359113e+000
2.314208e+003,-4.590741e+000
2.315173e+003,-4.781528e+000
2.316137e+003,-4.813132e+000
2.317101e+003,-4.930197e+000
2.318065e+003,-6.220346e+000
2.319030e+003,-8.087152e+000
2.319994e+003,-7.795273e+000
2.320958e+003,-5.942319e+000
2.321922e+003,-5.169263e+000
2.322887e+003,-5.428683e+000
2.323851e+003,-5.022562e+000
2.324815e+003,-3.830090e+000
2.325779e+003,-3.230643e+000
2.326744e+003,-3.714093e+000
2.327708e+003,-4.626123e+000
2.328672e+003,-5.579898e+000
2.329636e+003,-6.325510e+000
2.330601e+003,-6.567578e+000
2.331565e+003,-6.548590e+000
2.332529e+003,-6.506995e+000
2.333493e+003,-6.393756e+000
2.334458e+003,-6.237491e+000
2.335422e+003,-5.920990e+000
2.336386e+003,-5.075519e+000
2.337350e+003,-4.036627e+000
2.338314e+003,-3.232553e+000
2.339279e+003,-2.867151e+000
2.340243e+003,-3.312500e+000
2.341207e+003,-4.537064e+000
2.342171e+003,-5.732553e+000
2.343135e+003,-6.693961e+000
2.344100e+003,-7.333801e+000
2.345064e+003,-7.879828e+000
2.346028e+003,-7.721780e+000
2.346992e+003,-5.792297e+000
2.347957e+003,-4.193133e+000
2.348921e+003,-4.136703e+000
2.349885e+003,-4.597882e+000
2.350849e+003,-4.730908e+000
2.351814e+003,-5.061249e+000
2.352778e+003,-6.825131e+000
2.353742e+003,-9.067545e+000
2.354706e+003,-9.227179e+000
2.355671e+003,-7.481107e+000
2.356635e+003,-6.710706e+000
2.357599e+003,-7.379560e+000
2.358563e+003,-6.993643e+000
2.359528e+003,-4.907147e+000
2.360492e+003,-4.019357e+000
2.361456e+003,-4.867230e+000
2.362420e+003,-5.980490e+000
2.363385e+003,-7.054837e+000
2.364349e+003,-7.798108e+000
2.365313e+003,-8.050608e+000
2.366277e+003,-7.900201e+000
2.367241e+003,-7.392459e+000
2.368206e+003,-6.834808e+000
2.369170e+003,-6.749466e+000
2.370134e+003,-6.943494e+000
2.371098e+003,-6.785287e+000
2.372063e+003,-6.419412e+000
2.373027e+003,-6.475870e+000
2.373991e+003,-6.807364e+000
2.374955e+003,-7.117896e+000
2.375919e+003,-7.228446e+000
2.376884e+003,-6.403574e+000
2.377848e+003,-4.828253e+000
2.378812e+003,-3.710358e+000
2.379776e+003,-3.476068e+000
2.380741e+003,-3.835773e+000
2.381705e+003,-4.638971e+000
2.382669e+003,-5.594702e+000
2.383633e+003,-6.790860e+000
2.384598e+003,-7.520035e+000
2.385562e+003,-6.766467e+000
2.386526e+003,-5.943164e+000
2.387490e+003,-6.422003e+000
2.388455e+003,-7.085059e+000
2.389419e+003,-6.642245e+000
2.390383e+003,-5.822839e+000
2.391347e+003,-5.818631e+000
2.392312e+003,-6.303006e+000
2.393276e+003,-6.185663e+000
2.394240e+003,-5.503409e+000
2.395204e+003,-5.408432e+000
2.396168e+003,-6.242959e+000
2.397133e+003,-6.501257e+000
2.398097e+003,-5.754947e+000
2.399061e+003,-5.131289e+000
2.400025e+003,-4.484464e+000
2.400990e+003,-4.483572e+000
2.401954e+003,-5.785886e+000
2.402918e+003,-6.392499e+000
2.403882e+003,-5.101477e+000
2.404846e+003,-3.763782e+000
2.405811e+003,-3.938657e+000
2.406775e+003,-4.547766e+000
2.407739e+003,-4.032068e+000
2.408703e+003,-3.009247e+000
2.409668e+003,-3.295554e+000
2.410632e+003,-4.468634e+000
2.411596e+003,-4.141336e+000
2.412560e+003,-2.800189e+000
2.413525e+003,-2.432456e+000
2.414489e+003,-3.039587e+000
2.415453e+003,-4.310031e+000
2.416417e+003,-5.835935e+000
2.417382e+003,-6.552585e+000
2.418346e+003,-6.284112e+000
2.419310e+003,-5.683212e+000
2.420274e+003,-5.084967e+000
2.421239e+003,-4.854636e+000
2.422203e+003,-5.417722e+000
2.423167e+003,-5.706000e+000
2.424131e+003,-4.347323e+000
2.425095e+003,-3.268097e+000
2.426060e+003,-4.477905e+000
2.427024e+003,-5.574301e+000
2.427988e+003,-3.888959e+000
2.428952e+003,-2.015161e+000
2.429917e+003,-3.203476e+000
2.430881e+003,-5.488605e+000
2.431845e+003,-5.485239e+000
2.432809e+003,-3.829440e+000
2.433773e+003,-3.266907e+000
2.434738e+003,-3.811243e+000
2.435702e+003,-4.534528e+000
2.436666e+003,-5.725488e+000
2.437630e+003,-5.968988e+000
2.438595e+003,-5.046582e+000
2.439559e+003,-4.212884e+000
2.440523e+003,-3.595047e+000
2.441487e+003,-2.969064e+000
2.442452e+003,-2.278531e+000
2.443416e+003,-2.095196e+000
2.444380e+003,-2.701221e+000
2.445344e+003,-3.681857e+000
2.446309e+003,-4.740137e+000
2.447273e+003,-5.012915e+000
2.448237e+003,-3.232810e+000
2.449201e+003,-3.796478e-001
2.450166e+003,3.201581e+000
2.451130e+003,5.756574e+000
2.452094e+003,3.028149e+000
2.453058e+003,-1.687210e+000
2.454022e+003,-3.118552e+000
2.454987e+003,-2.554010e+000
2.455951e+003,-3.174524e+000
2.456915e+003,-4.695025e+000
2.457879e+003,-5.183093e+000
2.458844e+003,-4.418631e+000
2.459808e+003,-3.244595e+000
2.460772e+003,-1.671857e+000
2.461736e+003,-1.448676e+000
2.462700e+003,-4.772653e+000
2.463665e+003,-6.386185e+000
2.464629e+003,-3.967575e+000
2.465593e+003,-2.700516e+000
2.466557e+003,-4.183282e+000
2.467522e+003,-5.776208e+000
2.468486e+003,-6.685107e+000
2.469450e+003,-6.465805e+000
2.470414e+003,-4.484070e+000
2.471379e+003,-2.505783e+000
2.472343e+003,-2.750900e+000
2.473307e+003,-4.032434e+000
2.474271e+003,-3.716074e+000
2.475236e+003,-2.578796e+000
2.476200e+003,-3.567172e+000
2.477164e+003,-5.705985e+000
2.478128e+003,-5.743341e+000
2.479093e+003,-4.533774e+000
2.480057e+003,-4.978180e+000
2.481021e+003,-6.496704e+000
2.481985e+003,-6.377692e+000
2.482949e+003,-4.740897e+000
2.483914e+003,-4.022476e+000
2.484878e+003,-4.769809e+000
2.485842e+003,-5.273038e+000
2.486806e+003,-4.819272e+000
2.487771e+003,-4.588492e+000
2.488735e+003,-5.423581e+000
2.489699e+003,-5.858200e+000
2.490663e+003,-5.617251e+000
2.491627e+003,-4.809912e+000
2.492592e+003,-2.600998e+000
2.493556e+003,-1.095584e+000
2.494520e+003,-1.509592e+000
2.495484e+003,-2.615570e+000
2.496449e+003,-3.643430e+000
2.497413e+003,-4.243722e+000
2.498377e+003,-3.738022e+000
2.499341e+003,-2.833008e+000
2.500306e+003,-3.622009e+000
2.501270e+003,-5.538995e+000
2.502234e+003,-5.943631e+000
2.503198e+003,-5.227567e+000
2.504163e+003,-4.822095e+000
2.505127e+003,-4.573517e+000
2.506091e+003,-3.459998e+000
2.507055e+003,-1.816397e+000
2.508020e+003,-1.132477e+000
2.508984e+003,-1.321066e+000
2.509948e+003,-5.622925e-001
2.510912e+003,1.474744e+000
2.511876e+003,2.001712e+000
2.512841e+003,-5.959290e-001
2.513805e+003,-2.433997e+000
2.514769e+003,-1.705402e+000
2.515733e+003,-9.319733e-001
2.516698e+003,-2.516968e-001
2.517662e+003,-4.670654e-001
2.518626e+003,-2.301208e+000
2.519590e+003,-4.066727e+000
2.520554e+003,-5.135516e+000
2.521519e+003,-5.302249e+000
2.522483e+003,-4.252130e+000
2.523447e+003,-2.687219e+000
2.524411e+003,-1.526233e+000
2.525376e+003,-8.178986e-001
2.526340e+003,-8.837067e-001
2.527304e+003,-1.517798e+000
2.528268e+003,-1.968555e+000
2.529233e+003,-2.362830e+000
2.530197e+003,-3.593066e+000
2.531161e+003,-4.750916e+000
2.532125e+003,-3.409332e+000
2.533090e+003,-4.335571e-001
2.534054e+003,1.907211e+000
2.535018e+003,3.102051e+000
2.535982e+003,3.039673e+000
2.536947e+003,1.797199e+000
2.537911e+003,1.138947e+000
2.538875e+003,1.867267e+000
2.539839e+003,2.021799e+000
2.540803e+003,8.803528e-001
2.541768e+003,-6.893311e-002
2.542732e+003,-7.327667e-001
2.543696e+003,-1.192837e+000
2.544660e+003,-1.426376e+000
2.545625e+003,-1.470532e+000
2.546589e+003,-1.363654e+000
2.547553e+003,-9.198456e-001
2.548517e+003,-5.361938e-003
2.549482e+003,1.132425e+000
2.550446e+003,2.375452e+000
2.551410e+003,3.050336e+000
2.552374e+003,1.395001e+000
2.553339e+003,-8.350006e-001
2.554303e+003,-7.435150e-001
2.555267e+003,7.129212e-002
2.556231e+003,-9.619080e-001
2.557196e+003,-2.204825e+000
2.558160e+003,-7.310974e-001
2.559124e+003,1.877521e+000
2.560088e+003,2.801178e+000
2.561052e+003,2.126926e+000
2.562017e+003,8.220825e-001
2.562981e+003,-1.002191e+000
2.563945e+003,-1.934485e+000
2.564909e+003,-1.851324e+000
2.565874e+003,-1.560394e+000
2.566838e+003,-1.033783e+000
2.567802e+003,-2.970154e-001
2.568766e+003,6.561219e-001
2.569730e+003,1.351761e+000
2.570695e+003,1.612000e+000
2.571659e+003,3.003418e-001
2.572623e+003,-2.515500e+000
2.573587e+003,-3.174875e+000
2.574552e+003,9.148560e-002
2.575516e+003,2.695496e+000
2.576480e+003,1.318701e+000
2.577444e+003,-9.036041e-001
2.578409e+003,-2.804019e+000
2.579373e+003,-3.751007e+000
2.580337e+003,-2.432693e+000
2.581301e+003,-1.198322e+000
2.582266e+003,-1.720612e+000
2.583230e+003,-2.330173e+000
2.584194e+003,-1.754901e+000
2.585158e+003,-1.042798e+000
2.586123e+003,-1.261078e+000
2.587087e+003,-1.803198e+000
2.588051e+003,-1.672501e+000
2.589015e+003,-1.044919e+000
2.589979e+003,-4.718292e-001
2.590944e+003,1.081360e-001
2.591908e+003,1.585950e+000
2.592872e+003,2.991742e+000
2.593836e+003,8.501434e-001
2.594801e+003,-2.846313e+000
2.595765e+003,-3.241766e+000
2.596729e+003,-1.257907e+000
2.597693e+003,-3.843903e-001
2.598657e+003,-9.007324e-001
2.599622e+003,-1.269522e+000
2.600586e+003,-1.192090e+000
2.601550e+003,-8.888794e-001
2.602514e+003,-1.445526e-001
2.603479e+003,-5.231934e-002
2.604443e+003,-1.240616e+000
2.605407e+003,-9.512390e-001
2.606371e+003,1.548352e+000
2.607336e+003,2.393787e+000
2.608300e+003,6.926849e-001
2.609264e+003,-5.121887e-001
2.610228e+003,-1.430206e-001
2.611193e+003,9.252930e-003
2.612157e+003,-1.042969e+000
2.613121e+003,-1.760519e+000
2.614085e+003,-7.906525e-001
2.615050e+003,1.888702e-001
2.616014e+003,-6.520966e-001
2.616978e+003,-1.418930e+000
2.617942e+003,-5.712158e-001
2.618906e+003,4.098969e-001
2.619871e+003,1.332797e+000
2.620835e+003,1.095355e+000
2.621799e+003,-2.512817e+000
2.622763e+003,-5.525076e+000
2.623728e+003,-3.818249e+000
2.624692e+003,-2.624786e-001
2.625656e+003,6.058533e-001
2.626620e+003,-2.615875e-001
2.627584e+003,-5.037445e-001
2.628549e+003,-2.075928e-001
2.629513e+003,9.090759e-001
2.630477e+003,2.001096e+000
2.631441e+003,3.005829e-001
2.632406e+003,-2.323044e+000
2.633370e+003,-1.704849e+000
2.634334e+003,7.922119e-001
2.635298e+003,1.727277e+000
2.636263e+003,1.046707e+000
2.637227e+003,1.437225e-001
2.638191e+003,-7.100769e-001
2.639155e+003,-7.943329e-001
2.640120e+003,1.600342e-002
2.641084e+003,9.678985e-001
2.642048e+003,2.151660e+000
2.643012e+003,2.430414e+000
2.643977e+003,1.790112e+000
2.644941e+003,1.257706e+000
2.645905e+003,9.378510e-001
2.646869e+003,-6.759949e-002
2.647833e+003,-1.757422e+000
2.648798e+003,-2.350040e+000
2.649762e+003,-1.272305e+000
2.650726e+003,-6.619903e-001
2.651690e+003,-1.802771e+000
2.652655e+003,-2.597495e+000
2.653619e+003,-1.789145e+000
2.654583e+003,-8.962433e-001
2.655547e+003,-3.524353e-001
2.656511e+003,2.759705e-001
2.657476e+003,1.252667e+000
2.658440e+003,1.850687e+000
2.659404e+003,1.824396e+000
2.660368e+003,9.645050e-001
2.661333e+003,-9.240265e-001
2.662297e+003,-2.360022e+000
2.663261e+003,-1.887384e+000
2.664225e+003,-6.152710e-001
2.665190e+003,3.263214e-001
2.666154e+003,9.072754e-001
2.667118e+003,7.364105e-001
2.668082e+003,6.741394e-001
2.669047e+003,2.144153e+000
2.670011e+003,3.302441e+000
2.670975e+003,1.684357e+000
2.671939e+003,-4.235199e-001
2.672904e+003,-4.949341e-001
2.673868e+003,7.987549e-001
2.674832e+003,2.961212e+000
2.675796e+003,4.839795e+000
2.676760e+003,3.070825e+000
2.677725e+003,-1.077789e+000
2.678689e+003,-2.458197e+000
2.679653e+003,-1.769507e+000
2.680617e+003,-5.793610e-001
2.681582e+003,6.085998e-001
2.682546e+003,1.022760e+000
2.683510e+003,8.702790e-001
2.684474e+003,1.200501e-001
2.685438e+003,-5.885285e-001
2.686403e+003,7.530975e-001
2.687367e+003,3.663708e+000
2.688331e+003,3.674219e+000
2.689295e+003,6.314636e-001
2.690260e+003,-3.656006e-003
2.691224e+003,2.184326e+000
2.692188e+003,2.680499e+000
2.693152e+003,1.472568e+000
2.694117e+003,8.353546e-001
2.695081e+003,8.975922e-001
2.696045e+003,6.272522e-001
2.697009e+003,1.219788e-002
2.697974e+003,-4.043457e-001
2.698938e+003,-2.616791e-001
2.699902e+003,1.788083e+000
2.700866e+003,6.410174e+000
2.701831e+003,8.622625e+000
2.702795e+003,5.610602e+000
2.703759e+003,3.071149e+000
2.704723e+003,1.129379e+000
2.705688e+003,3.837982e-001
2.706652e+003,9.993683e-001
2.707616e+003,2.212091e+000
2.708580e+003,3.784436e+000
2.709544e+003,3.577979e+000
2.710509e+003,9.687073e-001
2.711473e+003,-1.295673e+000
2.712437e+003,-1.695383e+000
2.713401e+003,-7.699829e-001
2.714365e+003,1.958887e+000
2.715330e+003,3.710052e+000
2.716294e+003,2.139069e+000
2.717258e+003,7.087830e-001
2.718222e+003,9.338166e-001
2.719187e+003,1.027109e+000
2.720151e+003,2.204651e-001
2.721115e+003,-6.274109e-002
2.722079e+003,9.539154e-001
2.723044e+003,1.847809e+000
2.724008e+003,1.547195e+000
2.724972e+003,1.048242e+000
2.725936e+003,1.339023e+000
2.726901e+003,2.083093e+000
2.727865e+003,3.709106e+000
2.728829e+003,4.586230e+000
2.729793e+003,2.269080e+000
2.730758e+003,9.695435e-002
2.731722e+003,6.079834e-001
2.732686e+003,1.897339e+000
2.733650e+003,2.917889e+000
2.734615e+003,3.536481e+000
2.735579e+003,3.735944e+000
2.736543e+003,2.962134e+000
2.737507e+003,1.931305e-001
2.738471e+003,-2.704868e+000
2.739436e+003,-1.828912e+000
2.740400e+003,8.459533e-001
2.741364e+003,2.373169e+000
2.742328e+003,3.351947e+000
2.743292e+003,4.771192e+000
2.744257e+003,5.756934e+000
2.745221e+003,4.872839e+000
2.746185e+003,3.383923e+000
2.747149e+003,2.796930e+000
2.748114e+003,2.882452e+000
2.749078e+003,3.402826e+000
2.750042e+003,4.101569e+000
2.751006e+003,4.217187e+000
2.751971e+003,3.919934e+000
2.752935e+003,3.827405e+000
2.753899e+003,3.809125e+000
2.754863e+003,3.778192e+000
2.755828e+003,3.508899e+000
2.756792e+003,1.877301e+000
2.757756e+003,3.312164e-001
2.758720e+003,1.877875e+000
2.759685e+003,4.915106e+000
2.760649e+003,5.590857e+000
2.761613e+003,4.372674e+000
2.762577e+003,2.647803e+000
2.763542e+003,5.475281e-001
2.764506e+003,-6.671936e-001
2.765470e+003,-1.036398e+000
2.766434e+003,-4.780945e-001
2.767398e+003,6.014038e-001
2.768363e+003,1.140378e+000
2.769327e+003,1.254190e+000
2.770291e+003,1.630646e+000
2.771255e+003,2.049548e+000
2.772219e+003,1.121426e+000
2.773184e+003,-5.372680e-001
2.774148e+003,1.038477e+000
2.775112e+003,5.455731e+000
2.776076e+003,5.879437e+000
2.777041e+003,2.240997e+000
2.778005e+003,1.098978e+000
2.778969e+003,2.070062e+000
2.779933e+003,3.348193e+000
2.780898e+003,4.410547e+000
2.781862e+003,4.081305e+000
2.782826e+003,2.895227e+000
2.783790e+003,2.744153e+000
2.784755e+003,3.517053e+000
2.785719e+003,3.171936e+000
2.786683e+003,1.499841e+000
2.787647e+003,1.638483e+000
2.788612e+003,3.960028e+000
2.789576e+003,4.261255e+000
2.790540e+003,2.657471e+000
2.791504e+003,2.334003e+000
2.792469e+003,3.182642e+000
2.793433e+003,3.453033e+000
2.794397e+003,3.161108e+000
2.795361e+003,3.557751e+000
2.796325e+003,4.481036e+000
2.797290e+003,4.346484e+000
2.798254e+003,2.971625e+000
2.799218e+003,2.052741e+000
2.800182e+003,1.654852e+000
2.801146e+003,2.343701e+000
2.802111e+003,4.402472e+000
2.803075e+003,4.767743e+000
2.804039e+003,3.479547e+000
2.805003e+003,2.838049e+000
2.805968e+003,2.943353e+000
2.806932e+003,3.039899e+000
2.807896e+003,3.159894e+000
2.808860e+003,4.101087e+000
2.809825e+003,5.724799e+000
2.810789e+003,5.673535e+000
2.811753e+003,3.018579e+000
2.812717e+003,1.779047e+000
2.813682e+003,2.199567e+000
2.814646e+003,3.099908e+000
2.815610e+003,4.435608e+000
2.816574e+003,4.914966e+000
2.817539e+003,4.580200e+000
2.818503e+003,4.529382e+000
2.819467e+003,4.667163e+000
2.820431e+003,3.492743e+000
2.821396e+003,1.264322e+000
2.822360e+003,1.125436e+000
2.823324e+003,3.978784e+000
2.824288e+003,6.024762e+000
2.825252e+003,7.104407e+000
2.826217e+003,6.894379e+000
2.827181e+003,5.381616e+000
2.828145e+003,4.433899e+000
2.829109e+003,4.078839e+000
2.830073e+003,3.517267e+000
2.831038e+003,2.750482e+000
2.832002e+003,1.969733e+000
2.832966e+003,1.527655e+000
2.833930e+003,2.989685e+000
2.834895e+003,6.661688e+000
2.835859e+003,7.656299e+000
2.836823e+003,4.967755e+000
2.837787e+003,3.165204e+000
2.838752e+003,2.239600e+000
2.839716e+003,2.892554e+000
2.840680e+003,4.870984e+000
2.841644e+003,6.702447e+000
2.842609e+003,7.877027e+000
2.843573e+003,7.539538e+000
2.844537e+003,6.028491e+000
2.845501e+003,4.642059e+000
2.846466e+003,3.717279e+000
2.847430e+003,4.172766e+000
2.848394e+003,6.401752e+000
2.849358e+003,6.360816e+000
2.850323e+003,3.837158e+000
2.851287e+003,4.393500e+000
2.852251e+003,7.432391e+000
2.853215e+003,7.651654e+000
2.854179e+003,5.578241e+000
2.855144e+003,5.123480e+000
2.856108e+003,6.079065e+000
2.857072e+003,5.138165e+000
2.858036e+003,2.294257e+000
2.859000e+003,1.677594e+000
2.859965e+003,3.534570e+000
2.860929e+003,5.495709e+000
2.861893e+003,7.542633e+000
2.862857e+003,7.744513e+000
2.863822e+003,6.609857e+000
2.864786e+003,6.332105e+000
2.865750e+003,6.869104e+000
2.866714e+003,8.049871e+000
2.867679e+003,9.039637e+000
2.868643e+003,7.468671e+000
2.869607e+003,4.223432e+000
2.870571e+003,4.395545e+000
2.871536e+003,7.591058e+000
2.872500e+003,9.540075e+000
2.873464e+003,1.017005e+001
2.874428e+003,8.614276e+000
2.875393e+003,5.696588e+000
2.876357e+003,3.930286e+000
2.877321e+003,3.301898e+000
2.878285e+003,3.550629e+000
2.879250e+003,4.292657e+000
2.880214e+003,5.044946e+000
2.881178e+003,5.811023e+000
2.882142e+003,6.956598e+000
2.883106e+003,8.186396e+000
2.884071e+003,8.149572e+000
2.885035e+003,7.144568e+000
2.885999e+003,6.747815e+000
2.886963e+003,6.712671e+000
2.887927e+003,6.726550e+000
2.888892e+003,6.623260e+000
2.889856e+003,5.526605e+000
2.890820e+003,4.585486e+000
2.891784e+003,6.143164e+000
2.892749e+003,8.614240e+000
2.893713e+003,9.337622e+000
2.894677e+003,8.931354e+000
2.895641e+003,8.738489e+000
2.896606e+003,8.553473e+000
2.897570e+003,7.735175e+000
2.898534e+003,6.702594e+000
2.899498e+003,5.893921e+000
2.900463e+003,5.450665e+000
2.901427e+003,5.884637e+000
2.902391e+003,6.427435e+000
2.903355e+003,6.234247e+000
2.904320e+003,5.649194e+000
2.905284e+003,4.916480e+000
2.906248e+003,4.315351e+000
2.907212e+003,4.280939e+000
2.908177e+003,4.815991e+000
2.909141e+003,6.430048e+000
2.910105e+003,7.886316e+000
2.911069e+003,7.773084e+000
2.912033e+003,7.033844e+000
2.912998e+003,6.002197e+000
2.913962e+003,5.269660e+000
2.914926e+003,5.239868e+000
2.915890e+003,5.196118e+000
2.916854e+003,4.615961e+000
2.917819e+003,3.763971e+000
2.918783e+003,2.729272e+000
2.919747e+003,2.548444e+000
2.920711e+003,5.523084e+000
2.921676e+003,7.980255e+000
2.922640e+003,7.340027e+000
2.923604e+003,5.881842e+000
2.924568e+003,3.599377e+000
2.925533e+003,3.182489e+000
2.926497e+003,5.795362e+000
2.927461e+003,8.110321e+000
2.928425e+003,8.644196e+000
2.929390e+003,2.424078e+000
2.930354e+003,-1.600041e+001
2.931318e+003,-2.664314e+001
2.932282e+003,-9.731314e+000
2.933247e+003,4.415442e+000
2.934211e+003,7.751776e+000
2.935175e+003,9.033422e+000
2.936139e+003,8.125513e+000
2.937104e+003,7.322162e+000
2.938068e+003,7.244147e+000
2.939032e+003,6.985431e+000
2.939996e+003,6.254315e+000
2.940960e+003,5.195691e+000
2.941925e+003,3.896497e+000
2.942889e+003,4.045038e+000
2.943853e+003,7.241675e+000
2.944817e+003,8.607501e+000
2.945781e+003,7.862933e+000
2.946746e+003,5.630835e+000
2.947710e+003,2.245438e+000
2.948674e+003,1.712189e+000
2.949638e+003,3.648773e+000
2.950603e+003,4.225555e+000
2.951567e+003,3.271661e+000
2.952531e+003,3.388470e+000
2.953495e+003,4.899182e+000
2.954460e+003,5.851703e+000
2.955424e+003,6.196216e+000
2.956388e+003,5.124701e+000
2.957352e+003,2.904260e+000
2.958317e+003,2.252933e+000
2.959281e+003,2.971344e+000
2.960245e+003,5.139557e+000
2.961209e+003,7.395282e+000
2.962174e+003,7.161054e+000
2.963138e+003,5.190417e+000
2.964102e+003,3.192676e+000
2.965066e+003,1.784427e+000
2.966031e+003,2.265881e+000
2.966995e+003,4.069556e+000
2.967959e+003,5.813581e+000
2.968923e+003,7.093982e+000
2.969887e+003,6.798486e+000
2.970852e+003,5.830005e+000
2.971816e+003,5.042725e+000
2.972780e+003,4.484283e+000
2.973744e+003,4.166125e+000
2.974708e+003,4.000696e+000
2.975673e+003,3.907367e+000
2.976637e+003,4.048327e+000
2.977601e+003,4.681799e+000
2.978565e+003,5.167279e+000
2.979530e+003,4.524329e+000
2.980494e+003,3.600494e+000
2.981458e+003,2.979218e+000
2.982422e+003,2.474051e+000
2.983387e+003,2.011819e+000
2.984351e+003,1.548883e+000
2.985315e+003,1.147012e+000
2.986279e+003,2.422302e-001
2.987244e+003,-1.402982e+000
2.988208e+003,-2.234091e+000
2.989172e+003,-1.245908e+000
2.990136e+003,6.750488e-003
2.991101e+003,8.320953e-001
2.992065e+003,1.434915e+000
2.993029e+003,1.761771e+000
2.993993e+003,2.126981e+000
2.994958e+003,2.551071e+000
2.995922e+003,2.310523e+000
2.996886e+003,1.486960e+000
2.997850e+003,1.379309e+000
2.998814e+003,2.155743e+000
2.999779e+003,2.761301e+000
3.000743e+003,2.883978e+000
3.001707e+003,3.016687e+000
3.002671e+003,3.344128e+000
3.003635e+003,2.698148e+000
3.004600e+003,1.163196e+000
3.005564e+003,5.577484e-001
3.006528e+003,6.743225e-001
3.007492e+003,4.521515e-001
3.008457e+003,2.101654e-001
3.009421e+003,1.107471e+000
3.010385e+003,2.691324e+000
3.011349e+003,3.889575e+000
3.012314e+003,4.258563e+000
3.013278e+003,2.189410e+000
3.014242e+003,-1.039951e+000
3.015206e+003,-1.099826e+000
3.016171e+003,5.532624e-001
3.017135e+003,2.395224e+000
3.018099e+003,3.514032e+000
3.019063e+003,2.288156e+000
3.020028e+003,8.828918e-001
3.020992e+003,1.341962e+000
3.021956e+003,1.553323e+000
3.022920e+003,-4.761810e-001
3.023885e+003,-2.238107e+000
3.024849e+003,-6.582519e-001
3.025813e+003,1.340277e+000
3.026777e+003,1.187729e+000
3.027741e+003,1.760376e-001
3.028706e+003,-2.044882e+000
3.029670e+003,-3.139551e+000
3.030634e+003,-2.334399e+000
3.031598e+003,-1.722311e+000
3.032563e+003,-1.959222e+000
3.033527e+003,-1.239835e+000
3.034491e+003,1.069495e+000
3.035455e+003,2.723328e+000
3.036420e+003,2.656930e+000
3.037384e+003,2.443030e+000
3.038348e+003,2.248187e+000
3.039312e+003,2.166904e+000
3.040277e+003,2.223630e+000
3.041241e+003,2.946994e+000
3.042205e+003,3.913806e+000
3.043169e+003,3.026681e+000
3.044134e+003,8.399414e-001
3.045098e+003,-3.711120e-001
3.046062e+003,-4.024567e-001
3.047026e+003,-8.859558e-002
3.047990e+003,4.867310e-001
3.048955e+003,1.164465e+000
3.049919e+003,1.714392e+000
3.050883e+003,4.781433e-001
3.051847e+003,-1.020621e+000
3.052812e+003,5.358124e-001
3.053776e+003,2.678992e+000
3.054740e+003,1.616519e+000
3.055704e+003,2.472320e-001
3.056668e+003,1.599979e+000
3.057633e+003,3.397629e+000
3.058597e+003,3.065976e+000
3.059561e+003,2.170547e+000
3.060525e+003,2.848459e+000
3.061490e+003,3.519592e+000
3.062454e+003,2.816754e+000
3.063418e+003,2.024951e+000
3.064382e+003,1.399881e+000
3.065347e+003,1.316003e+000
3.066311e+003,1.907596e+000
3.067275e+003,2.828375e+000
3.068239e+003,3.803650e+000
3.069204e+003,3.466486e+000
3.070168e+003,1.151392e+000
3.071132e+003,-3.308807e-001
3.072096e+003,3.400391e-001
3.073061e+003,1.017908e+000
3.074025e+003,1.736639e+000
3.074989e+003,2.161484e+000
3.075953e+003,2.162448e+000
3.076917e+003,1.204428e+000
3.077882e+003,-3.190277e-001
3.078846e+003,-1.306631e+000
3.079810e+003,-1.742236e+000
3.080774e+003,-2.362732e+000
3.081739e+003,-2.949597e+000
3.082703e+003,-2.579175e+000
3.083667e+003,-1.669653e+000
3.084631e+003,-1.704001e+000
3.085595e+003,-1.962793e+000
3.086560e+003,-8.472534e-001
3.087524e+003,2.018707e-001
3.088488e+003,-9.102112e-001
3.089452e+003,-1.878839e+000
3.090417e+003,-9.629456e-001
3.091381e+003,-3.380127e-001
3.092345e+003,-1.730090e+000
3.093309e+003,-3.351953e+000
3.094274e+003,-3.678516e+000
3.095238e+003,-3.385156e+000
3.096202e+003,-2.740744e+000
3.097166e+003,-1.571353e+000
3.098131e+003,6.133972e-001
3.099095e+003,9.809845e-001
3.100059e+003,-8.428650e-001
3.101023e+003,-2.867969e+000
3.101988e+003,-4.223276e+000
3.102952e+003,-3.468689e+000
3.103916e+003,-6.256561e-001
3.104880e+003,7.901031e-001
3.105844e+003,3.662964e-001
3.106809e+003,-1.080673e+000
3.107773e+003,-3.440503e+000
3.108737e+003,-5.885941e+000
3.109701e+003,-7.862002e+000
3.110666e+003,-7.623792e+000
3.111630e+003,-6.279101e+000
3.112594e+003,-5.319751e+000
3.113558e+003,-5.034030e+000
3.114522e+003,-5.737277e+000
3.115487e+003,-6.433923e+000
3.116451e+003,-5.597321e+000
3.117415e+003,-4.234003e+000
3.118379e+003,-3.404440e+000
3.119344e+003,-3.293256e+000
3.120308e+003,-4.677741e+000
3.121272e+003,-5.948676e+000
3.122236e+003,-6.628989e+000
3.123201e+003,-6.530240e+000
3.124165e+003,-5.624582e+000
3.125129e+003,-4.959177e+000
3.126093e+003,-4.940979e+000
3.127058e+003,-4.857803e+000
3.128022e+003,-4.426880e+000
3.128986e+003,-3.612933e+000
3.129950e+003,-2.175659e+000
3.130915e+003,-1.331516e+000
3.131879e+003,-1.111218e+000
3.132843e+003,-2.569379e+000
3.133807e+003,-4.749585e+000
3.134771e+003,-4.584378e+000
3.135736e+003,-3.116348e+000
3.136700e+003,-3.394754e+000
3.137664e+003,-4.741599e+000
3.138628e+003,-5.609686e+000
3.139593e+003,-5.974631e+000
3.140557e+003,-5.547775e+000
3.141521e+003,-4.840064e+000
3.142485e+003,-4.691278e+000
3.143449e+003,-4.485791e+000
3.144414e+003,-2.926800e+000
3.145378e+003,-2.741104e+000
3.146342e+003,-5.394934e+000
3.147306e+003,-7.013461e+000
3.148271e+003,-5.839334e+000
3.149235e+003,-4.666779e+000
3.150199e+003,-5.073489e+000
3.151163e+003,-5.461164e+000
3.152128e+003,-4.920746e+000
3.153092e+003,-4.814111e+000
3.154056e+003,-5.281659e+000
3.155020e+003,-5.244504e+000
3.155985e+003,-4.779266e+000
3.156949e+003,-4.267606e+000
3.157913e+003,-3.994238e+000
3.158877e+003,-5.017774e+000
3.159842e+003,-6.523376e+000
3.160806e+003,-5.969110e+000
3.161770e+003,-4.177240e+000
3.162734e+003,-3.306616e+000
3.163698e+003,-3.010108e+000
3.164663e+003,-2.442477e+000
3.165627e+003,-2.228439e+000
3.166591e+003,-3.741336e+000
3.167555e+003,-4.635922e+000
3.168520e+003,-3.252515e+000
3.169484e+003,-2.518750e+000
3.170448e+003,-3.795590e+000
3.171412e+003,-4.788882e+000
3.172376e+003,-4.160806e+000
3.173341e+003,-3.599445e+000
3.174305e+003,-3.988248e+000
3.175269e+003,-4.585904e+000
3.176233e+003,-5.453229e+000
3.177198e+003,-5.362604e+000
3.178162e+003,-4.495410e+000
3.179126e+003,-4.343680e+000
3.180090e+003,-4.867685e+000
3.181055e+003,-5.769071e+000
3.182019e+003,-6.554190e+000
3.182983e+003,-6.061990e+000
3.183947e+003,-4.878479e+000
3.184912e+003,-4.256186e+000
3.185876e+003,-4.273514e+000
3.186840e+003,-5.698447e+000
3.187804e+003,-7.160501e+000
3.188769e+003,-7.102432e+000
3.189733e+003,-6.559616e+000
3.190697e+003,-6.055102e+000
3.191661e+003,-5.651217e+000
3.192625e+003,-5.357324e+000
3.193590e+003,-5.338006e+000
3.194554e+003,-5.663458e+000
3.195518e+003,-6.000305e+000
3.196482e+003,-6.313184e+000
3.197447e+003,-5.937418e+000
3.198411e+003,-4.724625e+000
3.199375e+003,-3.825992e+000
3.200339e+003,-3.323944e+000
3.201303e+003,-3.571768e+000
3.202268e+003,-4.167850e+000
3.203232e+003,-3.929810e+000
3.204196e+003,-3.571591e+000
3.205160e+003,-4.991300e+000
3.206125e+003,-6.904227e+000
3.207089e+003,-6.880374e+000
3.208053e+003,-5.971170e+000
3.209017e+003,-5.686627e+000
3.209982e+003,-5.847992e+000
3.210946e+003,-7.208295e+000
3.211910e+003,-7.199692e+000
3.212874e+003,-4.552499e+000
3.213839e+003,-2.854834e+000
3.214803e+003,-3.242902e+000
3.215767e+003,-3.927374e+000
3.216731e+003,-4.173593e+000
3.217696e+003,-4.907571e+000
3.218660e+003,-6.708865e+000
3.219624e+003,-6.654047e+000
3.220588e+003,-4.653897e+000
3.221552e+003,-4.024231e+000
3.222517e+003,-4.507736e+000
3.223481e+003,-5.550278e+000
3.224445e+003,-6.725913e+000
3.225409e+003,-7.636749e+000
3.226374e+003,-7.939273e+000
3.227338e+003,-7.317740e+000
3.228302e+003,-6.170749e+000
3.229266e+003,-4.819491e+000
3.230230e+003,-3.942389e+000
3.231195e+003,-4.399447e+000
3.232159e+003,-5.329776e+000
3.233123e+003,-7.308850e+000
3.234087e+003,-7.232013e+000
3.235052e+003,-4.598175e+000
3.236016e+003,-3.395612e+000
3.236980e+003,-4.276538e+000
3.237944e+003,-5.532159e+000
3.238909e+003,-6.477618e+000
3.239873e+003,-5.897738e+000
3.240837e+003,-4.096454e+000
3.241801e+003,-3.568567e+000
3.242766e+003,-4.058093e+000
3.243730e+003,-4.761444e+000
3.244694e+003,-5.505020e+000
3.245658e+003,-6.083228e+000
3.246623e+003,-6.613715e+000
3.247587e+003,-7.324768e+000
3.248551e+003,-7.617648e+000
3.249515e+003,-7.104886e+000
3.250479e+003,-6.154761e+000
3.251444e+003,-4.938409e+000
3.252408e+003,-4.211230e+000
3.253372e+003,-4.627130e+000
3.254336e+003,-5.296777e+000
3.255301e+003,-6.254663e+000
3.256265e+003,-5.152087e+000
3.257229e+003,-2.731525e+000
3.258193e+003,-3.369379e+000
3.259157e+003,-6.033856e+000
3.260122e+003,-6.507193e+000
3.261086e+003,-5.044739e+000
3.262050e+003,-2.953308e+000
3.263014e+003,-1.301282e+000
3.263979e+003,-3.256168e+000
3.264943e+003,-6.101682e+000
3.265907e+003,-6.991061e+000
3.266871e+003,-6.731436e+000
3.267836e+003,-5.586670e+000
3.268800e+003,-3.789191e+000
3.269764e+003,-1.421704e+000
3.270728e+003,-9.967133e-001
3.271693e+003,-3.223141e+000
3.272657e+003,-6.088568e+000
3.273621e+003,-8.964465e+000
3.274585e+003,-9.284863e+000
3.275550e+003,-6.918646e+000
3.276514e+003,-4.773923e+000
3.277478e+003,-3.177872e+000
3.278442e+003,-3.594470e+000
3.279406e+003,-4.768085e+000
3.280371e+003,-4.766959e+000
3.281335e+003,-4.597748e+000
3.282299e+003,-5.340640e+000
3.283263e+003,-5.446704e+000
3.284228e+003,-3.324683e+000
3.285192e+003,-1.574130e+000
3.286156e+003,-3.156439e+000
3.287120e+003,-3.916739e+000
3.288084e+003,-2.500854e+000
3.289049e+003,-1.806601e+000
3.290013e+003,-2.078534e+000
3.290977e+003,-3.458035e+000
3.291941e+003,-5.168869e+000
3.292906e+003,-4.631009e+000
3.293870e+003,-2.508798e+000
3.294834e+003,-2.043503e+000
3.295798e+003,-2.794925e+000
3.296763e+003,-3.922327e+000
3.297727e+003,-4.962729e+000
3.298691e+003,-5.011703e+000
3.299655e+003,-4.711752e+000
3.300620e+003,-4.696707e+000
3.301584e+003,-4.129074e+000
3.302548e+003,-2.744437e+000
3.303512e+003,-1.379514e+000
3.304477e+003,-3.729065e-001
3.305441e+003,2.451843e-001
3.306405e+003,4.366791e-001
3.307369e+003,-1.193604e-001
3.308333e+003,-1.448703e+000
3.309298e+003,-1.860434e+000
3.310262e+003,-1.624240e+000
3.311226e+003,-1.520590e+000
3.312190e+003,-1.415469e+000
3.313155e+003,-8.488373e-001
3.314119e+003,-4.936249e-001
3.315083e+003,-9.133179e-001
3.316047e+003,-1.394760e+000
3.317011e+003,-1.352521e+000
3.317976e+003,-1.222812e+000
3.318940e+003,-1.153552e+000
3.319904e+003,-1.699246e+000
3.320868e+003,-3.308643e+000
3.321833e+003,-2.870172e+000
3.322797e+003,-6.435699e-001
3.323761e+003,6.559876e-001
3.324725e+003,9.289581e-001
3.325690e+003,9.652802e-001
3.326654e+003,8.919373e-001
3.327618e+003,6.417419e-001
3.328582e+003,4.666473e-001
3.329547e+003,1.068570e+000
3.330511e+003,1.689868e+000
3.331475e+003,1.683600e+000
3.332439e+003,8.167816e-001
3.333404e+003,-1.480789e+000
3.334368e+003,-2.479758e+000
3.335332e+003,-1.703952e+000
3.336296e+003,-9.991516e-001
3.337260e+003,-9.004334e-001
3.338225e+003,-9.247528e-001
3.339189e+003,-9.268951e-001
3.340153e+003,-7.845398e-001
3.341117e+003,-4.059936e-001
3.342082e+003,1.365106e+000
3.343046e+003,2.931906e+000
3.344010e+003,9.391540e-001
3.344974e+003,-1.304831e+000
3.345938e+003,-1.416782e+000
3.346903e+003,-3.503540e-001
3.347867e+003,1.416095e+000
3.348831e+003,3.229190e+000
3.349795e+003,4.755582e+000
3.350760e+003,4.451501e+000
3.351724e+003,6.752960e-001
3.352688e+003,-4.693268e-001
3.353652e+003,7.737427e-001
3.354617e+003,2.389090e+000
3.355581e+003,3.574970e+000
3.356545e+003,2.355002e+000
3.357509e+003,5.220795e-001
3.358474e+003,5.033447e-001
3.359438e+003,1.118991e+000
3.360402e+003,1.182425e+000
3.361366e+003,2.003607e+000
3.362331e+003,5.986166e+000
3.363295e+003,7.938049e+000
3.364259e+003,4.948770e+000
3.365223e+003,2.720151e+000
3.366188e+003,1.671994e+000
3.367152e+003,1.460547e+000
3.368116e+003,1.611938e+000
3.369080e+003,6.976288e-001
3.370044e+003,-3.609589e-001
3.371009e+003,1.042325e+000
3.371973e+003,3.429797e+000
3.372937e+003,4.061999e+000
3.373901e+003,3.698425e+000
3.374865e+003,2.688519e+000
3.375830e+003,1.924481e+000
3.376794e+003,1.785333e+000
3.377758e+003,1.852478e+000
3.378722e+003,1.998764e+000
3.379687e+003,1.711908e+000
3.380651e+003,1.227808e+000
3.381615e+003,2.533334e+000
3.382579e+003,5.382047e+000
3.383544e+003,6.615524e+000
3.384508e+003,6.498248e+000
3.385472e+003,5.366611e+000
3.386436e+003,4.241696e+000
3.387401e+003,4.497943e+000
3.388365e+003,5.056979e+000
3.389329e+003,5.422995e+000
3.390293e+003,5.355329e+000
3.391258e+003,4.831149e+000
3.392222e+003,4.658914e+000
3.393186e+003,5.186844e+000
3.394150e+003,6.032602e+000
3.395115e+003,7.122922e+000
3.396079e+003,7.239285e+000
3.397043e+003,6.563696e+000
3.398007e+003,4.639661e+000
3.398971e+003,3.432378e+000
3.399936e+003,6.823728e+000
3.400900e+003,1.013680e+001
3.401864e+003,1.052468e+001
3.402828e+003,9.442279e+000
3.403792e+003,7.850863e+000
3.404757e+003,6.303943e+000
3.405721e+003,4.725540e+000
3.406685e+003,4.588107e+000
3.407649e+003,5.880923e+000
3.408614e+003,7.718475e+000
3.409578e+003,9.452621e+000
3.410542e+003,9.447922e+000
3.411506e+003,8.413748e+000
3.412471e+003,7.292270e+000
3.413435e+003,6.882675e+000
3.414399e+003,8.006647e+000
3.415363e+003,9.583252e+000
3.416328e+003,1.128282e+001
3.417292e+003,1.107071e+001
3.418256e+003,7.087726e+000
3.419220e+003,5.892633e+000
3.420185e+003,7.581714e+000
3.421149e+003,9.594629e+000
3.422113e+003,1.108163e+001
3.423077e+003,1.070693e+001
3.424042e+003,9.527738e+000
3.425006e+003,9.611997e+000
3.425970e+003,1.014062e+001
3.426934e+003,9.588095e+000
