7.140112e+001,5.370913e+001
7.236536e+001,5.438340e+001
7.332959e+001,5.807350e+001
7.429382e+001,5.951767e+001
7.525806e+001,5.923645e+001
7.622229e+001,5.700849e+001
7.718652e+001,5.169651e+001
7.815076e+001,4.083785e+001
7.911499e+001,3.524392e+001
8.007922e+001,3.428643e+001
8.104346e+001,3.705437e+001
8.200769e+001,4.349963e+001
8.297192e+001,5.772937e+001
8.393616e+001,6.916058e+001
8.490039e+001,7.544298e+001
8.586462e+001,7.711031e+001
8.682886e+001,7.559699e+001
8.779310e+001,7.072259e+001
8.875733e+001,6.431991e+001
8.972157e+001,5.665653e+001
9.068580e+001,4.821063e+001
9.165003e+001,3.968236e+001
9.261427e+001,3.464935e+001
9.357850e+001,3.209520e+001
9.454273e+001,3.175225e+001
9.550697e+001,3.380220e+001
9.647120e+001,3.985308e+001
9.743543e+001,4.229699e+001
9.839967e+001,4.008979e+001
9.936390e+001,3.558805e+001
1.003281e+002,3.137738e+001
1.012924e+002,2.703460e+001
1.022566e+002,2.408637e+001
1.032208e+002,2.327770e+001
1.041851e+002,2.408854e+001
1.051493e+002,2.530114e+001
1.061135e+002,2.669384e+001
1.070778e+002,2.738852e+001
1.080420e+002,2.668080e+001
1.090062e+002,2.448574e+001
1.099705e+002,2.142745e+001
1.109347e+002,1.830466e+001
1.118989e+002,1.549481e+001
1.128632e+002,1.425529e+001
1.138274e+002,1.553705e+001
1.147916e+002,1.991838e+001
1.157559e+002,2.221035e+001
1.167201e+002,2.231004e+001
1.176843e+002,2.116610e+001
1.186486e+002,1.974744e+001
1.196128e+002,1.676273e+001
1.205770e+002,1.553180e+001
1.215413e+002,1.788792e+001
1.225055e+002,2.214036e+001
1.234697e+002,2.462402e+001
1.244340e+002,2.071879e+001
1.253982e+002,1.610127e+001
1.263624e+002,1.154208e+001
1.273267e+002,7.792328e+000
1.282909e+002,5.822742e+000
1.292551e+002,1.010986e+001
1.302194e+002,1.646197e+001
1.311836e+002,2.138450e+001
1.321478e+002,2.261318e+001
1.331121e+002,1.995263e+001
1.340763e+002,1.596517e+001
1.350405e+002,1.033749e+001
1.360048e+002,5.332916e+000
1.369690e+002,3.429480e+000
1.379332e+002,7.053662e+000
1.388975e+002,1.044841e+001
1.398617e+002,1.392471e+001
1.408259e+002,1.698619e+001
1.417902e+002,1.890181e+001
1.427544e+002,1.900135e+001
1.437186e+002,1.811274e+001
1.446829e+002,1.588950e+001
1.456471e+002,1.273497e+001
1.466113e+002,9.578815e+000
1.475756e+002,6.632611e+000
1.485398e+002,4.985785e+000
1.495040e+002,6.794080e+000
1.504683e+002,1.241707e+001
1.514325e+002,2.035502e+001
1.523967e+002,2.122291e+001
1.533610e+002,1.669959e+001
1.543252e+002,1.163536e+001
1.552894e+002,9.610705e+000
1.562537e+002,1.215523e+001
1.572179e+002,1.288868e+001
1.581821e+002,9.881579e+000
1.591464e+002,6.623572e+000
1.601106e+002,7.084210e+000
1.610748e+002,1.585101e+001
1.620391e+002,2.187423e+001
1.630033e+002,2.198123e+001
1.639676e+002,1.819081e+001
1.649318e+002,1.367559e+001
1.658960e+002,1.069290e+001
1.668603e+002,8.918207e+000
1.678245e+002,8.457214e+000
1.687887e+002,9.062762e+000
1.697530e+002,1.024560e+001
1.707172e+002,1.084208e+001
1.716814e+002,1.098388e+001
1.726457e+002,1.092535e+001
1.736099e+002,1.075015e+001
1.745741e+002,1.045681e+001
1.755384e+002,9.679358e+000
1.765026e+002,7.926050e+000
1.774668e+002,6.358099e+000
1.784311e+002,5.858887e+000
1.793953e+002,7.152204e+000
1.803595e+002,7.333191e+000
1.813238e+002,4.756042e+000
1.822880e+002,1.806793e+000
1.832522e+002,6.397400e-001
1.842165e+002,3.375891e+000
1.851807e+002,6.041754e+000
1.861449e+002,5.301172e+000
1.871092e+002,2.686224e+000
1.880734e+002,2.266541e-001
1.890376e+002,7.833984e-001
1.900019e+002,3.452686e+000
1.909661e+002,5.248797e+000
1.919303e+002,5.987287e+000
1.928946e+002,6.108533e+000
1.938588e+002,7.007043e+000
1.948230e+002,8.840094e+000
1.957873e+002,1.115384e+001
1.967515e+002,1.361495e+001
1.977157e+002,1.630955e+001
1.986800e+002,2.081309e+001
1.996442e+002,2.601718e+001
2.006084e+002,3.380466e+001
2.015727e+002,4.870206e+001
2.025369e+002,7.167249e+001
2.035011e+002,8.740987e+001
2.044654e+002,8.091181e+001
2.054296e+002,6.678758e+001
2.063938e+002,5.180513e+001
2.073581e+002,4.060957e+001
2.083223e+002,3.384326e+001
2.092865e+002,3.203352e+001
2.102508e+002,3.405022e+001
2.112150e+002,3.906023e+001
2.121792e+002,4.632619e+001
2.131435e+002,5.685979e+001
2.141077e+002,6.270007e+001
2.150719e+002,6.241679e+001
2.160362e+002,5.901758e+001
2.170004e+002,5.675729e+001
2.179646e+002,5.558936e+001
2.189289e+002,5.608870e+001
2.198931e+002,5.705912e+001
2.208573e+002,5.957709e+001
2.218216e+002,6.596577e+001
2.227858e+002,8.314299e+001
2.237500e+002,9.902221e+001
2.247143e+002,1.109460e+002
2.256785e+002,1.174398e+002
2.266427e+002,1.171839e+002
2.276070e+002,1.024594e+002
2.285712e+002,8.059152e+001
2.295354e+002,6.034475e+001
2.304997e+002,4.442051e+001
2.314639e+002,3.260903e+001
2.324281e+002,2.464441e+001
2.333924e+002,2.097478e+001
2.343566e+002,1.810646e+001
2.353208e+002,1.470753e+001
2.362851e+002,1.055774e+001
2.372493e+002,7.328735e+000
2.382135e+002,5.264264e+000
2.391778e+002,3.656720e+000
2.401420e+002,2.228955e+000
2.411062e+002,8.992432e-001
2.420705e+002,-2.253662e-001
2.430347e+002,-1.321905e+000
2.439989e+002,-2.189203e+000
2.449632e+002,-2.519098e+000
2.459274e+002,-2.033038e+000
2.468916e+002,-1.190814e+000
2.478559e+002,-1.078949e+000
2.488201e+002,-1.469763e+000
2.497843e+002,-1.964337e+000
2.507486e+002,-2.095319e+000
2.517128e+002,-1.715411e+000
2.526770e+002,-1.291235e+000
2.536413e+002,-9.641296e-001
2.546055e+002,-6.315308e-001
2.555697e+002,-9.091797e-002
2.565340e+002,9.113342e-001
2.574982e+002,1.842474e+000
2.584625e+002,3.090979e+000
2.594267e+002,4.284216e+000
2.603909e+002,4.719018e+000
2.613552e+002,3.182690e+000
2.623194e+002,1.475171e+000
2.632836e+002,2.901001e-001
2.642479e+002,-3.242005e-001
2.652121e+002,-5.085694e-001
2.661763e+002,-2.463440e-001
2.671406e+002,1.951843e-001
2.681048e+002,3.576416e-001
2.690690e+002,1.647156e-001
2.700333e+002,-2.577026e-001
2.709975e+002,-3.571045e-001
2.719617e+002,3.756714e-002
2.729260e+002,2.712097e-001
2.738902e+002,6.249390e-002
2.748544e+002,-5.801392e-001
2.758187e+002,-8.839905e-001
2.767829e+002,-4.119080e-001
2.777471e+002,-1.100708e-001
2.787114e+002,-1.212402e-001
2.796756e+002,-4.695068e-001
2.806398e+002,-1.243176e+000
2.816041e+002,-3.509955e+000
2.825683e+002,-5.611908e+000
2.835325e+002,-6.416925e+000
2.844968e+002,-5.514771e+000
2.854610e+002,-3.770618e+000
2.864252e+002,-3.557495e+000
2.873895e+002,-4.051507e+000
2.883537e+002,-3.800458e+000
2.893179e+002,-1.851080e+000
2.902822e+002,1.978552e+000
2.912464e+002,3.859528e+000
2.922106e+002,3.849524e+000
2.931749e+002,2.807489e+000
2.941391e+002,8.626404e-001
2.951033e+002,-2.745972e+000
2.960676e+002,-4.843787e+000
2.970318e+002,-4.682269e+000
2.979960e+002,-3.631641e+000
2.989603e+002,-2.542206e+000
2.999245e+002,-1.782159e+000
3.008887e+002,-1.110852e+000
3.018530e+002,-5.883789e-002
3.028172e+002,9.344848e-001
3.037814e+002,1.374841e+000
3.047457e+002,8.327515e-001
3.057099e+002,-3.310791e-001
3.066741e+002,-9.840698e-001
3.076384e+002,-1.241443e+000
3.086026e+002,-1.323889e+000
3.095668e+002,-1.461121e+000
3.105311e+002,-1.617322e+000
3.114953e+002,-1.670862e+000
3.124595e+002,-1.712854e+000
3.134238e+002,-1.694397e+000
3.143880e+002,-1.521686e+000
3.153522e+002,-1.021698e+000
3.163165e+002,-7.885620e-001
3.172807e+002,-1.318188e+000
3.182449e+002,-1.849121e+000
3.192092e+002,-1.374097e+000
3.201734e+002,1.308978e+000
3.211376e+002,3.853766e+000
3.221019e+002,4.448554e+000
3.230661e+002,3.698480e+000
3.240303e+002,2.503125e+000
3.249946e+002,1.886511e+000
3.259588e+002,1.796063e+000
3.269230e+002,1.590240e+000
3.278873e+002,1.263190e+000
3.288515e+002,8.456299e-001
3.298157e+002,3.749084e-001
3.307800e+002,-5.651184e-001
3.317442e+002,-4.567322e-001
3.327084e+002,9.986206e-001
3.336727e+002,3.286829e+000
3.346369e+002,5.624829e+000
3.356011e+002,8.286047e+000
3.365654e+002,1.037663e+001
3.375296e+002,1.121810e+001
3.384938e+002,1.150145e+001
3.394581e+002,1.227440e+001
3.404223e+002,1.462469e+001
3.413865e+002,1.754320e+001
3.423508e+002,1.968109e+001
3.433150e+002,2.144656e+001
3.442792e+002,2.377801e+001
3.452435e+002,2.821011e+001
3.462077e+002,3.497454e+001
3.471719e+002,4.168416e+001
3.481362e+002,4.752669e+001
3.491004e+002,5.426400e+001
3.500646e+002,6.582294e+001
3.510289e+002,8.124432e+001
3.519931e+002,1.052861e+002
3.529573e+002,1.404612e+002
3.539216e+002,1.835826e+002
3.548858e+002,2.312007e+002
3.558500e+002,2.981538e+002
3.568143e+002,3.447591e+002
3.577785e+002,3.563187e+002
3.587427e+002,3.392296e+002
3.597070e+002,3.042129e+002
3.606712e+002,2.546204e+002
3.616354e+002,2.011713e+002
3.625997e+002,1.565162e+002
3.635639e+002,1.213987e+002
3.645281e+002,9.458353e+001
3.654924e+002,7.370729e+001
3.664566e+002,6.039368e+001
3.674208e+002,4.961274e+001
3.683851e+002,4.170003e+001
3.693493e+002,3.615590e+001
3.703135e+002,3.210760e+001
3.712778e+002,3.162610e+001
3.722420e+002,3.013357e+001
3.732062e+002,2.624773e+001
3.741705e+002,2.142505e+001
3.751347e+002,1.799274e+001
3.760989e+002,1.786920e+001
3.770632e+002,1.848638e+001
3.780274e+002,1.853146e+001
3.789916e+002,1.810601e+001
3.799559e+002,1.756414e+001
3.809201e+002,1.732510e+001
3.818844e+002,1.732521e+001
3.828486e+002,1.725618e+001
3.838128e+002,1.711557e+001
3.847771e+002,1.687259e+001
3.857413e+002,1.646611e+001
3.867055e+002,1.573917e+001
3.876698e+002,1.544413e+001
3.886340e+002,1.524438e+001
3.895982e+002,1.547722e+001
3.905625e+002,1.683836e+001
3.915267e+002,2.068380e+001
3.924909e+002,2.335239e+001
3.934552e+002,2.434180e+001
3.944194e+002,2.400162e+001
3.953836e+002,2.237576e+001
3.963479e+002,1.884229e+001
3.973121e+002,1.571944e+001
3.982763e+002,1.550801e+001
3.992406e+002,1.690308e+001
4.002048e+002,1.791273e+001
4.011690e+002,1.656354e+001
4.021333e+002,1.355259e+001
4.030975e+002,1.398078e+001
4.040617e+002,1.778626e+001
4.050260e+002,2.268407e+001
4.059902e+002,2.641745e+001
4.069544e+002,2.849775e+001
4.079187e+002,3.049360e+001
4.088829e+002,3.161456e+001
4.098471e+002,3.317635e+001
4.108114e+002,3.606760e+001
4.117756e+002,4.046388e+001
4.127398e+002,4.644051e+001
4.137041e+002,5.669975e+001
4.146683e+002,6.646494e+001
4.156325e+002,7.208302e+001
4.165968e+002,7.163878e+001
4.175610e+002,6.738428e+001
4.185252e+002,6.191440e+001
4.194895e+002,5.614827e+001
4.204537e+002,5.121346e+001
4.214179e+002,4.784548e+001
4.223822e+002,4.601349e+001
4.233464e+002,4.504542e+001
4.243106e+002,4.416921e+001
4.252749e+002,4.502001e+001
4.262391e+002,4.845983e+001
4.272033e+002,5.466523e+001
4.281676e+002,6.275989e+001
4.291318e+002,7.247839e+001
4.300960e+002,8.410855e+001
4.310603e+002,9.709087e+001
4.320245e+002,1.115199e+002
4.329887e+002,1.293248e+002
4.339530e+002,1.539141e+002
4.349172e+002,1.816347e+002
4.358814e+002,2.156264e+002
4.368457e+002,2.533662e+002
4.378099e+002,2.873049e+002
4.387741e+002,3.011044e+002
4.397384e+002,2.977165e+002
4.407026e+002,2.850466e+002
4.416668e+002,2.637720e+002
4.426311e+002,2.364158e+002
4.435953e+002,2.114831e+002
4.445595e+002,1.890155e+002
4.455238e+002,1.696241e+002
4.464880e+002,1.531720e+002
4.474522e+002,1.398287e+002
4.484165e+002,1.306589e+002
4.493807e+002,1.305477e+002
4.503449e+002,1.288402e+002
4.513092e+002,1.219505e+002
4.522734e+002,1.114735e+002
4.532376e+002,9.970375e+001
4.542019e+002,8.793636e+001
4.551661e+002,7.722167e+001
4.561303e+002,6.829610e+001
4.570946e+002,6.105758e+001
4.580588e+002,5.520634e+001
4.590230e+002,5.040487e+001
4.599873e+002,4.684468e+001
4.609515e+002,4.470280e+001
4.619157e+002,4.403973e+001
4.628800e+002,4.414051e+001
4.638442e+002,4.424279e+001
4.648084e+002,4.391369e+001
4.657727e+002,4.513488e+001
4.667369e+002,4.884109e+001
4.677011e+002,5.307928e+001
4.686654e+002,5.722704e+001
4.696296e+002,6.115577e+001
4.705938e+002,6.309468e+001
4.715581e+002,6.021779e+001
4.725223e+002,5.597880e+001
4.734865e+002,5.267512e+001
4.744508e+002,5.116645e+001
4.754150e+002,5.045109e+001
4.763792e+002,4.772525e+001
4.773435e+002,4.366044e+001
4.783077e+002,3.997449e+001
4.792719e+002,3.727875e+001
4.802362e+002,3.538106e+001
4.812004e+002,3.310651e+001
4.821646e+002,2.930758e+001
4.831289e+002,2.645420e+001
4.840931e+002,2.521004e+001
4.850573e+002,2.502249e+001
4.860216e+002,2.445744e+001
4.869858e+002,2.301448e+001
4.879500e+002,2.153541e+001
4.889143e+002,2.022112e+001
4.898785e+002,1.901895e+001
4.908427e+002,1.778282e+001
4.918070e+002,1.630868e+001
4.927712e+002,1.485779e+001
4.937354e+002,1.352070e+001
4.946997e+002,1.250174e+001
4.956639e+002,1.235463e+001
4.966281e+002,1.367593e+001
4.975924e+002,1.664766e+001
4.985566e+002,1.859697e+001
4.995208e+002,1.881744e+001
5.004851e+002,1.926664e+001
5.014493e+002,2.166337e+001
5.024135e+002,2.662475e+001
5.033778e+002,3.062093e+001
5.043420e+002,3.294753e+001
5.053063e+002,3.490059e+001
5.062705e+002,3.717034e+001
5.072347e+002,3.976033e+001
5.081990e+002,4.163190e+001
5.091632e+002,4.225746e+001
5.101274e+002,4.138223e+001
5.110917e+002,3.798970e+001
5.120559e+002,3.234106e+001
5.130201e+002,2.574133e+001
5.139844e+002,2.053617e+001
5.149486e+002,1.670666e+001
5.159128e+002,1.348448e+001
5.168771e+002,1.088615e+001
5.178413e+002,8.785334e+000
5.188055e+002,6.875482e+000
5.197698e+002,4.832031e+000
5.207340e+002,3.607544e+000
5.216982e+002,3.908032e+000
5.226625e+002,4.610919e+000
5.236267e+002,4.282422e+000
5.245909e+002,1.983838e+000
5.255552e+002,1.755920e-001
5.265194e+002,4.976379e-001
5.274836e+002,1.559680e+000
5.284479e+002,2.065631e+000
5.294121e+002,1.334814e+000
5.303763e+002,1.987183e-001
5.313406e+002,7.598572e-001
5.323048e+002,2.285944e+000
5.332690e+002,3.629773e+000
5.342333e+002,4.266534e+000
5.351975e+002,4.216522e+000
5.361617e+002,3.544238e+000
5.371260e+002,1.429651e+000
5.380902e+002,-2.197266e-003
5.390544e+002,8.911133e-003
5.400187e+002,9.814880e-001
5.409829e+002,1.419244e+000
5.419471e+002,5.382568e-001
5.429114e+002,-2.589478e-001
5.438756e+002,-6.750122e-001
5.448398e+002,-7.721069e-001
5.458041e+002,-6.458679e-001
5.467683e+002,-2.859863e-001
5.477325e+002,1.141418e-001
5.486968e+002,2.290955e-001
5.496610e+002,1.516418e-001
5.506252e+002,6.168823e-002
5.515895e+002,1.065918e-001
5.525537e+002,2.768372e-001
5.535179e+002,3.451294e-001
5.544822e+002,3.316589e-001
5.554464e+002,3.393494e-001
5.564106e+002,5.144348e-001
5.573749e+002,8.345642e-001
5.583391e+002,6.622437e-001
5.593033e+002,-7.067688e-001
5.602676e+002,-1.843243e+000
5.612318e+002,-2.361749e+000
5.621960e+002,-2.314014e+000
5.631603e+002,-1.958917e+000
5.641245e+002,-1.169153e+000
5.650887e+002,-5.081726e-001
5.660530e+002,-5.611084e-001
5.670172e+002,-1.125409e+000
5.679814e+002,-1.710004e+000
5.689457e+002,-1.779340e+000
5.699099e+002,-1.402118e+000
5.708741e+002,-1.536084e+000
5.718384e+002,-2.253839e+000
5.728026e+002,-2.860944e+000
5.737668e+002,-2.733185e+000
5.747311e+002,-1.702130e+000
5.756953e+002,-8.617737e-001
5.766595e+002,1.291626e-001
5.776238e+002,6.281311e-001
5.785880e+002,4.876099e-002
5.795522e+002,-1.454932e+000
5.805165e+002,-2.716309e+000
5.814807e+002,-2.545111e+000
5.824449e+002,-2.205981e+000
5.834092e+002,-2.591913e+000
5.843734e+002,-3.499231e+000
5.853376e+002,-4.101532e+000
5.863019e+002,-3.277106e+000
5.872661e+002,-1.500287e+000
5.882303e+002,-1.536804e+000
5.891946e+002,-3.440711e+000
5.901588e+002,-5.441175e+000
5.911230e+002,-5.612226e+000
5.920873e+002,-3.288940e+000
5.930515e+002,-1.769727e+000
5.940157e+002,-1.069714e+000
5.949800e+002,-8.016480e-001
5.959442e+002,-8.268616e-001
5.969084e+002,-1.132178e+000
5.978727e+002,-1.717468e+000
5.988369e+002,-3.404565e+000
5.998011e+002,-4.687042e+000
6.007654e+002,-4.690595e+000
6.017296e+002,-3.634759e+000
6.026938e+002,-2.315222e+000
6.036581e+002,-1.553595e+000
6.046223e+002,-1.306464e+000
6.055865e+002,-1.135156e+000
6.065508e+002,-1.022180e+000
6.075150e+002,-1.047058e+000
6.084792e+002,-1.342578e+000
6.094435e+002,-2.055530e+000
6.104077e+002,-2.141962e+000
6.113719e+002,-1.473969e+000
6.123362e+002,-5.995423e-001
6.133004e+002,2.764770e-001
6.142646e+002,1.136078e+000
6.152289e+002,1.915234e+000
6.161931e+002,2.712500e+000
6.171573e+002,3.269910e+000
6.181216e+002,3.383777e+000
6.190858e+002,3.206226e+000
6.200500e+002,3.004694e+000
6.210143e+002,2.875928e+000
6.219785e+002,3.092950e+000
6.229427e+002,4.071265e+000
6.239070e+002,5.713342e+000
6.248712e+002,7.698828e+000
6.258354e+002,9.764257e+000
6.267997e+002,1.200400e+001
6.277639e+002,1.401360e+001
6.287281e+002,1.610269e+001
6.296924e+002,1.757719e+001
6.306566e+002,1.813840e+001
6.316208e+002,1.780868e+001
6.325851e+002,1.684399e+001
6.335493e+002,1.434432e+001
6.345135e+002,1.225775e+001
6.354778e+002,1.100059e+001
6.364420e+002,1.056107e+001
6.374063e+002,1.094752e+001
6.383705e+002,1.250316e+001
6.393347e+002,1.411359e+001
6.402990e+002,1.363527e+001
6.412632e+002,1.186327e+001
6.422274e+002,1.075139e+001
6.431917e+002,1.179588e+001
6.441559e+002,1.482457e+001
6.451201e+002,1.567974e+001
6.460844e+002,1.360597e+001
6.470486e+002,1.135969e+001
6.480128e+002,9.466144e+000
6.489771e+002,7.992414e+000
6.499413e+002,7.259204e+000
6.509055e+002,8.078583e+000
6.518698e+002,8.657410e+000
6.528340e+002,8.329358e+000
6.537982e+002,7.623102e+000
6.547625e+002,7.387201e+000
6.557267e+002,8.206494e+000
6.566909e+002,8.953461e+000
6.576552e+002,7.785681e+000
6.586194e+002,5.517511e+000
6.595836e+002,3.033270e+000
6.605479e+002,8.383057e-001
6.615121e+002,-7.808533e-001
6.624763e+002,-5.896729e-001
6.634406e+002,2.306061e+000
6.644048e+002,4.699140e+000
6.653690e+002,5.989831e+000
6.663333e+002,6.513043e+000
6.672975e+002,7.029785e+000
6.682617e+002,8.058527e+000
6.692260e+002,8.179285e+000
6.701902e+002,6.345331e+000
6.711544e+002,4.170020e+000
6.721187e+002,2.875476e+000
6.730829e+002,2.867181e+000
6.740471e+002,3.540106e+000
6.750114e+002,4.476160e+000
6.759756e+002,5.568860e+000
6.769398e+002,6.836926e+000
6.779041e+002,8.215808e+000
6.788683e+002,9.416339e+000
6.798325e+002,9.908948e+000
6.807968e+002,9.447217e+000
6.817610e+002,9.067883e+000
6.827252e+002,8.777124e+000
6.836895e+002,8.559644e+000
6.846537e+002,8.392523e+000
6.856179e+002,8.257251e+000
6.865822e+002,8.166143e+000
6.875464e+002,7.863501e+000
6.885106e+002,7.859942e+000
6.894749e+002,8.737177e+000
6.904391e+002,1.022708e+001
6.914034e+002,1.132587e+001
6.923676e+002,1.076218e+001
6.933318e+002,9.803986e+000
6.942961e+002,1.041428e+001
6.952603e+002,1.224704e+001
6.962245e+002,1.401697e+001
6.971888e+002,1.452358e+001
6.981530e+002,1.370898e+001
6.991172e+002,1.373897e+001
7.000815e+002,1.485967e+001
7.010457e+002,1.602899e+001
7.020099e+002,1.694122e+001
7.029742e+002,1.767144e+001
7.039384e+002,1.845106e+001
7.049026e+002,1.939141e+001
7.058669e+002,2.018843e+001
7.068311e+002,2.053301e+001
7.077953e+002,2.076052e+001
7.087596e+002,2.157259e+001
7.097238e+002,2.344083e+001
7.106880e+002,2.505700e+001
7.116523e+002,2.312750e+001
7.126165e+002,1.975674e+001
7.135807e+002,1.838105e+001
7.145450e+002,2.028197e+001
7.155092e+002,2.404896e+001
7.164734e+002,2.580831e+001
7.174377e+002,2.464478e+001
7.184019e+002,2.286447e+001
7.193661e+002,1.950909e+001
7.203304e+002,1.607286e+001
7.212946e+002,1.431346e+001
7.222589e+002,1.475906e+001
7.232231e+002,1.525693e+001
7.241873e+002,1.507526e+001
7.251516e+002,1.473669e+001
7.261158e+002,1.447182e+001
7.270800e+002,1.428042e+001
7.280443e+002,1.394755e+001
7.290085e+002,1.310112e+001
7.299727e+002,1.227227e+001
7.309370e+002,1.274396e+001
7.319012e+002,1.429186e+001
7.328654e+002,1.544216e+001
7.338297e+002,1.474295e+001
7.347939e+002,1.203837e+001
7.357581e+002,1.094037e+001
7.367224e+002,1.282185e+001
7.376866e+002,1.425942e+001
7.386508e+002,1.412919e+001
7.396151e+002,1.288516e+001
7.405793e+002,1.180876e+001
7.415435e+002,1.130115e+001
7.425078e+002,1.099249e+001
7.434720e+002,1.056757e+001
7.444362e+002,1.022222e+001
7.454005e+002,1.005524e+001
7.463647e+002,1.015670e+001
7.473289e+002,1.078309e+001
7.482932e+002,1.323611e+001
7.492574e+002,1.661463e+001
7.502216e+002,1.833918e+001
7.511859e+002,1.770223e+001
7.521501e+002,1.576055e+001
7.531143e+002,1.446942e+001
7.540786e+002,1.432784e+001
7.550428e+002,1.375635e+001
7.560070e+002,1.184373e+001
7.569713e+002,1.041905e+001
7.579355e+002,1.105940e+001
7.588997e+002,1.363992e+001
7.598640e+002,1.559324e+001
7.608282e+002,1.450791e+001
7.617924e+002,1.348709e+001
7.627567e+002,1.438067e+001
7.637209e+002,1.659739e+001
7.646851e+002,1.881183e+001
7.656494e+002,1.995157e+001
7.666136e+002,2.026815e+001
7.675778e+002,2.089569e+001
7.685421e+002,2.179525e+001
7.695063e+002,2.218618e+001
7.704705e+002,2.148256e+001
7.714348e+002,2.007394e+001
7.723990e+002,1.957207e+001
7.733632e+002,2.092997e+001
7.743275e+002,2.169322e+001
7.752917e+002,2.117866e+001
7.762559e+002,2.044073e+001
7.772202e+002,2.033120e+001
7.781844e+002,2.106280e+001
7.791486e+002,2.232079e+001
7.801129e+002,2.492134e+001
7.810771e+002,2.722422e+001
7.820413e+002,2.753817e+001
7.830056e+002,2.619901e+001
7.839698e+002,2.492862e+001
7.849340e+002,2.570868e+001
7.858983e+002,2.848822e+001
7.868625e+002,3.099588e+001
7.878267e+002,3.351130e+001
7.887910e+002,3.502467e+001
7.897552e+002,3.442760e+001
7.907194e+002,3.207773e+001
7.916837e+002,3.079707e+001
7.926479e+002,3.195618e+001
7.936121e+002,3.266134e+001
7.945764e+002,3.148403e+001
7.955406e+002,2.998951e+001
7.965048e+002,3.014430e+001
7.974691e+002,3.276082e+001
7.984333e+002,3.623035e+001
7.993975e+002,3.867327e+001
8.003618e+002,4.048720e+001
8.013260e+002,4.172855e+001
8.022902e+002,4.254541e+001
8.032545e+002,4.356702e+001
8.042187e+002,4.582879e+001
8.051829e+002,4.979329e+001
8.061472e+002,5.232637e+001
8.071114e+002,5.219675e+001
8.080756e+002,5.221148e+001
8.090399e+002,5.388095e+001
8.100041e+002,5.705087e+001
8.109683e+002,6.038345e+001
8.119326e+002,6.303612e+001
8.128968e+002,6.651266e+001
8.138610e+002,7.178837e+001
8.148253e+002,7.793552e+001
8.157895e+002,8.375311e+001
8.167537e+002,8.869633e+001
8.177180e+002,9.327538e+001
8.186822e+002,9.863091e+001
8.196464e+002,1.044024e+002
8.206107e+002,1.099997e+002
8.215749e+002,1.153088e+002
8.225391e+002,1.196491e+002
8.235034e+002,1.218523e+002
8.244676e+002,1.212392e+002
8.254318e+002,1.202617e+002
8.263961e+002,1.195756e+002
8.273603e+002,1.182691e+002
8.283245e+002,1.157926e+002
8.292888e+002,1.121961e+002
8.302530e+002,1.079478e+002
8.312172e+002,1.032129e+002
8.321815e+002,9.786812e+001
8.331457e+002,9.124773e+001
8.341099e+002,8.448122e+001
8.350742e+002,7.892957e+001
8.360384e+002,7.527158e+001
8.370026e+002,7.302261e+001
8.379669e+002,7.118169e+001
8.389311e+002,6.974745e+001
8.398953e+002,6.845414e+001
8.408596e+002,6.752779e+001
8.418238e+002,6.641077e+001
8.427880e+002,6.435383e+001
8.437523e+002,6.115047e+001
8.447165e+002,5.815411e+001
8.456807e+002,5.558165e+001
8.466450e+002,5.320488e+001
8.476092e+002,5.059972e+001
8.485734e+002,4.810235e+001
8.495377e+002,4.665659e+001
8.505019e+002,4.710247e+001
8.514661e+002,4.793278e+001
8.524304e+002,4.695034e+001
8.533946e+002,4.497578e+001
8.543588e+002,4.316660e+001
8.553231e+002,4.197087e+001
8.562873e+002,4.114184e+001
8.572515e+002,4.009520e+001
8.582158e+002,3.843340e+001
8.591800e+002,3.802088e+001
8.601442e+002,3.984488e+001
8.611085e+002,4.172734e+001
8.620727e+002,4.229961e+001
8.630369e+002,4.163028e+001
8.640012e+002,4.061962e+001
8.649654e+002,3.851102e+001
8.659296e+002,3.741148e+001
8.668939e+002,3.926596e+001
8.678581e+002,4.227441e+001
8.688223e+002,4.392808e+001
8.697866e+002,4.297865e+001
8.707508e+002,4.066563e+001
8.717150e+002,3.940514e+001
8.726793e+002,3.898730e+001
8.736435e+002,3.859019e+001
8.746077e+002,3.814135e+001
8.755720e+002,3.757272e+001
8.765362e+002,3.679240e+001
8.775004e+002,3.579665e+001
8.784647e+002,3.462257e+001
8.794289e+002,3.269939e+001
8.803931e+002,3.121193e+001
8.813574e+002,3.079174e+001
8.823216e+002,3.102522e+001
8.832858e+002,3.118783e+001
8.842501e+002,3.109595e+001
8.852143e+002,3.051585e+001
8.861785e+002,2.874405e+001
8.871428e+002,2.650789e+001
8.881070e+002,2.459301e+001
8.890712e+002,2.326654e+001
8.900355e+002,2.241260e+001
8.909997e+002,2.188693e+001
8.919639e+002,2.178450e+001
8.929282e+002,2.144597e+001
8.938924e+002,2.059024e+001
8.948566e+002,1.988436e+001
8.958209e+002,1.989797e+001
8.967851e+002,2.039669e+001
8.977493e+002,2.029144e+001
8.987136e+002,1.881352e+001
8.996778e+002,1.753890e+001
9.006420e+002,1.719169e+001
9.016063e+002,1.723961e+001
9.025705e+002,1.734965e+001
9.035347e+002,1.734212e+001
9.044990e+002,1.701731e+001
9.054632e+002,1.591648e+001
9.064274e+002,1.427812e+001
9.073917e+002,1.333783e+001
9.083559e+002,1.316917e+001
9.093201e+002,1.326169e+001
9.102844e+002,1.334234e+001
9.112486e+002,1.337708e+001
9.122128e+002,1.285720e+001
9.131771e+002,1.059623e+001
9.141413e+002,9.394300e+000
9.151055e+002,1.048032e+001
9.160698e+002,1.211930e+001
9.170340e+002,1.241741e+001
9.179982e+002,1.097733e+001
9.189625e+002,9.494253e+000
9.199267e+002,9.763281e+000
9.208909e+002,1.036151e+001
9.218552e+002,9.735559e+000
9.228194e+002,8.157373e+000
9.237836e+002,6.676550e+000
9.247479e+002,6.119992e+000
9.257121e+002,6.379660e+000
9.266763e+002,6.869110e+000
9.276406e+002,7.889383e+000
9.286048e+002,8.407611e+000
9.295690e+002,7.936948e+000
9.305333e+002,7.175714e+000
9.314975e+002,6.903815e+000
9.324617e+002,7.211524e+000
9.334260e+002,7.624701e+000
9.343902e+002,8.441101e+000
9.353545e+002,8.842035e+000
9.363187e+002,8.058023e+000
9.372830e+002,6.639804e+000
9.382472e+002,5.622476e+000
9.392114e+002,5.663882e+000
9.401757e+002,6.348783e+000
9.411399e+002,6.583301e+000
9.421041e+002,6.442368e+000
9.430684e+002,6.802869e+000
9.440326e+002,8.059430e+000
9.449968e+002,9.286380e+000
9.459611e+002,9.209765e+000
9.469253e+002,7.621942e+000
9.478895e+002,6.465872e+000
9.488538e+002,5.732422e+000
9.498180e+002,5.562619e+000
9.507822e+002,6.279611e+000
9.517465e+002,7.464129e+000
9.527107e+002,8.713266e+000
9.536749e+002,9.901324e+000
9.546392e+002,1.067794e+001
9.556034e+002,9.934873e+000
9.565676e+002,8.741379e+000
9.575319e+002,8.604205e+000
9.584961e+002,9.662738e+000
9.594603e+002,1.107126e+001
9.604246e+002,1.188398e+001
9.613888e+002,1.207459e+001
9.623530e+002,1.308549e+001
9.633173e+002,1.536709e+001
9.642815e+002,1.780451e+001
9.652457e+002,1.955948e+001
9.662100e+002,2.188842e+001
9.671742e+002,2.599515e+001
9.681384e+002,3.204372e+001
9.691027e+002,4.040189e+001
9.700669e+002,5.179463e+001
9.710311e+002,6.550195e+001
9.719954e+002,8.566096e+001
9.729596e+002,1.076843e+002
9.739238e+002,1.218325e+002
9.748881e+002,1.215298e+002
9.758523e+002,1.098822e+002
9.768165e+002,9.625918e+001
9.777808e+002,7.979682e+001
9.787450e+002,6.655641e+001
9.797092e+002,5.874588e+001
9.806735e+002,5.311737e+001
9.816377e+002,4.622186e+001
9.826019e+002,3.800398e+001
9.835662e+002,3.202419e+001
9.845304e+002,3.045196e+001
9.854946e+002,3.004358e+001
9.864589e+002,3.021016e+001
9.874231e+002,3.065532e+001
9.883873e+002,3.101126e+001
9.893516e+002,3.116212e+001
9.903158e+002,3.152986e+001
9.912800e+002,3.290723e+001
9.922443e+002,3.514647e+001
9.932085e+002,3.659291e+001
9.941727e+002,3.701565e+001
9.951370e+002,3.891349e+001
9.961012e+002,4.411848e+001
9.970654e+002,5.225660e+001
9.980297e+002,6.110583e+001
9.989939e+002,6.629572e+001
9.999581e+002,8.061961e+001
1.000922e+003,1.024334e+002
1.001887e+003,1.353412e+002
1.002851e+003,1.846383e+002
1.003815e+003,2.485207e+002
1.004779e+003,3.234047e+002
1.005744e+003,4.207117e+002
1.006708e+003,5.007126e+002
1.007672e+003,5.015711e+002
1.008636e+003,4.450040e+002
1.009600e+003,3.720682e+002
1.010565e+003,2.997869e+002
1.011529e+003,2.320647e+002
1.012493e+003,1.778386e+002
1.013457e+003,1.394791e+002
1.014422e+003,1.098455e+002
1.015386e+003,9.007335e+001
1.016350e+003,7.508498e+001
1.017314e+003,6.410491e+001
1.018279e+003,5.613013e+001
1.019243e+003,4.994419e+001
1.020207e+003,4.543943e+001
1.021171e+003,4.157957e+001
1.022135e+003,3.746402e+001
1.023100e+003,3.360619e+001
1.024064e+003,3.053454e+001
1.025028e+003,2.817541e+001
1.025992e+003,2.611694e+001
1.026957e+003,2.398639e+001
1.027921e+003,2.190342e+001
1.028885e+003,2.041513e+001
1.029849e+003,1.974834e+001
1.030814e+003,1.916438e+001
1.031778e+003,1.863687e+001
1.032742e+003,1.800367e+001
1.033706e+003,1.700864e+001
1.034671e+003,1.571790e+001
1.035635e+003,1.487076e+001
1.036599e+003,1.489923e+001
1.037563e+003,1.529353e+001
1.038527e+003,1.590903e+001
1.039492e+003,1.659517e+001
1.040456e+003,1.734557e+001
1.041420e+003,1.806761e+001
1.042384e+003,1.837162e+001
1.043349e+003,1.756310e+001
1.044313e+003,1.568269e+001
1.045277e+003,1.500556e+001
1.046241e+003,1.601884e+001
1.047206e+003,1.665285e+001
1.048170e+003,1.532083e+001
1.049134e+003,1.303566e+001
1.050098e+003,1.246455e+001
1.051063e+003,1.445908e+001
1.052027e+003,1.623347e+001
1.052991e+003,1.676192e+001
1.053955e+003,1.683417e+001
1.054919e+003,1.688960e+001
1.055884e+003,1.684578e+001
1.056848e+003,1.627404e+001
1.057812e+003,1.494614e+001
1.058776e+003,1.348757e+001
1.059741e+003,1.321213e+001
1.060705e+003,1.393717e+001
1.061669e+003,1.459394e+001
1.062633e+003,1.513042e+001
1.063598e+003,1.531810e+001
1.064562e+003,1.472782e+001
1.065526e+003,1.348927e+001
1.066490e+003,1.301403e+001
1.067454e+003,1.402754e+001
1.068419e+003,1.478851e+001
1.069383e+003,1.438845e+001
1.070347e+003,1.392100e+001
1.071311e+003,1.464074e+001
1.072276e+003,1.635722e+001
1.073240e+003,1.757262e+001
1.074204e+003,1.705408e+001
1.075168e+003,1.557594e+001
1.076133e+003,1.492220e+001
1.077097e+003,1.486711e+001
1.078061e+003,1.461819e+001
1.079025e+003,1.384890e+001
1.079990e+003,1.302759e+001
1.080954e+003,1.285331e+001
1.081918e+003,1.341844e+001
1.082882e+003,1.402079e+001
1.083846e+003,1.469702e+001
1.084811e+003,1.529489e+001
1.085775e+003,1.580294e+001
1.086739e+003,1.619691e+001
1.087703e+003,1.651499e+001
1.088668e+003,1.677505e+001
1.089632e+003,1.686878e+001
1.090596e+003,1.656263e+001
1.091560e+003,1.610080e+001
1.092525e+003,1.583284e+001
1.093489e+003,1.579570e+001
1.094453e+003,1.643973e+001
1.095417e+003,1.815996e+001
1.096381e+003,2.007127e+001
1.097346e+003,2.011092e+001
1.098310e+003,1.733725e+001
1.099274e+003,1.604354e+001
1.100238e+003,1.771046e+001
1.101203e+003,1.901558e+001
1.102167e+003,1.880414e+001
1.103131e+003,1.771077e+001
1.104095e+003,1.653022e+001
1.105060e+003,1.551000e+001
1.106024e+003,1.466541e+001
1.106988e+003,1.376434e+001
1.107952e+003,1.346154e+001
1.108917e+003,1.522075e+001
1.109881e+003,1.841639e+001
1.110845e+003,2.048124e+001
1.111809e+003,1.995428e+001
1.112773e+003,1.783218e+001
1.113738e+003,1.641777e+001
1.114702e+003,1.586883e+001
1.115666e+003,1.582274e+001
1.116630e+003,1.670769e+001
1.117595e+003,1.739698e+001
1.118559e+003,1.693782e+001
1.119523e+003,1.629121e+001
1.120487e+003,1.723885e+001
1.121452e+003,2.024371e+001
1.122416e+003,2.318190e+001
1.123380e+003,2.425997e+001
1.124344e+003,2.397961e+001
1.125308e+003,2.286408e+001
1.126273e+003,2.119617e+001
1.127237e+003,1.970786e+001
1.128201e+003,1.877368e+001
1.129165e+003,1.834083e+001
1.130130e+003,1.834054e+001
1.131094e+003,1.893214e+001
1.132058e+003,1.931685e+001
1.133022e+003,1.962396e+001
1.133987e+003,1.965064e+001
1.134951e+003,1.901339e+001
1.135915e+003,1.825915e+001
1.136879e+003,1.823595e+001
1.137844e+003,1.912932e+001
1.138808e+003,2.012989e+001
1.139772e+003,2.067935e+001
1.140736e+003,2.072975e+001
1.141700e+003,2.024070e+001
1.142665e+003,1.938548e+001
1.143629e+003,1.847426e+001
1.144593e+003,1.763490e+001
1.145557e+003,1.721891e+001
1.146522e+003,1.798380e+001
1.147486e+003,2.028360e+001
1.148450e+003,2.198266e+001
1.149414e+003,2.294881e+001
1.150379e+003,2.370670e+001
1.151343e+003,2.429339e+001
1.152307e+003,2.481495e+001
1.153271e+003,2.539058e+001
1.154235e+003,2.597918e+001
1.155200e+003,2.631285e+001
1.156164e+003,2.613894e+001
1.157128e+003,2.584540e+001
1.158092e+003,2.591327e+001
1.159057e+003,2.625236e+001
1.160021e+003,2.668893e+001
1.160985e+003,2.714790e+001
1.161949e+003,2.754628e+001
1.162914e+003,2.778703e+001
1.163878e+003,2.789410e+001
1.164842e+003,2.794514e+001
1.165806e+003,2.722911e+001
1.166771e+003,2.734121e+001
1.167735e+003,2.924975e+001
1.168699e+003,3.150212e+001
1.169663e+003,3.276626e+001
1.170627e+003,3.300871e+001
1.171592e+003,3.309360e+001
1.172556e+003,3.352088e+001
1.173520e+003,3.412716e+001
1.174484e+003,3.478555e+001
1.175449e+003,3.537206e+001
1.176413e+003,3.530005e+001
1.177377e+003,3.442461e+001
1.178341e+003,3.431638e+001
1.179306e+003,3.710322e+001
1.180270e+003,4.239375e+001
1.181234e+003,4.496114e+001
1.182198e+003,4.239892e+001
1.183162e+003,4.118184e+001
1.184127e+003,4.304438e+001
1.185091e+003,4.514783e+001
1.186055e+003,4.595161e+001
1.187019e+003,4.561118e+001
1.187984e+003,4.484142e+001
1.188948e+003,4.393140e+001
1.189912e+003,4.276052e+001
1.190876e+003,4.100805e+001
1.191841e+003,3.900723e+001
1.192805e+003,3.751211e+001
1.193769e+003,3.657182e+001
1.194733e+003,3.601224e+001
1.195698e+003,3.577222e+001
1.196662e+003,3.576029e+001
1.197626e+003,3.587466e+001
1.198590e+003,3.632335e+001
1.199554e+003,3.606278e+001
1.200519e+003,3.398780e+001
1.201483e+003,3.245186e+001
1.202447e+003,3.265944e+001
1.203411e+003,3.358988e+001
1.204376e+003,3.373074e+001
1.205340e+003,3.280151e+001
1.206304e+003,3.206680e+001
1.207268e+003,3.290157e+001
1.208233e+003,3.461246e+001
1.209197e+003,3.455729e+001
1.210161e+003,3.294670e+001
1.211125e+003,3.189390e+001
1.212089e+003,3.203156e+001
1.213054e+003,3.266715e+001
1.214018e+003,3.325678e+001
1.214982e+003,3.386088e+001
1.215946e+003,3.420343e+001
1.216911e+003,3.384852e+001
1.217875e+003,3.387819e+001
1.218839e+003,3.498385e+001
1.219803e+003,3.610003e+001
1.220768e+003,3.662757e+001
1.221732e+003,3.655629e+001
1.222696e+003,3.587550e+001
1.223660e+003,3.461792e+001
1.224625e+003,3.342639e+001
1.225589e+003,3.354406e+001
1.226553e+003,3.497765e+001
1.227517e+003,3.584993e+001
1.228481e+003,3.592546e+001
1.229446e+003,3.616857e+001
1.230410e+003,3.768922e+001
1.231374e+003,3.928821e+001
1.232338e+003,3.851850e+001
1.233303e+003,3.508897e+001
1.234267e+003,3.262935e+001
1.235231e+003,3.287247e+001
1.236195e+003,3.374355e+001
1.237160e+003,3.388535e+001
1.238124e+003,3.396881e+001
1.239088e+003,3.518641e+001
1.240052e+003,3.753661e+001
1.241016e+003,3.974279e+001
1.241981e+003,4.057512e+001
1.242945e+003,4.024137e+001
1.243909e+003,3.973427e+001
1.244873e+003,3.913394e+001
1.245838e+003,3.818639e+001
1.246802e+003,3.613136e+001
1.247766e+003,3.452600e+001
1.248730e+003,3.432290e+001
1.249695e+003,3.518266e+001
1.250659e+003,3.656143e+001
1.251623e+003,3.842596e+001
1.252587e+003,3.974498e+001
1.253552e+003,3.917559e+001
1.254516e+003,3.833654e+001
1.255480e+003,3.908520e+001
1.256444e+003,4.082531e+001
1.257408e+003,4.209126e+001
1.258373e+003,4.231609e+001
1.259337e+003,4.203489e+001
1.260301e+003,4.202911e+001
1.261265e+003,4.233799e+001
1.262230e+003,4.195529e+001
1.263194e+003,3.959461e+001
1.264158e+003,3.818072e+001
1.265122e+003,3.856164e+001
1.266087e+003,3.930782e+001
1.267051e+003,3.937267e+001
1.268015e+003,3.905098e+001
1.268979e+003,3.940505e+001
1.269943e+003,4.086525e+001
1.270908e+003,4.229325e+001
1.271872e+003,4.223083e+001
1.272836e+003,4.143047e+001
1.273800e+003,4.178020e+001
1.274765e+003,4.322284e+001
1.275729e+003,4.467786e+001
1.276693e+003,4.575694e+001
1.277657e+003,4.638596e+001
1.278622e+003,4.630201e+001
1.279586e+003,4.542911e+001
1.280550e+003,4.465571e+001
1.281514e+003,4.384754e+001
1.282479e+003,4.375217e+001
1.283443e+003,4.484565e+001
1.284407e+003,4.630950e+001
1.285371e+003,4.781219e+001
1.286335e+003,4.902032e+001
1.287300e+003,4.954952e+001
1.288264e+003,4.924262e+001
1.289228e+003,4.827033e+001
1.290192e+003,4.670401e+001
1.291157e+003,4.460487e+001
1.292121e+003,4.334903e+001
1.293085e+003,4.284921e+001
1.294049e+003,4.296087e+001
1.295014e+003,4.421056e+001
1.295978e+003,4.575854e+001
1.296942e+003,4.643331e+001
1.297906e+003,4.634014e+001
1.298870e+003,4.679346e+001
1.299835e+003,4.841626e+001
1.300799e+003,4.984224e+001
1.301763e+003,5.011362e+001
1.302727e+003,4.983804e+001
1.303692e+003,4.939686e+001
1.304656e+003,4.903127e+001
1.305620e+003,4.900211e+001
1.306584e+003,4.942718e+001
1.307549e+003,5.023046e+001
1.308513e+003,5.138835e+001
1.309477e+003,5.306330e+001
1.310441e+003,5.350660e+001
1.311406e+003,5.127845e+001
1.312370e+003,5.000964e+001
1.313334e+003,5.095383e+001
1.314298e+003,5.242695e+001
1.315263e+003,5.296623e+001
1.316227e+003,5.273402e+001
1.317191e+003,5.279913e+001
1.318155e+003,5.363161e+001
1.319120e+003,5.454324e+001
1.320084e+003,5.485797e+001
1.321048e+003,5.463671e+001
1.322012e+003,5.381993e+001
1.322976e+003,5.251598e+001
1.323941e+003,5.207507e+001
1.324905e+003,5.351704e+001
1.325869e+003,5.542229e+001
1.326833e+003,5.543622e+001
1.327798e+003,5.355663e+001
1.328762e+003,5.237663e+001
1.329726e+003,5.236875e+001
1.330690e+003,5.251990e+001
1.331655e+003,5.240948e+001
1.332619e+003,5.247889e+001
1.333583e+003,5.334211e+001
1.334547e+003,5.452999e+001
1.335511e+003,5.504946e+001
1.336476e+003,5.454568e+001
1.337440e+003,5.379069e+001
1.338404e+003,5.379897e+001
1.339368e+003,5.441896e+001
1.340333e+003,5.398769e+001
1.341297e+003,5.150787e+001
1.342261e+003,5.089586e+001
1.343225e+003,5.461110e+001
1.344190e+003,5.823744e+001
1.345154e+003,5.811880e+001
1.346118e+003,5.573692e+001
1.347082e+003,5.510384e+001
1.348047e+003,5.719745e+001
1.349011e+003,5.848163e+001
1.349975e+003,5.594387e+001
1.350939e+003,5.272820e+001
1.351903e+003,5.235962e+001
1.352868e+003,5.382711e+001
1.353832e+003,5.513488e+001
1.354796e+003,5.572975e+001
1.355760e+003,5.600774e+001
1.356725e+003,5.631793e+001
1.357689e+003,5.664729e+001
1.358653e+003,5.693752e+001
1.359617e+003,5.726690e+001
1.360582e+003,5.731875e+001
1.361546e+003,5.658709e+001
1.362510e+003,5.611931e+001
1.363474e+003,5.666389e+001
1.364438e+003,5.749794e+001
1.365403e+003,5.765182e+001
1.366367e+003,5.710518e+001
1.367331e+003,5.649587e+001
1.368295e+003,5.624776e+001
1.369260e+003,5.661412e+001
1.370224e+003,5.835471e+001
1.371188e+003,6.147979e+001
1.372152e+003,6.277339e+001
1.373117e+003,6.141056e+001
1.374081e+003,6.023025e+001
1.375045e+003,6.047481e+001
1.376009e+003,6.120703e+001
1.376974e+003,6.170002e+001
1.377938e+003,6.183540e+001
1.378902e+003,6.082707e+001
1.379866e+003,5.796317e+001
1.380830e+003,5.549552e+001
1.381795e+003,5.551162e+001
1.382759e+003,5.628677e+001
1.383723e+003,5.604525e+001
1.384687e+003,5.530817e+001
1.385652e+003,5.575127e+001
1.386616e+003,5.798699e+001
1.387580e+003,6.095112e+001
1.388544e+003,6.350901e+001
1.389509e+003,6.557021e+001
1.390473e+003,6.664977e+001
1.391437e+003,6.663329e+001
1.392401e+003,6.605489e+001
1.393365e+003,6.395208e+001
1.394330e+003,6.243248e+001
1.395294e+003,6.286769e+001
1.396258e+003,6.399468e+001
1.397222e+003,6.425476e+001
1.398187e+003,6.359617e+001
1.399151e+003,6.306701e+001
1.400115e+003,6.332317e+001
1.401079e+003,6.401118e+001
1.402044e+003,6.455766e+001
1.403008e+003,6.497453e+001
1.403972e+003,6.579559e+001
1.404936e+003,6.749808e+001
1.405901e+003,6.858938e+001
1.406865e+003,6.790331e+001
1.407829e+003,6.688969e+001
1.408793e+003,6.730520e+001
1.409757e+003,6.885623e+001
1.410722e+003,6.970653e+001
1.411686e+003,6.912926e+001
1.412650e+003,6.879039e+001
1.413614e+003,7.076560e+001
1.414579e+003,7.281367e+001
1.415543e+003,7.174689e+001
1.416507e+003,6.883881e+001
1.417471e+003,6.769853e+001
1.418436e+003,6.938129e+001
1.419400e+003,7.128441e+001
1.420364e+003,7.067973e+001
1.421328e+003,6.839278e+001
1.422292e+003,6.783569e+001
1.423257e+003,6.953337e+001
1.424221e+003,7.074693e+001
1.425185e+003,6.990704e+001
1.426149e+003,6.990541e+001
1.427114e+003,7.292415e+001
1.428078e+003,7.637342e+001
1.429042e+003,7.771367e+001
1.430006e+003,7.694872e+001
1.430971e+003,7.492523e+001
1.431935e+003,7.231557e+001
1.432899e+003,7.063097e+001
1.433863e+003,7.226377e+001
1.434828e+003,7.688165e+001
1.435792e+003,7.930403e+001
1.436756e+003,7.803018e+001
1.437720e+003,7.729562e+001
1.438684e+003,7.783299e+001
1.439649e+003,7.863945e+001
1.440613e+003,7.933754e+001
1.441577e+003,7.984640e+001
1.442541e+003,8.006439e+001
1.443506e+003,7.990694e+001
1.444470e+003,7.923431e+001
1.445434e+003,7.789717e+001
1.446398e+003,7.655499e+001
1.447363e+003,7.583088e+001
1.448327e+003,7.579010e+001
1.449291e+003,7.706696e+001
1.450255e+003,7.978392e+001
1.451219e+003,8.190669e+001
1.452184e+003,8.200429e+001
1.453148e+003,8.150304e+001
1.454112e+003,8.253079e+001
1.455076e+003,8.470586e+001
1.456041e+003,8.558148e+001
1.457005e+003,8.456035e+001
1.457969e+003,8.365385e+001
1.458933e+003,8.361003e+001
1.459898e+003,8.402126e+001
1.460862e+003,8.496554e+001
1.461826e+003,8.596853e+001
1.462790e+003,8.612578e+001
1.463755e+003,8.549752e+001
1.464719e+003,8.537611e+001
1.465683e+003,8.675787e+001
1.466647e+003,8.897304e+001
1.467611e+003,9.053474e+001
1.468576e+003,9.143156e+001
1.469540e+003,9.143302e+001
1.470504e+003,8.957645e+001
1.471468e+003,8.842828e+001
1.472433e+003,8.877571e+001
1.473397e+003,8.939923e+001
1.474361e+003,8.975543e+001
1.475325e+003,8.980083e+001
1.476290e+003,8.948020e+001
1.477254e+003,8.883561e+001
1.478218e+003,8.811212e+001
1.479182e+003,8.753468e+001
1.480146e+003,8.717946e+001
1.481111e+003,8.711877e+001
1.482075e+003,8.728862e+001
1.483039e+003,8.816898e+001
1.484003e+003,9.104408e+001
1.484968e+003,9.241525e+001
1.485932e+003,9.071853e+001
1.486896e+003,8.819985e+001
1.487860e+003,8.613427e+001
1.488825e+003,8.473753e+001
1.489789e+003,8.443320e+001
1.490753e+003,8.530656e+001
1.491717e+003,8.656947e+001
1.492682e+003,8.793621e+001
1.493646e+003,8.888610e+001
1.494610e+003,8.817139e+001
1.495574e+003,8.631635e+001
1.496538e+003,8.503079e+001
1.497503e+003,8.458095e+001
1.498467e+003,8.411346e+001
1.499431e+003,8.243034e+001
1.500395e+003,8.102500e+001
1.501360e+003,8.256516e+001
1.502324e+003,8.632922e+001
1.503288e+003,8.838255e+001
1.504252e+003,8.778263e+001
1.505217e+003,8.676449e+001
1.506181e+003,8.634331e+001
1.507145e+003,8.597227e+001
1.508109e+003,8.498086e+001
1.509073e+003,8.385565e+001
1.510038e+003,8.329977e+001
1.511002e+003,8.343500e+001
1.511966e+003,8.420677e+001
1.512930e+003,8.572224e+001
1.513895e+003,8.744206e+001
1.514859e+003,8.841045e+001
1.515823e+003,8.855373e+001
1.516787e+003,8.803630e+001
1.517752e+003,8.650758e+001
1.518716e+003,8.551872e+001
1.519680e+003,8.592580e+001
1.520644e+003,8.624446e+001
1.521609e+003,8.572308e+001
1.522573e+003,8.481321e+001
1.523537e+003,8.420675e+001
1.524501e+003,8.393394e+001
1.525465e+003,8.336738e+001
1.526430e+003,8.212330e+001
1.527394e+003,8.076118e+001
1.528358e+003,8.026267e+001
1.529322e+003,8.058045e+001
1.530287e+003,8.051859e+001
1.531251e+003,7.986293e+001
1.532215e+003,7.936610e+001
1.533179e+003,7.862608e+001
1.534144e+003,7.845746e+001
1.535108e+003,8.016582e+001
1.536072e+003,8.183787e+001
1.537036e+003,8.057903e+001
1.538000e+003,7.747046e+001
1.538965e+003,7.685051e+001
1.539929e+003,8.032954e+001
1.540893e+003,8.346547e+001
1.541857e+003,8.098032e+001
1.542822e+003,7.477980e+001
1.543786e+003,7.270995e+001
1.544750e+003,7.650063e+001
1.545714e+003,7.850910e+001
1.546679e+003,7.740657e+001
1.547643e+003,7.632220e+001
1.548607e+003,7.657324e+001
1.549571e+003,7.714256e+001
1.550536e+003,7.670131e+001
1.551500e+003,7.560869e+001
1.552464e+003,7.552011e+001
1.553428e+003,7.687048e+001
1.554392e+003,7.763528e+001
1.555357e+003,7.598637e+001
1.556321e+003,7.312255e+001
1.557285e+003,7.144734e+001
1.558249e+003,7.100227e+001
1.559214e+003,7.078648e+001
1.560178e+003,7.087002e+001
1.561142e+003,7.098951e+001
1.562106e+003,7.107544e+001
1.563071e+003,7.098776e+001
1.564035e+003,7.067256e+001
1.564999e+003,7.022044e+001
1.565963e+003,6.969444e+001
1.566927e+003,6.908337e+001
1.567892e+003,6.833213e+001
1.568856e+003,6.724684e+001
1.569820e+003,6.659227e+001
1.570784e+003,6.799367e+001
1.571749e+003,7.013301e+001
1.572713e+003,6.948611e+001
1.573677e+003,6.615532e+001
1.574641e+003,6.366813e+001
1.575606e+003,6.338036e+001
1.576570e+003,6.353679e+001
1.577534e+003,6.281761e+001
1.578498e+003,6.166055e+001
1.579463e+003,6.086318e+001
1.580427e+003,6.041139e+001
1.581391e+003,5.980299e+001
1.582355e+003,5.880418e+001
1.583319e+003,5.809542e+001
1.584284e+003,5.846233e+001
1.585248e+003,5.913221e+001
1.586212e+003,5.879860e+001
1.587176e+003,5.782701e+001
1.588141e+003,5.763979e+001
1.589105e+003,5.860156e+001
1.590069e+003,5.923469e+001
1.591033e+003,5.850674e+001
1.591998e+003,5.698825e+001
1.592962e+003,5.520004e+001
1.593926e+003,5.330161e+001
1.594890e+003,5.227755e+001
1.595854e+003,5.235503e+001
1.596819e+003,5.280874e+001
1.597783e+003,5.394645e+001
1.598747e+003,5.435502e+001
1.599711e+003,5.191908e+001
1.600676e+003,4.887019e+001
1.601640e+003,4.851938e+001
1.602604e+003,5.037198e+001
1.603568e+003,5.096288e+001
1.604533e+003,4.883182e+001
1.605497e+003,4.626877e+001
1.606461e+003,4.569383e+001
1.607425e+003,4.636661e+001
1.608390e+003,4.614589e+001
1.609354e+003,4.504711e+001
1.610318e+003,4.449778e+001
1.611282e+003,4.501933e+001
1.612246e+003,4.503046e+001
1.613211e+003,4.308827e+001
1.614175e+003,4.108817e+001
1.615139e+003,4.042620e+001
1.616103e+003,4.062997e+001
1.617068e+003,4.115104e+001
1.618032e+003,4.168749e+001
1.618996e+003,4.137588e+001
1.619960e+003,3.959338e+001
1.620925e+003,3.734827e+001
1.621889e+003,3.620901e+001
1.622853e+003,3.596079e+001
1.623817e+003,3.489823e+001
1.624781e+003,3.274610e+001
1.625746e+003,3.183353e+001
1.626710e+003,3.366472e+001
1.627674e+003,3.493953e+001
1.628638e+003,3.302462e+001
1.629603e+003,3.077326e+001
1.630567e+003,3.092264e+001
1.631531e+003,3.256676e+001
1.632495e+003,3.364560e+001
1.633460e+003,3.359077e+001
1.634424e+003,3.247434e+001
1.635388e+003,3.003308e+001
1.636352e+003,2.749294e+001
1.637317e+003,2.767066e+001
1.638281e+003,3.027138e+001
1.639245e+003,3.043279e+001
1.640209e+003,2.718007e+001
1.641173e+003,2.481368e+001
1.642138e+003,2.473279e+001
1.643102e+003,2.535174e+001
1.644066e+003,2.655270e+001
1.645030e+003,2.744574e+001
1.645995e+003,2.704560e+001
1.646959e+003,2.560139e+001
1.647923e+003,2.355885e+001
1.648887e+003,2.122000e+001
1.649852e+003,2.005408e+001
1.650816e+003,2.156953e+001
1.651780e+003,2.434504e+001
1.652744e+003,2.546544e+001
1.653708e+003,2.497335e+001
1.654673e+003,2.397882e+001
1.655637e+003,2.233359e+001
1.656601e+003,2.090436e+001
1.657565e+003,1.987770e+001
1.658530e+003,1.927148e+001
1.659494e+003,1.965756e+001
1.660458e+003,1.999192e+001
1.661422e+003,1.877119e+001
1.662387e+003,1.651036e+001
1.663351e+003,1.494998e+001
1.664315e+003,1.468915e+001
1.665279e+003,1.516046e+001
1.666244e+003,1.611390e+001
1.667208e+003,1.717898e+001
1.668172e+003,1.765182e+001
1.669136e+003,1.750872e+001
1.670100e+003,1.649759e+001
1.671065e+003,1.426697e+001
1.672029e+003,1.257646e+001
1.672993e+003,1.209985e+001
1.673957e+003,1.224788e+001
1.674922e+003,1.296231e+001
1.675886e+003,1.376424e+001
1.676850e+003,1.411154e+001
1.677814e+003,1.406229e+001
1.678779e+003,1.409385e+001
1.679743e+003,1.436683e+001
1.680707e+003,1.403532e+001
1.681671e+003,1.201627e+001
1.682635e+003,9.446524e+000
1.683600e+003,8.375574e+000
1.684564e+003,8.620417e+000
1.685528e+003,8.984381e+000
1.686492e+003,9.371450e+000
1.687457e+003,9.396176e+000
1.688421e+003,8.792923e+000
1.689385e+003,8.117404e+000
1.690349e+003,7.488937e+000
1.691314e+003,7.279578e+000
1.692278e+003,8.546283e+000
1.693242e+003,1.063290e+001
1.694206e+003,1.097484e+001
1.695171e+003,8.834338e+000
1.696135e+003,6.426959e+000
1.697099e+003,4.843851e+000
1.698063e+003,4.024017e+000
1.699027e+003,4.085367e+000
1.699992e+003,4.823205e+000
1.700956e+003,5.711990e+000
1.701920e+003,6.664969e+000
1.702884e+003,7.198438e+000
1.703849e+003,7.107611e+000
1.704813e+003,6.659051e+000
1.705777e+003,5.923306e+000
1.706741e+003,5.094430e+000
1.707706e+003,4.436395e+000
1.708670e+003,3.971497e+000
1.709634e+003,3.739233e+000
1.710598e+003,3.724490e+000
1.711563e+003,4.008981e+000
1.712527e+003,5.075650e+000
1.713491e+003,5.953400e+000
1.714455e+003,5.685965e+000
1.715419e+003,4.800363e+000
1.716384e+003,4.184152e+000
1.717348e+003,3.841254e+000
1.718312e+003,3.383569e+000
1.719276e+003,2.685281e+000
1.720241e+003,1.631497e+000
1.721205e+003,-5.228882e-002
1.722169e+003,-1.578336e+000
1.723133e+003,-1.525693e+000
1.724098e+003,-8.335266e-002
1.725062e+003,9.874878e-001
1.726026e+003,1.585471e+000
1.726990e+003,2.156671e+000
1.727954e+003,3.019205e+000
1.728919e+003,3.524289e+000
1.729883e+003,3.407590e+000
1.730847e+003,2.784299e+000
1.731811e+003,1.196585e+000
1.732776e+003,-6.170807e-001
1.733740e+003,-7.114319e-001
1.734704e+003,9.175598e-001
1.735668e+003,1.668347e+000
1.736633e+003,3.298035e-002
1.737597e+003,-2.234519e+000
1.738561e+003,-2.808502e+000
1.739525e+003,-2.049460e+000
1.740490e+003,-1.756058e+000
1.741454e+003,-2.267685e+000
1.742418e+003,-2.030450e+000
1.743382e+003,1.563751e-001
1.744346e+003,1.232404e+000
1.745311e+003,-4.047241e-002
1.746275e+003,-1.700296e+000
1.747239e+003,-3.149699e+000
1.748203e+003,-3.914983e+000
1.749168e+003,-2.978207e+000
1.750132e+003,-1.011319e+000
1.751096e+003,3.116150e-002
1.752060e+003,-5.755218e-001
1.753025e+003,-1.962952e+000
1.753989e+003,-3.383144e+000
1.754953e+003,-4.464731e+000
1.755917e+003,-4.173639e+000
1.756881e+003,-2.472812e+000
1.757846e+003,-1.886240e+000
1.758810e+003,-2.865997e+000
1.759774e+003,-3.616176e+000
1.760738e+003,-4.132878e+000
1.761703e+003,-4.077950e+000
1.762667e+003,-2.451712e+000
1.763631e+003,-1.052576e+000
1.764595e+003,-1.559647e+000
1.765560e+003,-3.204874e+000
1.766524e+003,-4.754341e+000
1.767488e+003,-5.846724e+000
1.768452e+003,-6.100479e+000
1.769417e+003,-5.198862e+000
1.770381e+003,-4.278447e+000
1.771345e+003,-4.888637e+000
1.772309e+003,-6.328133e+000
1.773273e+003,-6.900780e+000
1.774238e+003,-6.641801e+000
1.775202e+003,-5.661017e+000
1.776166e+003,-3.772717e+000
1.777130e+003,-2.631900e+000
1.778095e+003,-3.114670e+000
1.779059e+003,-3.988739e+000
1.780023e+003,-4.302615e+000
1.780987e+003,-4.316321e+000
1.781952e+003,-4.407526e+000
1.782916e+003,-4.612298e+000
1.783880e+003,-5.120473e+000
1.784844e+003,-6.134103e+000
1.785808e+003,-6.484482e+000
1.786773e+003,-4.969487e+000
1.787737e+003,-3.437630e+000
1.788701e+003,-3.486937e+000
1.789665e+003,-4.313386e+000
1.790630e+003,-4.696036e+000
1.791594e+003,-4.722257e+000
1.792558e+003,-5.302770e+000
1.793522e+003,-6.575345e+000
1.794487e+003,-7.296510e+000
1.795451e+003,-6.654138e+000
1.796415e+003,-5.477606e+000
1.797379e+003,-4.872983e+000
1.798344e+003,-4.773796e+000
1.799308e+003,-4.800949e+000
1.800272e+003,-5.082582e+000
1.801236e+003,-5.052736e+000
1.802201e+003,-4.361732e+000
1.803165e+003,-3.857562e+000
1.804129e+003,-3.815553e+000
1.805093e+003,-3.802246e+000
1.806057e+003,-3.438910e+000
1.807022e+003,-3.104791e+000
1.807986e+003,-3.234329e+000
1.808950e+003,-3.768414e+000
1.809914e+003,-4.641656e+000
1.810879e+003,-5.663437e+000
1.811843e+003,-6.071324e+000
1.812807e+003,-5.278261e+000
1.813771e+003,-4.121965e+000
1.814736e+003,-3.976613e+000
1.815700e+003,-4.613199e+000
1.816664e+003,-4.830718e+000
1.817628e+003,-4.638963e+000
1.818593e+003,-3.895404e+000
1.819557e+003,-2.105774e+000
1.820521e+003,-1.121591e+000
1.821485e+003,-2.168314e+000
1.822449e+003,-3.507747e+000
1.823414e+003,-3.727052e+000
1.824378e+003,-3.626921e+000
1.825342e+003,-4.415254e+000
1.826306e+003,-5.787521e+000
1.827271e+003,-6.402132e+000
1.828235e+003,-5.938559e+000
1.829199e+003,-5.057495e+000
1.830163e+003,-3.540988e+000
1.831128e+003,-2.400479e+000
1.832092e+003,-2.884759e+000
1.833056e+003,-4.067870e+000
1.834020e+003,-4.547906e+000
1.834984e+003,-4.387186e+000
1.835949e+003,-4.041560e+000
1.836913e+003,-3.651323e+000
1.837877e+003,-3.522794e+000
1.838841e+003,-3.850836e+000
1.839806e+003,-4.191071e+000
1.840770e+003,-4.008102e+000
1.841734e+003,-3.559844e+000
1.842698e+003,-3.649382e+000
1.843663e+003,-4.373790e+000
1.844627e+003,-4.521887e+000
1.845591e+003,-3.677582e+000
1.846555e+003,-2.926550e+000
1.847520e+003,-2.072305e+000
1.848484e+003,-1.658511e+000
1.849448e+003,-2.157159e+000
1.850412e+003,-2.860181e+000
1.851376e+003,-3.320543e+000
1.852341e+003,-3.507385e+000
1.853305e+003,-3.447951e+000
1.854269e+003,-3.197064e+000
1.855233e+003,-2.810584e+000
1.856198e+003,-2.312946e+000
1.857162e+003,-1.858984e+000
1.858126e+003,-1.579092e+000
1.859090e+003,-1.497266e+000
1.860055e+003,-1.818756e+000
1.861019e+003,-2.461957e+000
1.861983e+003,-2.703397e+000
1.862947e+003,-2.480722e+000
1.863911e+003,-2.515256e+000
1.864876e+003,-3.040302e+000
1.865840e+003,-3.496312e+000
1.866804e+003,-3.670639e+000
1.867768e+003,-3.510525e+000
1.868733e+003,-2.925620e+000
1.869697e+003,-1.980585e+000
1.870661e+003,-5.332214e-001
1.871625e+003,1.434500e+000
1.872590e+003,1.900488e+000
1.873554e+003,-5.719482e-001
1.874518e+003,-2.007553e+000
1.875482e+003,-2.145081e-001
1.876447e+003,1.621964e+000
1.877411e+003,1.442944e+000
1.878375e+003,4.126007e-001
1.879339e+003,-2.780212e-001
1.880303e+003,-6.158295e-001
1.881268e+003,-1.003564e+000
1.882232e+003,-1.435367e+000
1.883196e+003,-1.435529e+000
1.884160e+003,-7.579834e-001
1.885125e+003,2.912872e-001
1.886089e+003,1.424573e+000
1.887053e+003,2.377185e+000
1.888017e+003,2.256613e+000
1.888982e+003,1.052161e+000
1.889946e+003,5.666596e-001
1.890910e+003,1.039508e+000
1.891874e+003,9.898834e-001
1.892839e+003,-2.196350e-001
1.893803e+003,-1.174722e+000
1.894767e+003,-1.221265e+000
1.895731e+003,-7.270996e-001
1.896695e+003,3.932465e-001
1.897660e+003,1.603076e+000
1.898624e+003,1.971109e+000
1.899588e+003,1.525446e+000
1.900552e+003,7.726166e-001
1.901517e+003,-3.752777e-001
1.902481e+003,-1.210211e+000
1.903445e+003,-1.664975e+000
1.904409e+003,-1.420841e+000
1.905374e+003,4.355286e-001
1.906338e+003,2.560052e+000
1.907302e+003,3.416007e+000
1.908266e+003,3.176926e+000
1.909230e+003,2.325330e+000
1.910195e+003,1.157004e+000
1.911159e+003,-3.827820e-002
1.912123e+003,-1.036359e+000
1.913087e+003,-1.183386e+000
1.914052e+003,1.996643e-001
1.915016e+003,2.079324e+000
1.915980e+003,2.251935e+000
1.916944e+003,8.637604e-001
1.917909e+003,-2.381622e-001
1.918873e+003,-1.104501e+000
1.919837e+003,-1.198270e+000
1.920801e+003,-2.250671e-002
1.921766e+003,6.608490e-001
1.922730e+003,-7.787780e-002
1.923694e+003,-1.039905e+000
1.924658e+003,-1.757990e+000
1.925622e+003,-1.909531e+000
1.926587e+003,-4.886749e-001
1.927551e+003,1.832516e+000
1.928515e+003,2.525940e+000
1.929479e+003,1.172897e+000
1.930444e+003,1.333344e-001
1.931408e+003,3.858154e-001
1.932372e+003,5.617005e-001
1.933336e+003,-2.016632e-001
1.934301e+003,-1.038483e+000
1.935265e+003,-1.245416e+000
1.936229e+003,-1.049509e+000
1.937193e+003,-7.030060e-001
1.938157e+003,-3.596466e-001
1.939122e+003,-3.187805e-001
1.940086e+003,-5.427399e-001
1.941050e+003,-4.347870e-001
1.942014e+003,3.429504e-001
1.942979e+003,1.215509e+000
1.943943e+003,1.500000e+000
1.944907e+003,1.357916e+000
1.945871e+003,1.085550e+000
1.946836e+003,7.280976e-001
1.947800e+003,1.074957e+000
1.948764e+003,2.251767e+000
1.949728e+003,2.710321e+000
1.950693e+003,1.891931e+000
1.951657e+003,1.278320e+000
1.952621e+003,1.829578e+000
1.953585e+003,2.429749e+000
1.954549e+003,1.876007e+000
1.955514e+003,7.032959e-001
1.956478e+003,-1.496063e-001
1.957442e+003,-6.442078e-001
1.958406e+003,4.955750e-002
1.959371e+003,2.782324e+000
1.960335e+003,4.325333e+000
1.961299e+003,3.178903e+000
1.962263e+003,2.305563e+000
1.963228e+003,2.979047e+000
1.964192e+003,3.959976e+000
1.965156e+003,4.626077e+000
1.966120e+003,4.880054e+000
1.967084e+003,4.414239e+000
1.968049e+003,3.640796e+000
1.969013e+003,3.502243e+000
1.969977e+003,4.133456e+000
1.970941e+003,4.814215e+000
1.971906e+003,5.158765e+000
1.972870e+003,5.183402e+000
1.973834e+003,4.770761e+000
1.974798e+003,4.191101e+000
1.975763e+003,3.858307e+000
1.976727e+003,3.719116e+000
1.977691e+003,3.704074e+000
1.978655e+003,3.772995e+000
1.979620e+003,3.846594e+000
1.980584e+003,3.907953e+000
1.981548e+003,3.481384e+000
1.982512e+003,2.240677e+000
1.983476e+003,1.211893e+000
1.984441e+003,1.525562e+000
1.985405e+003,2.602316e+000
1.986369e+003,3.080005e+000
1.987333e+003,2.988028e+000
1.988298e+003,2.854526e+000
1.989262e+003,2.696283e+000
1.990226e+003,2.296603e+000
1.991190e+003,1.119339e+000
1.992155e+003,7.230164e-001
1.993119e+003,2.372369e+000
1.994083e+003,3.828171e+000
1.995047e+003,3.693613e+000
1.996011e+003,2.974365e+000
1.996976e+003,2.533826e+000
1.997940e+003,2.415378e+000
1.998904e+003,2.711490e+000
1.999868e+003,3.395093e+000
2.000833e+003,3.746539e+000
2.001797e+003,3.260013e+000
2.002761e+003,3.227469e+000
2.003725e+003,4.682895e+000
2.004690e+003,6.128595e+000
2.005654e+003,6.307236e+000
2.006618e+003,6.262872e+000
2.007582e+003,7.486963e+000
2.008547e+003,9.116656e+000
2.009511e+003,9.512805e+000
2.010475e+003,8.670618e+000
2.011439e+003,7.573569e+000
2.012403e+003,6.598572e+000
2.013368e+003,5.445285e+000
2.014332e+003,3.855536e+000
2.015296e+003,2.470291e+000
2.016260e+003,2.059500e+000
2.017225e+003,2.543475e+000
2.018189e+003,4.223456e+000
2.019153e+003,6.597678e+000
2.020117e+003,7.532410e+000
2.021082e+003,6.984454e+000
2.022046e+003,6.499677e+000
2.023010e+003,6.486990e+000
2.023974e+003,6.198303e+000
2.024938e+003,5.173789e+000
2.025903e+003,4.131119e+000
2.026867e+003,3.834979e+000
2.027831e+003,4.023047e+000
2.028795e+003,4.071707e+000
2.029760e+003,4.024094e+000
2.030724e+003,4.501190e+000
2.031688e+003,5.923578e+000
2.032652e+003,6.055789e+000
2.033617e+003,3.928864e+000
2.034581e+003,2.638733e+000
2.035545e+003,3.510019e+000
2.036509e+003,4.520511e+000
2.037474e+003,4.248349e+000
2.038438e+003,3.805637e+000
2.039402e+003,5.020877e+000
2.040366e+003,6.754309e+000
2.041330e+003,6.102674e+000
2.042295e+003,3.124515e+000
2.043259e+003,1.083658e+000
2.044223e+003,2.978393e-001
2.045187e+003,5.069855e-001
2.046152e+003,2.533264e+000
2.047116e+003,4.313138e+000
2.048080e+003,5.287839e+000
2.049044e+003,5.477496e+000
2.050009e+003,4.317151e+000
2.050973e+003,2.912772e+000
2.051937e+003,2.430185e+000
2.052901e+003,2.804806e+000
2.053865e+003,3.856357e+000
2.054830e+003,5.257248e+000
2.055794e+003,5.796796e+000
2.056758e+003,4.883835e+000
2.057722e+003,3.718652e+000
2.058687e+003,2.682639e+000
2.059651e+003,2.407715e+000
2.060615e+003,4.233722e+000
2.061579e+003,6.575711e+000
2.062544e+003,7.426847e+000
2.063508e+003,7.071643e+000
2.064472e+003,6.038974e+000
2.065436e+003,4.706107e+000
2.066401e+003,3.807751e+000
2.067365e+003,3.526752e+000
2.068329e+003,3.339349e+000
2.069293e+003,2.922479e+000
2.070258e+003,2.643433e+000
2.071222e+003,3.021252e+000
2.072186e+003,3.645834e+000
2.073150e+003,3.504773e+000
2.074115e+003,2.812381e+000
2.075079e+003,2.513739e+000
2.076043e+003,2.570572e+000
2.077007e+003,2.510623e+000
2.077971e+003,2.300586e+000
2.078936e+003,2.613739e+000
2.079900e+003,3.705881e+000
2.080864e+003,4.392426e+000
2.081828e+003,3.772278e+000
2.082792e+003,2.857410e+000
2.083757e+003,3.068616e+000
2.084721e+003,4.115390e+000
2.085685e+003,5.105069e+000
2.086649e+003,6.085843e+000
2.087614e+003,5.981088e+000
2.088578e+003,4.466092e+000
2.089542e+003,3.487561e+000
2.090506e+003,3.376810e+000
2.091471e+003,3.263538e+000
2.092435e+003,2.739007e+000
2.093399e+003,2.556021e+000
2.094363e+003,3.550119e+000
2.095328e+003,4.599777e+000
2.096292e+003,3.911841e+000
2.097256e+003,2.216458e+000
2.098220e+003,2.263376e+000
2.099185e+003,4.318900e+000
2.100149e+003,5.664178e+000
2.101113e+003,6.122321e+000
2.102077e+003,6.135376e+000
2.103042e+003,5.572076e+000
2.104006e+003,4.754870e+000
2.104970e+003,3.212540e+000
2.105934e+003,2.093240e+000
2.106898e+003,2.294922e+000
2.107863e+003,2.960181e+000
2.108827e+003,3.388049e+000
2.109791e+003,3.559619e+000
2.110755e+003,3.211856e+000
2.111719e+003,2.419559e+000
2.112684e+003,2.725381e+000
2.113648e+003,4.920926e+000
2.114612e+003,6.594522e+000
2.115576e+003,7.530219e+000
2.116541e+003,7.400491e+000
2.117505e+003,4.635529e+000
2.118469e+003,2.510080e+000
2.119433e+003,4.091174e+000
2.120398e+003,6.463339e+000
2.121362e+003,6.197043e+000
2.122326e+003,4.466846e+000
2.123290e+003,3.965289e+000
2.124255e+003,4.855618e+000
2.125219e+003,5.761633e+000
2.126183e+003,6.300275e+000
2.127147e+003,6.637292e+000
2.128112e+003,6.795468e+000
2.129076e+003,6.905078e+000
2.130040e+003,7.185571e+000
2.131004e+003,7.244788e+000
2.131969e+003,6.448535e+000
2.132933e+003,5.502847e+000
2.133897e+003,5.369809e+000
2.134861e+003,5.713495e+000
2.135825e+003,5.729581e+000
2.136790e+003,5.383100e+000
2.137754e+003,5.088992e+000
2.138718e+003,5.020950e+000
2.139682e+003,5.343683e+000
2.140646e+003,6.284552e+000
2.141611e+003,7.169559e+000
2.142575e+003,7.350623e+000
2.143539e+003,7.251437e+000
2.144503e+003,7.682089e+000
2.145468e+003,7.863928e+000
2.146432e+003,5.893332e+000
2.147396e+003,3.194952e+000
2.148360e+003,3.037326e+000
2.149325e+003,5.001834e+000
2.150289e+003,6.096438e+000
2.151253e+003,5.546664e+000
2.152217e+003,5.179971e+000
2.153182e+003,6.059183e+000
2.154146e+003,7.003122e+000
2.155110e+003,6.768198e+000
2.156074e+003,6.206653e+000
2.157039e+003,6.465796e+000
2.158003e+003,7.024750e+000
2.158967e+003,7.046237e+000
2.159931e+003,6.750528e+000
2.160896e+003,6.657477e+000
2.161860e+003,6.796018e+000
2.162824e+003,7.046985e+000
2.163788e+003,7.315946e+000
2.164752e+003,7.470740e+000
2.165717e+003,7.417221e+000
2.166681e+003,6.819910e+000
2.167645e+003,5.223315e+000
2.168609e+003,3.673996e+000
2.169573e+003,3.904581e+000
2.170538e+003,5.044690e+000
2.171502e+003,5.547330e+000
2.172466e+003,5.489371e+000
2.173430e+003,4.914746e+000
2.174395e+003,4.087390e+000
2.175359e+003,3.744742e+000
2.176323e+003,3.955151e+000
2.177287e+003,4.321109e+000
2.178252e+003,4.626660e+000
2.179216e+003,4.624915e+000
2.180180e+003,4.140006e+000
2.181144e+003,3.829865e+000
2.182109e+003,4.624286e+000
2.183073e+003,5.847855e+000
2.184037e+003,6.122693e+000
2.185001e+003,5.842773e+000
2.185966e+003,6.193606e+000
2.186930e+003,6.903299e+000
2.187894e+003,6.714340e+000
2.188858e+003,5.687375e+000
2.189823e+003,4.916101e+000
2.190787e+003,4.692151e+000
2.191751e+003,4.673587e+000
2.192715e+003,4.692694e+000
2.193679e+003,4.753326e+000
2.194644e+003,4.811774e+000
2.195608e+003,5.032706e+000
2.196572e+003,6.086474e+000
2.197536e+003,7.295529e+000
2.198500e+003,6.526605e+000
2.199465e+003,4.658252e+000
2.200429e+003,4.349127e+000
2.201393e+003,5.457660e+000
2.202357e+003,6.696851e+000
2.203322e+003,7.707376e+000
2.204286e+003,8.390567e+000
2.205250e+003,8.712626e+000
2.206214e+003,8.572818e+000
2.207179e+003,7.903882e+000
2.208143e+003,7.530576e+000
2.209107e+003,8.675000e+000
2.210071e+003,1.017861e+001
2.211036e+003,9.617905e+000
2.212000e+003,7.927207e+000
2.212964e+003,7.327072e+000
2.213928e+003,7.595236e+000
2.214893e+003,7.920227e+000
2.215857e+003,8.234507e+000
2.216821e+003,8.763965e+000
2.217785e+003,9.488180e+000
2.218750e+003,1.011507e+001
2.219714e+003,1.049273e+001
2.220678e+003,1.048328e+001
2.221642e+003,9.914508e+000
2.222606e+003,9.640295e+000
2.223571e+003,1.123068e+001
2.224535e+003,1.338025e+001
2.225499e+003,1.343463e+001
2.226463e+003,1.247128e+001
2.227427e+003,1.266504e+001
2.228392e+003,1.384537e+001
2.229356e+003,1.534431e+001
2.230320e+003,1.689071e+001
2.231284e+003,1.809143e+001
2.232249e+003,1.887929e+001
2.233213e+003,1.963937e+001
2.234177e+003,2.057594e+001
2.235141e+003,2.142868e+001
2.236106e+003,2.181406e+001
2.237070e+003,2.249651e+001
2.238034e+003,2.481144e+001
2.238998e+003,2.756402e+001
2.239963e+003,2.925713e+001
2.240927e+003,3.013176e+001
2.241891e+003,3.011861e+001
2.242855e+003,2.996828e+001
2.243820e+003,3.128099e+001
2.244784e+003,3.388011e+001
2.245748e+003,3.629720e+001
2.246712e+003,3.813089e+001
2.247677e+003,4.024267e+001
2.248641e+003,4.314524e+001
2.249605e+003,4.557688e+001
2.250569e+003,4.611208e+001
2.251533e+003,4.635715e+001
2.252498e+003,4.825085e+001
2.253462e+003,5.010979e+001
2.254426e+003,5.006918e+001
2.255390e+003,4.896659e+001
2.256354e+003,4.784092e+001
2.257319e+003,4.671110e+001
2.258283e+003,4.538715e+001
2.259247e+003,4.382360e+001
2.260211e+003,4.194207e+001
2.261176e+003,3.975037e+001
2.262140e+003,3.749586e+001
2.263104e+003,3.524319e+001
2.264068e+003,3.298683e+001
2.265033e+003,3.071887e+001
2.265997e+003,2.846090e+001
2.266961e+003,2.594312e+001
2.267925e+003,2.374188e+001
2.268890e+003,2.270649e+001
2.269854e+003,2.187203e+001
2.270818e+003,1.988242e+001
2.271782e+003,1.751148e+001
2.272747e+003,1.629111e+001
2.273711e+003,1.608962e+001
2.274675e+003,1.580370e+001
2.275639e+003,1.522077e+001
2.276604e+003,1.419081e+001
2.277568e+003,1.211527e+001
2.278532e+003,1.079874e+001
2.279496e+003,1.151993e+001
2.280460e+003,1.181543e+001
2.281425e+003,1.056298e+001
2.282389e+003,8.935992e+000
2.283353e+003,7.269000e+000
2.284317e+003,5.950922e+000
2.285281e+003,5.438952e+000
2.286246e+003,5.417120e+000
2.287210e+003,5.566061e+000
2.288174e+003,5.732709e+000
2.289138e+003,5.018796e+000
2.290103e+003,3.038754e+000
2.291067e+003,2.147263e+000
2.292031e+003,3.086929e+000
2.292995e+003,3.698407e+000
2.293960e+003,3.743121e+000
2.294924e+003,3.672192e+000
2.295888e+003,3.341995e+000
2.296852e+003,3.439353e+000
2.297817e+003,4.795670e+000
2.298781e+003,5.821399e+000
2.299745e+003,4.871042e+000
2.300709e+003,3.078317e+000
2.301674e+003,2.353854e+000
2.302638e+003,2.427527e+000
2.303602e+003,1.939563e+000
2.304566e+003,7.954010e-001
2.305531e+003,2.561401e-001
2.306495e+003,3.800201e-001
2.307459e+003,1.028613e+000
2.308423e+003,2.279809e+000
2.309387e+003,3.065469e+000
2.310352e+003,3.116583e+000
2.311316e+003,2.382861e+000
2.312280e+003,7.884949e-001
2.313244e+003,-4.804962e-001
2.314208e+003,-4.431030e-001
2.315173e+003,4.146759e-001
2.316137e+003,1.615048e+000
2.317101e+003,2.555948e+000
2.318065e+003,1.027466e+000
2.319030e+003,-2.038132e+000
2.319994e+003,-2.666617e+000
2.320958e+003,-1.426178e+000
2.321922e+003,-7.963135e-001
2.322887e+003,-8.623444e-001
2.323851e+003,-5.913208e-001
2.324815e+003,1.209900e-001
2.325779e+003,5.909637e-001
2.326744e+003,5.529968e-001
2.327708e+003,2.479706e-001
2.328672e+003,-1.803894e-001
2.329636e+003,-9.223755e-001
2.330601e+003,-2.431571e+000
2.331565e+003,-3.843927e+000
2.332529e+003,-4.186325e+000
2.333493e+003,-3.903924e+000
2.334458e+003,-3.331665e+000
2.335422e+003,-2.632751e+000
2.336386e+003,-1.836615e+000
2.337350e+003,-1.113306e+000
2.338314e+003,-5.146973e-001
2.339279e+003,-2.824280e-001
2.340243e+003,-1.227554e+000
2.341207e+003,-3.287013e+000
2.342171e+003,-4.689542e+000
2.343135e+003,-4.793860e+000
2.344100e+003,-4.618486e+000
2.345064e+003,-4.143950e+000
2.346028e+003,-4.074228e+000
2.346992e+003,-5.071980e+000
2.347957e+003,-5.935773e+000
2.348921e+003,-6.425659e+000
2.349885e+003,-6.205589e+000
2.350849e+003,-4.111368e+000
2.351814e+003,-1.944684e+000
2.352778e+003,-2.160114e+000
2.353742e+003,-3.884856e+000
2.354706e+003,-5.085350e+000
2.355671e+003,-5.728972e+000
2.356635e+003,-5.490329e+000
2.357599e+003,-3.964337e+000
2.358563e+003,-3.361295e+000
2.359528e+003,-3.995833e+000
2.360492e+003,-4.644267e+000
2.361456e+003,-5.314649e+000
2.362420e+003,-5.251330e+000
2.363385e+003,-3.997617e+000
2.364349e+003,-3.285529e+000
2.365313e+003,-4.141249e+000
2.366277e+003,-5.037599e+000
2.367241e+003,-4.507393e+000
2.368206e+003,-3.625215e+000
2.369170e+003,-4.154001e+000
2.370134e+003,-5.639256e+000
2.371098e+003,-7.075223e+000
2.372063e+003,-8.243685e+000
2.373027e+003,-7.867654e+000
2.373991e+003,-6.406595e+000
2.374955e+003,-5.755305e+000
2.375919e+003,-5.836380e+000
2.376884e+003,-5.324033e+000
2.377848e+003,-4.246504e+000
2.378812e+003,-4.193257e+000
2.379776e+003,-5.452551e+000
2.380741e+003,-5.989679e+000
2.381705e+003,-4.646806e+000
2.382669e+003,-3.265468e+000
2.383633e+003,-3.309640e+000
2.384598e+003,-3.716063e+000
2.385562e+003,-3.655211e+000
2.386526e+003,-3.645711e+000
2.387490e+003,-4.429851e+000
2.388455e+003,-5.095170e+000
2.389419e+003,-4.196279e+000
2.390383e+003,-3.059577e+000
2.391347e+003,-3.870091e+000
2.392312e+003,-5.785989e+000
2.393276e+003,-6.535829e+000
2.394240e+003,-6.061994e+000
2.395204e+003,-5.880189e+000
2.396168e+003,-6.297406e+000
2.397133e+003,-6.233405e+000
2.398097e+003,-5.270262e+000
2.399061e+003,-4.543128e+000
2.400025e+003,-4.079353e+000
2.400990e+003,-3.969496e+000
2.401954e+003,-4.559412e+000
2.402918e+003,-4.587214e+000
2.403882e+003,-3.189304e+000
2.404846e+003,-2.002634e+000
2.405811e+003,-2.435303e+000
2.406775e+003,-3.442574e+000
2.407739e+003,-3.549078e+000
2.408703e+003,-3.136348e+000
2.409668e+003,-3.239861e+000
2.410632e+003,-3.704027e+000
2.411596e+003,-3.800154e+000
2.412560e+003,-3.563690e+000
2.413525e+003,-2.863000e+000
2.414489e+003,-1.941049e+000
2.415453e+003,-1.747797e+000
2.416417e+003,-2.298584e+000
2.417382e+003,-3.215886e+000
2.418346e+003,-4.236092e+000
2.419310e+003,-4.858130e+000
2.420274e+003,-4.856300e+000
2.421239e+003,-4.340886e+000
2.422203e+003,-3.188623e+000
2.423167e+003,-2.202869e+000
2.424131e+003,-2.363196e+000
2.425095e+003,-2.335947e+000
2.426060e+003,-7.973541e-001
2.427024e+003,7.373596e-001
2.427988e+003,1.303299e+000
2.428952e+003,1.109195e+000
2.429917e+003,6.376648e-002
2.430881e+003,-1.289474e+000
2.431845e+003,-2.470015e+000
2.432809e+003,-3.281102e+000
2.433773e+003,-3.012346e+000
2.434738e+003,-1.669009e+000
2.435702e+003,-6.920227e-001
2.436666e+003,-2.500305e-002
2.437630e+003,9.622192e-003
2.438595e+003,-8.959015e-001
2.439559e+003,-1.072888e+000
2.440523e+003,-1.734161e-001
2.441487e+003,6.459717e-001
2.442452e+003,1.036200e+000
2.443416e+003,1.075513e+000
2.444380e+003,8.100830e-001
2.445344e+003,3.044922e-001
2.446309e+003,-4.190246e-001
2.447273e+003,-6.928161e-001
2.448237e+003,5.375397e-001
2.449201e+003,2.284235e+000
2.450166e+003,3.042322e+000
2.451130e+003,3.146756e+000
2.452094e+003,2.830487e+000
2.453058e+003,2.425952e+000
2.454022e+003,2.664783e+000
2.454987e+003,3.028363e+000
2.455951e+003,2.065070e+000
2.456915e+003,5.256622e-001
2.457879e+003,9.047912e-001
2.458844e+003,3.132626e+000
2.459808e+003,4.255750e+000
2.460772e+003,3.448343e+000
2.461736e+003,2.806854e+000
2.462700e+003,2.558081e+000
2.463665e+003,2.815204e+000
2.464629e+003,4.363016e+000
2.465593e+003,5.214777e+000
2.466557e+003,4.770032e+000
2.467522e+003,3.870581e+000
2.468486e+003,2.389798e+000
2.469450e+003,2.088373e+000
2.470414e+003,4.623016e+000
2.471379e+003,7.172278e+000
2.472343e+003,6.164929e+000
2.473307e+003,3.759586e+000
2.474271e+003,4.646411e+000
2.475236e+003,7.577219e+000
2.476200e+003,8.638049e+000
2.477164e+003,8.240018e+000
2.478128e+003,7.134967e+000
2.479093e+003,5.825043e+000
2.480057e+003,5.531122e+000
2.481021e+003,5.998407e+000
2.481985e+003,6.316718e+000
2.482949e+003,6.313333e+000
2.483914e+003,6.052832e+000
2.484878e+003,5.634033e+000
2.485842e+003,5.724915e+000
2.486806e+003,6.797440e+000
2.487771e+003,7.112161e+000
2.488735e+003,4.639267e+000
2.489699e+003,3.587564e+000
2.490663e+003,6.511163e+000
2.491627e+003,8.843985e+000
2.492592e+003,8.734759e+000
2.493556e+003,8.206762e+000
2.494520e+003,8.154651e+000
2.495484e+003,8.110483e+000
2.496449e+003,7.536166e+000
2.497413e+003,7.093457e+000
2.498377e+003,7.846601e+000
2.499341e+003,9.232373e+000
2.500306e+003,9.789325e+000
2.501270e+003,9.659915e+000
2.502234e+003,9.324259e+000
2.503198e+003,8.859067e+000
2.504163e+003,8.380694e+000
2.505127e+003,8.054812e+000
2.506091e+003,8.525467e+000
2.507055e+003,9.563028e+000
2.508020e+003,1.021970e+001
2.508984e+003,1.051316e+001
2.509948e+003,1.156776e+001
2.510912e+003,1.353759e+001
2.511876e+003,1.424299e+001
2.512841e+003,1.245411e+001
2.513805e+003,1.104930e+001
2.514769e+003,1.072141e+001
2.515733e+003,1.127345e+001
2.516698e+003,1.357304e+001
2.517662e+003,1.533992e+001
2.518626e+003,1.586335e+001
2.519590e+003,1.584555e+001
2.520554e+003,1.533149e+001
2.521519e+003,1.507451e+001
2.522483e+003,1.574341e+001
2.523447e+003,1.697570e+001
2.524411e+003,1.835189e+001
2.525376e+003,1.966283e+001
2.526340e+003,1.991259e+001
2.527304e+003,1.979886e+001
2.528268e+003,2.246227e+001
2.529233e+003,2.625166e+001
2.530197e+003,2.649756e+001
2.531161e+003,2.485544e+001
2.532125e+003,2.562698e+001
2.533090e+003,2.824252e+001
2.534054e+003,3.023940e+001
2.535018e+003,3.114734e+001
2.535982e+003,3.095646e+001
2.536947e+003,2.981626e+001
2.537911e+003,3.033961e+001
2.538875e+003,3.403054e+001
2.539839e+003,3.673335e+001
2.540803e+003,3.721841e+001
2.541768e+003,3.782462e+001
2.542732e+003,3.879672e+001
2.543696e+003,3.970835e+001
2.544660e+003,4.052208e+001
2.545625e+003,4.131279e+001
2.546589e+003,4.215127e+001
2.547553e+003,4.250246e+001
2.548517e+003,4.190535e+001
2.549482e+003,4.090820e+001
2.550446e+003,4.010087e+001
2.551410e+003,3.965162e+001
2.552374e+003,3.981791e+001
2.553339e+003,4.046117e+001
2.554303e+003,4.223035e+001
2.555267e+003,4.360783e+001
2.556231e+003,4.206395e+001
2.557196e+003,3.934002e+001
2.558160e+003,3.755249e+001
2.559124e+003,3.661024e+001
2.560088e+003,3.635299e+001
2.561052e+003,3.634339e+001
2.562017e+003,3.506784e+001
2.562981e+003,3.249761e+001
2.563945e+003,3.081001e+001
2.564909e+003,3.011507e+001
2.565874e+003,2.970197e+001
2.566838e+003,2.963676e+001
2.567802e+003,2.961946e+001
2.568766e+003,2.963345e+001
2.569730e+003,2.905463e+001
2.570695e+003,2.775728e+001
2.571659e+003,2.578809e+001
2.572623e+003,2.332658e+001
2.573587e+003,2.152769e+001
2.574552e+003,2.098146e+001
2.575516e+003,2.022603e+001
2.576480e+003,1.809038e+001
2.577444e+003,1.609548e+001
2.578409e+003,1.507697e+001
2.579373e+003,1.461067e+001
2.580337e+003,1.494780e+001
2.581301e+003,1.525490e+001
2.582266e+003,1.505079e+001
2.583230e+003,1.469888e+001
2.584194e+003,1.436965e+001
2.585158e+003,1.407156e+001
2.586123e+003,1.391087e+001
2.587087e+003,1.364610e+001
2.588051e+003,1.279901e+001
2.589015e+003,1.161976e+001
2.589979e+003,1.088371e+001
2.590944e+003,1.046959e+001
2.591908e+003,9.906619e+000
2.592872e+003,9.271963e+000
2.593836e+003,8.747086e+000
2.594801e+003,8.361776e+000
2.595765e+003,8.484079e+000
2.596729e+003,8.592013e+000
2.597693e+003,7.041040e+000
2.598657e+003,4.333719e+000
2.599622e+003,3.114908e+000
2.600586e+003,3.852377e+000
2.601550e+003,4.605170e+000
2.602514e+003,5.131207e+000
2.603479e+003,5.540418e+000
2.604443e+003,6.036636e+000
2.605407e+003,5.637125e+000
2.606371e+003,4.051547e+000
2.607336e+003,3.041586e+000
2.608300e+003,2.997275e+000
2.609264e+003,3.576035e+000
2.610228e+003,4.531888e+000
2.611193e+003,4.469000e+000
2.612157e+003,2.661105e+000
2.613121e+003,1.310510e+000
2.614085e+003,2.383359e+000
2.615050e+003,3.359051e+000
2.616014e+003,1.257669e+000
2.616978e+003,-4.813263e-001
2.617942e+003,1.156070e+000
2.618906e+003,2.871750e+000
2.619871e+003,3.011368e+000
2.620835e+003,1.927618e+000
2.621799e+003,-1.212129e+000
2.622763e+003,-3.778481e+000
2.623728e+003,-3.161705e+000
2.624692e+003,-8.317825e-001
2.625656e+003,1.062067e+000
2.626620e+003,2.366534e+000
2.627584e+003,2.425671e+000
2.628549e+003,1.704236e+000
2.629513e+003,2.126715e+000
2.630477e+003,2.765115e+000
2.631441e+003,7.547668e-001
2.632406e+003,-2.124162e+000
2.633370e+003,-1.915590e+000
2.634334e+003,1.291443e-001
2.635298e+003,7.517273e-001
2.636263e+003,1.336060e-002
2.637227e+003,-4.162277e-001
2.638191e+003,-2.869675e-001
2.639155e+003,4.966766e-001
2.640120e+003,2.266650e+000
2.641084e+003,2.254871e+000
2.642048e+003,-1.344620e-001
2.643012e+003,-4.855896e-001
2.643977e+003,1.486920e+000
2.644941e+003,3.201239e+000
2.645905e+003,4.089023e+000
2.646869e+003,3.234387e+000
2.647833e+003,8.347901e-001
2.648798e+003,-5.944107e-001
2.649762e+003,-9.543304e-002
2.650726e+003,9.839142e-001
2.651690e+003,2.249658e+000
2.652655e+003,2.336823e+000
2.653619e+003,-6.830368e-001
2.654583e+003,-2.832768e+000
2.655547e+003,-2.927083e+000
2.656511e+003,-1.927212e+000
2.657476e+003,7.717407e-001
2.658440e+003,2.232886e+000
2.659404e+003,1.039041e+000
2.660368e+003,-6.894668e-001
2.661333e+003,-1.584245e+000
2.662297e+003,-1.789984e+000
2.663261e+003,-1.416722e+000
2.664225e+003,-8.460358e-001
2.665190e+003,-3.668228e-001
2.666154e+003,-2.250504e-001
2.667118e+003,-1.358746e+000
2.668082e+003,-2.160666e+000
2.669047e+003,-3.078903e-001
2.670011e+003,1.591849e+000
2.670975e+003,6.182373e-001
2.671939e+003,-1.105179e+000
2.672904e+003,-1.021570e+000
2.673868e+003,-2.035706e-001
2.674832e+003,-9.590606e-002
2.675796e+003,-6.161163e-001
2.676760e+003,-1.657932e+000
2.677725e+003,-3.006587e+000
2.678689e+003,-4.069307e+000
2.679653e+003,-4.523837e+000
2.680617e+003,-2.695865e+000
2.681582e+003,-2.993774e-002
2.682546e+003,5.045212e-001
2.683510e+003,-4.353104e-001
2.684474e+003,-1.632298e+000
2.685438e+003,-2.457954e+000
2.686403e+003,-1.788017e+000
2.687367e+003,1.393951e-001
2.688331e+003,1.191779e+000
2.689295e+003,1.308844e+000
2.690260e+003,1.579150e+000
2.691224e+003,2.124890e+000
2.692188e+003,1.321353e+000
2.693152e+003,-7.450760e-001
2.694117e+003,-1.321404e+000
2.695081e+003,-4.932617e-001
2.696045e+003,-5.498001e-001
2.697009e+003,-1.576588e+000
2.697974e+003,-1.812932e+000
2.698938e+003,-9.500092e-001
2.699902e+003,-2.915390e-001
2.700866e+003,-2.700836e-001
2.701831e+003,-3.700943e-001
2.702795e+003,-4.246857e-001
2.703759e+003,-6.949509e-001
2.704723e+003,-1.315955e+000
2.705688e+003,-1.767557e+000
2.706652e+003,-2.025049e+000
2.707616e+003,-1.871294e+000
2.708580e+003,-1.264034e+000
2.709544e+003,-9.613525e-001
2.710509e+003,-1.251096e+000
2.711473e+003,-1.767468e+000
2.712437e+003,-2.307873e+000
2.713401e+003,-2.562381e+000
2.714365e+003,-2.304063e+000
2.715330e+003,-1.719850e+000
2.716294e+003,-8.401337e-002
2.717258e+003,5.833756e-001
2.718222e+003,-1.359166e+000
2.719187e+003,-2.986856e+000
2.720151e+003,-3.402872e+000
2.721115e+003,-3.422171e+000
2.722079e+003,-3.413757e+000
2.723044e+003,-3.434579e+000
2.724008e+003,-3.536704e+000
2.724972e+003,-3.290860e+000
2.725936e+003,-2.149673e+000
2.726901e+003,-9.033020e-001
2.727865e+003,-2.684525e-001
2.728829e+003,-1.201736e-001
2.729793e+003,-6.199783e-001
2.730758e+003,-1.244499e+000
2.731722e+003,-1.474150e+000
2.732686e+003,-1.963429e+000
2.733650e+003,-3.769843e+000
2.734615e+003,-4.837662e+000
2.735579e+003,-3.181744e+000
2.736543e+003,-8.242096e-001
2.737507e+003,-5.038498e-001
2.738471e+003,-1.147052e+000
2.739436e+003,-7.928711e-001
2.740400e+003,-1.284790e-002
2.741364e+003,4.338684e-001
2.742328e+003,5.276749e-001
2.743292e+003,-1.500854e-001
2.744257e+003,-7.912064e-001
2.745221e+003,-6.257324e-002
2.746185e+003,7.857834e-001
2.747149e+003,-1.768723e-001
2.748114e+003,-1.794832e+000
2.749078e+003,-2.416194e+000
2.750042e+003,-2.221526e+000
2.751006e+003,-1.570551e+000
2.751971e+003,-6.731766e-001
2.752935e+003,-1.902145e-001
2.753899e+003,-6.024017e-002
2.754863e+003,-2.823440e-001
2.755828e+003,-6.408203e-001
2.756792e+003,-9.758179e-001
2.757756e+003,-1.106357e+000
2.758720e+003,-5.102829e-001
2.759685e+003,3.128220e-001
2.760649e+003,1.516113e-001
2.761613e+003,-6.829284e-001
2.762577e+003,-1.317314e+000
2.763542e+003,-1.700993e+000
2.764506e+003,-1.013481e+000
2.765470e+003,3.638245e-001
2.766434e+003,2.501785e-001
2.767398e+003,-8.576736e-001
2.768363e+003,-1.869716e+000
2.769327e+003,-2.542117e+000
2.770291e+003,-2.593828e+000
2.771255e+003,-2.166814e+000
2.772219e+003,-1.635103e+000
2.773184e+003,-1.029050e+000
2.774148e+003,-5.351562e-002
2.775112e+003,1.194812e+000
2.776076e+003,1.238138e+000
2.777041e+003,6.451263e-002
2.778005e+003,-1.272264e+000
2.778969e+003,-2.485111e+000
2.779933e+003,-1.329678e+000
2.780898e+003,9.915603e-001
2.781862e+003,1.243820e-001
2.782826e+003,-2.904932e+000
2.783790e+003,-3.855821e+000
2.784755e+003,-2.560008e+000
2.785719e+003,-1.506839e+000
2.786683e+003,-1.061093e+000
2.787647e+003,-7.713348e-001
2.788612e+003,-6.199204e-001
2.789576e+003,-1.032106e+000
2.790540e+003,-1.956036e+000
2.791504e+003,-1.963650e+000
2.792469e+003,-1.201118e+000
2.793433e+003,-7.573318e-001
2.794397e+003,-7.396210e-001
2.795361e+003,-8.449265e-001
2.796325e+003,-1.027065e+000
2.797290e+003,-1.476608e+000
2.798254e+003,-2.173790e+000
2.799218e+003,-2.532027e+000
2.800182e+003,-2.568054e+000
2.801146e+003,-1.757341e+000
2.802111e+003,6.744690e-002
2.803075e+003,1.119563e+000
2.804039e+003,1.316061e+000
2.805003e+003,9.470352e-001
2.805968e+003,1.465805e-001
2.806932e+003,-8.680176e-001
2.807896e+003,-1.862390e+000
2.808860e+003,-2.373196e+000
2.809825e+003,-2.397633e+000
2.810789e+003,-2.800244e+000
2.811753e+003,-3.971785e+000
2.812717e+003,-3.725829e+000
2.813682e+003,-1.634766e+000
2.814646e+003,-1.666214e-001
2.815610e+003,6.141297e-001
2.816574e+003,-3.602814e-001
2.817539e+003,-2.553921e+000
2.818503e+003,-2.937500e+000
2.819467e+003,-1.466580e+000
2.820431e+003,2.208557e-002
2.821396e+003,9.544266e-001
2.822360e+003,9.595474e-001
2.823324e+003,-1.923645e-001
2.824288e+003,-7.400513e-004
2.825252e+003,2.406564e+000
2.826217e+003,2.686560e+000
2.827181e+003,7.599701e-001
2.828145e+003,8.607971e-001
2.829109e+003,2.762872e+000
2.830073e+003,2.608740e+000
2.831038e+003,5.198532e-001
2.832002e+003,-6.122955e-001
2.832966e+003,-2.518112e-001
2.833930e+003,6.624985e-001
2.834895e+003,1.891251e+000
2.835859e+003,2.541157e+000
2.836823e+003,2.620425e+000
2.837787e+003,1.573935e+000
2.838752e+003,-7.434815e-001
2.839716e+003,-1.014775e+000
2.840680e+003,5.140899e-001
2.841644e+003,6.705887e-001
2.842609e+003,-4.970886e-001
2.843573e+003,-9.133347e-001
2.844537e+003,-4.564789e-001
2.845501e+003,-6.224442e-001
2.846466e+003,-1.629503e+000
2.847430e+003,-1.726233e+000
2.848394e+003,-5.562927e-001
2.849358e+003,-6.236160e-001
2.850323e+003,-2.044989e+000
2.851287e+003,-1.963512e+000
2.852251e+003,-6.171860e-001
2.853215e+003,-3.802261e-001
2.854179e+003,-9.512711e-001
2.855144e+003,-1.493683e-002
2.856108e+003,1.870815e+000
2.857072e+003,1.541190e+000
2.858036e+003,-1.054469e+000
2.859000e+003,-2.262015e+000
2.859965e+003,-1.843768e+000
2.860929e+003,-1.315585e+000
2.861893e+003,-6.978195e-001
2.862857e+003,3.708145e-001
2.863822e+003,1.641223e+000
2.864786e+003,1.332075e+000
2.865750e+003,2.057343e-001
2.866714e+003,1.136751e+000
2.867679e+003,3.184512e+000
2.868643e+003,2.927017e+000
2.869607e+003,5.990585e-001
2.870571e+003,-7.862213e-001
2.871536e+003,-1.125336e+000
2.872500e+003,-2.591431e-001
2.873464e+003,1.692776e+000
2.874428e+003,2.129686e+000
2.875393e+003,1.363490e+000
2.876357e+003,-2.004547e-002
2.877321e+003,-1.402052e+000
2.878285e+003,-1.754707e+000
2.879250e+003,-1.217807e+000
2.880214e+003,1.409302e-001
2.881178e+003,1.737247e+000
2.882142e+003,2.227866e+000
2.883106e+003,1.789815e+000
2.884071e+003,9.420517e-001
2.885035e+003,-1.102600e-001
2.885999e+003,-2.693008e-001
2.886963e+003,2.747818e-001
2.887927e+003,1.753145e+000
2.888892e+003,3.085994e+000
2.889856e+003,1.830574e+000
2.890820e+003,-9.618378e-002
2.891784e+003,1.041475e+000
2.892749e+003,3.159386e+000
2.893713e+003,2.435400e+000
2.894677e+003,2.406113e-001
2.895641e+003,-3.572662e-001
2.896606e+003,8.951569e-002
2.897570e+003,-1.467133e-002
2.898534e+003,-6.606750e-002
2.899498e+003,1.587553e+000
2.900463e+003,3.156175e+000
2.901427e+003,1.948531e+000
2.902391e+003,1.844223e-001
2.903355e+003,4.431702e-001
2.904320e+003,1.317818e+000
2.905284e+003,1.378981e+000
2.906248e+003,1.138577e+000
2.907212e+003,1.436249e+000
2.908177e+003,1.761334e+000
2.909141e+003,1.117558e+000
2.910105e+003,1.896088e-001
2.911069e+003,-5.042648e-001
2.912033e+003,-8.982483e-001
2.912998e+003,-6.131973e-001
2.913962e+003,-4.996185e-001
2.914926e+003,-1.293399e+000
2.915890e+003,-1.637192e+000
2.916854e+003,-4.580795e-001
2.917819e+003,6.552674e-001
2.918783e+003,2.564240e-002
2.919747e+003,-8.875580e-001
2.920711e+003,-3.937714e-001
2.921676e+003,1.776947e-001
2.922640e+003,7.408600e-002
2.923604e+003,-3.548462e-001
2.924568e+003,-1.504973e+000
2.925533e+003,-1.468192e+000
2.926497e+003,5.885330e-001
2.927461e+003,2.273286e+000
2.928425e+003,2.459630e+000
2.929390e+003,-2.080536e-001
2.930354e+003,-7.481023e+000
2.931318e+003,-1.164982e+001
2.932282e+003,-4.929477e+000
2.933247e+003,5.065735e-001
2.934211e+003,1.515549e+000
2.935175e+003,1.088342e+000
2.936139e+003,-1.147893e+000
2.937104e+003,-1.931033e+000
2.938068e+003,-6.222855e-001
2.939032e+003,3.646484e-001
2.939996e+003,2.919769e-001
2.940960e+003,3.820542e-001
2.941925e+003,1.085806e+000
2.942889e+003,1.205109e+000
2.943853e+003,1.193619e-001
2.944817e+003,-7.686478e-001
2.945781e+003,-1.453265e+000
2.946746e+003,-1.706799e+000
2.947710e+003,-1.533795e+000
2.948674e+003,-8.450867e-001
2.949638e+003,1.143143e-001
2.950603e+003,1.597214e-001
2.951567e+003,-3.963318e-001
2.952531e+003,5.976044e-001
2.953495e+003,3.249838e+000
2.954460e+003,4.601241e+000
2.955424e+003,4.576227e+000
2.956388e+003,2.738740e+000
2.957352e+003,-4.773987e-001
2.958317e+003,-2.175705e-001
2.959281e+003,2.157342e+000
2.960245e+003,2.824486e+000
2.961209e+003,2.139912e+000
2.962174e+003,8.962784e-001
2.963138e+003,-3.891144e-002
2.964102e+003,1.247476e+000
2.965066e+003,3.526134e+000
2.966031e+003,4.016072e+000
2.966995e+003,3.293849e+000
2.967959e+003,3.125346e+000
2.968923e+003,3.211810e+000
2.969887e+003,2.929256e+000
2.970852e+003,2.532126e+000
2.971816e+003,2.341457e+000
2.972780e+003,2.222348e+000
2.973744e+003,2.120497e+000
2.974708e+003,1.849275e+000
2.975673e+003,1.209784e+000
2.976637e+003,4.666168e-001
2.977601e+003,-1.261124e-001
2.978565e+003,-3.965439e-001
2.979530e+003,1.448791e-001
2.980494e+003,7.736252e-001
2.981458e+003,8.763611e-001
2.982422e+003,9.339920e-001
2.983387e+003,1.178532e+000
2.984351e+003,1.489896e+000
2.985315e+003,1.931325e+000
2.986279e+003,1.498314e+000
2.987244e+003,-2.614975e-001
2.988208e+003,-1.532047e+000
2.989172e+003,-1.155926e+000
2.990136e+003,-4.164475e-001
2.991101e+003,3.644943e-001
2.992065e+003,4.736893e-001
2.993029e+003,-7.888733e-001
2.993993e+003,-1.085100e+000
2.994958e+003,-1.386246e-001
2.995922e+003,8.543717e-001
2.996886e+003,1.603423e+000
2.997850e+003,2.071376e+000
2.998814e+003,2.240642e+000
2.999779e+003,1.949274e+000
3.000743e+003,1.168088e+000
3.001707e+003,9.343048e-001
3.002671e+003,1.444044e+000
3.003635e+003,1.470743e+000
3.004600e+003,1.049783e+000
3.005564e+003,9.401138e-001
3.006528e+003,1.023058e+000
3.007492e+003,5.283844e-001
3.008457e+003,-2.933044e-002
3.009421e+003,8.931793e-001
3.010385e+003,2.642684e+000
3.011349e+003,3.531795e+000
3.012314e+003,3.252097e+000
3.013278e+003,4.573669e-001
3.014242e+003,-3.242690e+000
3.015206e+003,-1.767221e+000
3.016171e+003,1.812491e+000
3.017135e+003,2.800476e+000
3.018099e+003,2.294302e+000
3.019063e+003,7.181854e-001
3.020028e+003,-4.794891e-001
3.020992e+003,-3.481751e-002
3.021956e+003,5.819656e-001
3.022920e+003,7.503510e-002
3.023885e+003,-7.129577e-001
3.024849e+003,-8.893661e-001
3.025813e+003,-7.385666e-001
3.026777e+003,4.670715e-003
3.027741e+003,1.406631e-001
3.028706e+003,-1.949497e+000
3.029670e+003,-2.880960e+000
3.030634e+003,-1.673866e+000
3.031598e+003,-1.967270e-001
3.032563e+003,8.630417e-001
3.033527e+003,1.218596e+000
3.034491e+003,8.372101e-001
3.035455e+003,5.064865e-001
3.036420e+003,5.384613e-001
3.037384e+003,9.566574e-001
3.038348e+003,2.238379e+000
3.039312e+003,2.048758e+000
3.040277e+003,3.692078e-001
3.041241e+003,-9.113159e-002
3.042205e+003,4.578064e-001
3.043169e+003,-3.173706e-001
3.044134e+003,-1.925983e+000
3.045098e+003,-1.713974e+000
3.046062e+003,1.088943e-001
3.047026e+003,9.205185e-001
3.047990e+003,8.144058e-001
3.048955e+003,4.424942e-001
3.049919e+003,-7.508697e-002
3.050883e+003,-2.127869e-001
3.051847e+003,-1.014679e-001
3.052812e+003,2.347778e-001
3.053776e+003,5.019470e-001
3.054740e+003,2.184509e-001
3.055704e+003,-1.838898e-001
3.056668e+003,-2.967880e-001
3.057633e+003,-2.299637e-001
3.058597e+003,-1.186783e-001
3.059561e+003,1.201065e-001
3.060525e+003,8.564758e-001
3.061490e+003,1.287085e+000
3.062454e+003,2.248703e-001
3.063418e+003,-3.361450e-001
3.064382e+003,6.941528e-001
3.065347e+003,1.213716e+000
3.066311e+003,6.425369e-001
3.067275e+003,4.002747e-001
3.068239e+003,9.913971e-001
3.069204e+003,1.662582e+000
3.070168e+003,2.058499e+000
3.071132e+003,1.696326e+000
3.072096e+003,-3.355148e-001
3.073061e+003,-5.570694e-001
3.074025e+003,1.253716e+000
3.074989e+003,2.769551e+000
3.075953e+003,3.711899e+000
3.076917e+003,3.604764e+000
3.077882e+003,2.656268e+000
3.078846e+003,1.244008e+000
3.079810e+003,-2.384506e-001
3.080774e+003,-1.070662e+000
3.081739e+003,-1.314812e+000
3.082703e+003,-1.068369e+000
3.083667e+003,-5.321640e-001
3.084631e+003,-5.680008e-001
3.085595e+003,-5.453018e-001
3.086560e+003,8.711990e-001
3.087524e+003,2.532716e+000
3.088488e+003,3.688251e+000
3.089452e+003,3.785831e+000
3.090417e+003,2.255046e+000
3.091381e+003,8.875748e-001
3.092345e+003,1.096788e+000
3.093309e+003,1.501862e+000
3.094274e+003,8.388672e-001
3.095238e+003,-2.875671e-002
3.096202e+003,-8.913574e-001
3.097166e+003,-1.155573e+000
3.098131e+003,-6.817734e-001
3.099095e+003,1.749558e-001
3.100059e+003,1.266508e+000
3.101023e+003,1.199522e+000
3.101988e+003,4.391632e-002
3.102952e+003,-2.338104e-002
3.103916e+003,1.385715e+000
3.104880e+003,1.859091e+000
3.105844e+003,1.093883e+000
3.106809e+003,8.320923e-001
3.107773e+003,9.757233e-001
3.108737e+003,1.220261e-001
3.109701e+003,-1.171269e+000
3.110666e+003,-1.546214e+000
3.111630e+003,-1.244211e+000
3.112594e+003,-5.792755e-001
3.113558e+003,1.102860e-001
3.114522e+003,5.059143e-001
3.115487e+003,5.760025e-001
3.116451e+003,1.818298e-001
3.117415e+003,-1.111893e-001
3.118379e+003,1.011023e+000
3.119344e+003,1.882312e+000
3.120308e+003,5.733597e-001
3.121272e+003,-3.418579e-001
3.122236e+003,1.485321e-001
3.123201e+003,8.908890e-001
3.124165e+003,1.491753e+000
3.125129e+003,1.322177e+000
3.126093e+003,2.345428e-001
3.127058e+003,-6.170059e-001
3.128022e+003,-7.649994e-001
3.128986e+003,-2.850693e-001
3.129950e+003,1.109668e+000
3.130915e+003,1.707629e+000
3.131879e+003,1.516229e+000
3.132843e+003,8.778992e-002
3.133807e+003,-1.782065e+000
3.134771e+003,-1.965479e+000
3.135736e+003,-8.506225e-001
3.136700e+003,7.714127e-001
3.137664e+003,1.986041e+000
3.138628e+003,1.208963e+000
3.139593e+003,-6.404327e-001
3.140557e+003,-1.995412e+000
3.141521e+003,-2.349400e+000
3.142485e+003,9.779358e-002
3.143449e+003,2.523184e+000
3.144414e+003,3.040706e+000
3.145378e+003,1.987949e+000
3.146342e+003,-8.488815e-001
3.147306e+003,-2.599858e+000
3.148271e+003,-1.943985e+000
3.149235e+003,-5.057068e-001
3.150199e+003,8.600952e-001
3.151163e+003,1.552861e+000
3.152128e+003,1.086647e+000
3.153092e+003,3.901138e-001
3.154056e+003,-5.795990e-001
3.155020e+003,-6.739181e-001
3.155985e+003,-1.482086e-001
3.156949e+003,-6.509231e-001
3.157913e+003,-1.813763e+000
3.158877e+003,-2.211952e+000
3.159842e+003,-1.905331e+000
3.160806e+003,-1.725432e+000
3.161770e+003,-1.554745e+000
3.162734e+003,-9.958847e-001
3.163698e+003,-2.445831e-001
3.164663e+003,4.504623e-001
3.165627e+003,8.499497e-001
3.166591e+003,2.611008e-001
3.167555e+003,3.169708e-002
3.168520e+003,1.247777e+000
3.169484e+003,1.623315e+000
3.170448e+003,8.974762e-002
3.171412e+003,-1.479909e+000
3.172376e+003,-1.988092e+000
3.173341e+003,-1.322862e+000
3.174305e+003,1.571233e+000
3.175269e+003,2.284940e+000
3.176233e+003,4.526978e-002
3.177198e+003,-1.697595e+000
3.178162e+003,-2.651721e+000
3.179126e+003,-1.843994e+000
3.180090e+003,-1.873306e-001
3.181055e+003,-6.966751e-001
3.182019e+003,-2.433824e+000
3.182983e+003,-1.725755e+000
3.183947e+003,4.248077e-001
3.184912e+003,1.655434e+000
3.185876e+003,2.025365e+000
3.186840e+003,1.074344e+000
3.187804e+003,5.586548e-002
3.188769e+003,1.024788e+000
3.189733e+003,1.278470e+000
3.190697e+003,-1.266898e+000
3.191661e+003,-2.826637e+000
3.192625e+003,-1.828390e+000
3.193590e+003,-2.073120e-001
3.194554e+003,9.682800e-001
3.195518e+003,9.850799e-001
3.196482e+003,-1.098340e+000
3.197447e+003,-1.591579e+000
3.198411e+003,8.910675e-002
3.199375e+003,7.644593e-001
3.200339e+003,5.560715e-001
3.201303e+003,1.033777e+000
3.202268e+003,1.770566e+000
3.203232e+003,1.134322e+000
3.204196e+003,-1.724335e-001
3.205160e+003,-3.539902e-001
3.206125e+003,9.333496e-002
3.207089e+003,3.045563e-001
3.208053e+003,2.994461e-001
3.209017e+003,-1.220413e-001
3.209982e+003,-4.257858e-001
3.210946e+003,-3.441421e-001
3.211910e+003,4.425690e-001
3.212874e+003,2.222763e+000
3.213839e+003,3.588452e+000
3.214803e+003,4.029138e+000
3.215767e+003,3.412987e+000
3.216731e+003,1.815794e+000
3.217696e+003,3.094238e-001
3.218660e+003,-8.474640e-001
3.219624e+003,-8.418854e-001
3.220588e+003,3.466766e-001
3.221552e+003,1.842101e+000
3.222517e+003,3.017862e+000
3.223481e+003,1.471905e+000
3.224445e+003,-1.155985e+000
3.225409e+003,-2.172841e+000
3.226374e+003,-1.902000e+000
3.227338e+003,-8.633026e-001
3.228302e+003,1.359848e-001
3.229266e+003,6.160126e-002
3.230230e+003,-3.368454e-001
3.231195e+003,-3.701691e-001
3.232159e+003,-1.977173e-001
3.233123e+003,3.125000e-001
3.234087e+003,4.937988e-001
3.235052e+003,2.425018e-001
3.236016e+003,3.299560e-002
3.236980e+003,-1.349945e-002
3.237944e+003,6.253052e-002
3.238909e+003,2.380051e-001
3.239873e+003,3.920547e-001
3.240837e+003,5.599182e-001
3.241801e+003,1.534862e+000
3.242766e+003,2.815781e+000
3.243730e+003,2.129207e+000
3.244694e+003,5.597412e-001
3.245658e+003,-7.917480e-001
3.246623e+003,-1.608405e+000
3.247587e+003,-1.687195e+000
3.248551e+003,-1.423479e+000
3.249515e+003,-1.061339e+000
3.250479e+003,-3.324539e-001
3.251444e+003,1.081285e+000
3.252408e+003,1.957401e+000
3.253372e+003,1.664964e+000
3.254336e+003,2.429153e-001
3.255301e+003,-2.480191e+000
3.256265e+003,-2.330861e+000
3.257229e+003,3.424988e-002
3.258193e+003,2.369125e-001
3.259157e+003,-1.326869e+000
3.260122e+003,-1.937859e+000
3.261086e+003,-1.617682e+000
3.262050e+003,-1.053621e+000
3.263014e+003,-5.533127e-001
3.263979e+003,-1.093513e+000
3.264943e+003,-1.733521e+000
3.265907e+003,-8.874680e-001
3.266871e+003,-4.261047e-001
3.267836e+003,-2.041272e+000
3.268800e+003,-2.019682e+000
3.269764e+003,6.477417e-001
3.270728e+003,1.542090e+000
3.271693e+003,-6.717697e-001
3.272657e+003,-2.647455e+000
3.273621e+003,-3.229527e+000
3.274585e+003,-1.993512e+000
3.275550e+003,1.125359e+000
3.276514e+003,1.592210e+000
3.277478e+003,3.390518e-001
3.278442e+003,-4.642197e-001
3.279406e+003,-7.041168e-001
3.280371e+003,-2.086288e-001
3.281335e+003,5.025147e-001
3.282299e+003,1.117082e+000
3.283263e+003,1.003383e+000
3.284228e+003,-5.987045e-001
3.285192e+003,-1.655649e+000
3.286156e+003,2.595932e-001
3.287120e+003,1.609171e+000
3.288084e+003,1.320128e+000
3.289049e+003,1.639928e+000
3.290013e+003,2.561636e+000
3.290977e+003,1.537505e+000
3.291941e+003,-7.787842e-001
3.292906e+003,-9.652389e-001
3.293870e+003,6.327316e-001
3.294834e+003,1.070665e+000
3.295798e+003,6.730881e-001
3.296763e+003,1.965500e-001
3.297727e+003,-2.570007e-001
3.298691e+003,-7.867355e-001
3.299655e+003,-7.858993e-001
3.300620e+003,6.992370e-001
3.301584e+003,1.958843e+000
3.302548e+003,2.517262e+000
3.303512e+003,2.736023e+000
3.304477e+003,2.807606e+000
3.305441e+003,3.028908e+000
3.306405e+003,3.497194e+000
3.307369e+003,2.833226e+000
3.308333e+003,9.312378e-001
3.309298e+003,2.982208e-001
3.310262e+003,6.467468e-001
3.311226e+003,1.531105e+000
3.312190e+003,2.360065e+000
3.313155e+003,2.317006e+000
3.314119e+003,1.818172e+000
3.315083e+003,1.176634e+000
3.316047e+003,6.384018e-001
3.317011e+003,3.876968e-001
3.317976e+003,5.208923e-001
3.318940e+003,1.409695e+000
3.319904e+003,1.930081e+000
3.320868e+003,1.947243e+000
3.321833e+003,1.243106e+000
3.322797e+003,1.400482e-001
3.323761e+003,7.905747e-001
3.324725e+003,2.566985e+000
3.325690e+003,3.375658e+000
3.326654e+003,3.109717e+000
3.327618e+003,2.179144e+000
3.328582e+003,1.094521e+000
3.329547e+003,8.475830e-001
3.330511e+003,1.048816e+000
3.331475e+003,1.699957e+000
3.332439e+003,1.761325e+000
3.333404e+003,4.042572e-001
3.334368e+003,4.046326e-001
3.335332e+003,2.122937e+000
3.336296e+003,2.002068e+000
3.337260e+003,-4.713928e-001
3.338225e+003,-2.154103e+000
3.339189e+003,-2.347919e+000
3.340153e+003,-2.242104e+000
3.341117e+003,-1.907202e+000
3.342082e+003,-1.783470e+000
3.343046e+003,-1.724963e+000
3.344010e+003,-1.213876e+000
3.344974e+003,-1.079918e+000
3.345938e+003,-2.305505e+000
3.346903e+003,-2.827653e+000
3.347867e+003,-1.691478e+000
3.348831e+003,-6.724625e-001
3.349795e+003,-7.445755e-001
3.350760e+003,-1.152405e+000
3.351724e+003,-1.925713e+000
3.352688e+003,-1.615454e+000
3.353652e+003,-3.748627e-001
3.354617e+003,7.993927e-002
3.355581e+003,-1.724243e-004
3.356545e+003,2.503113e-001
3.357509e+003,2.747681e-001
3.358474e+003,-8.736526e-001
3.359438e+003,-1.970662e+000
3.360402e+003,-1.879951e+000
3.361366e+003,-9.959289e-001
3.362331e+003,1.216132e+000
3.363295e+003,1.620267e+000
3.364259e+003,-2.215048e+000
3.365223e+003,-3.791161e+000
3.366188e+003,-2.860152e+000
3.367152e+003,-1.924954e+000
3.368116e+003,-1.469824e+000
3.369080e+003,-1.801121e+000
3.370044e+003,-2.361968e+000
3.371009e+003,-1.716011e+000
3.371973e+003,-8.152115e-001
3.372937e+003,-1.738501e+000
3.373901e+003,-3.037233e+000
3.374865e+003,-2.918698e+000
3.375830e+003,-2.616277e+000
3.376794e+003,-2.626643e+000
3.377758e+003,-2.597060e+000
3.378722e+003,-2.438312e+000
3.379687e+003,-1.943384e+000
3.380651e+003,-1.188571e+000
3.381615e+003,-7.870438e-001
3.382579e+003,-7.983780e-001
3.383544e+003,-8.533493e-001
3.384508e+003,-9.489762e-001
3.385472e+003,-1.033455e+000
3.386436e+003,-1.195482e+000
3.387401e+003,-1.613876e+000
3.388365e+003,-2.175166e+000
3.389329e+003,-2.982007e+000
3.390293e+003,-2.630742e+000
3.391258e+003,-7.373489e-001
3.392222e+003,2.763382e-001
3.393186e+003,-5.624359e-001
3.394150e+003,-2.636246e-001
3.395115e+003,1.536511e+000
3.396079e+003,1.526833e+000
3.397043e+003,3.239227e-001
3.398007e+003,-9.518921e-001
3.398971e+003,-1.233955e+000
3.399936e+003,2.004379e+000
3.400900e+003,4.960820e+000
3.401864e+003,5.344969e+000
3.402828e+003,4.240149e+000
3.403792e+003,2.325671e+000
3.404757e+003,1.296436e+000
3.405721e+003,2.603366e+000
3.406685e+003,3.080374e+000
3.407649e+003,2.606465e+000
3.408614e+003,3.178972e+000
3.409578e+003,4.742876e+000
3.410542e+003,7.648544e+000
3.411506e+003,1.025196e+001
3.412471e+003,1.002393e+001
3.413435e+003,8.978335e+000
3.414399e+003,8.967621e+000
3.415363e+003,1.006011e+001
3.416328e+003,1.310689e+001
3.417292e+003,1.523101e+001
3.418256e+003,1.524814e+001
3.419220e+003,1.502011e+001
3.420185e+003,1.473844e+001
3.421149e+003,1.468010e+001
3.422113e+003,1.462495e+001
3.423077e+003,1.379167e+001
3.424042e+003,1.258356e+001
3.425006e+003,1.178247e+001
3.425970e+003,1.156575e+001
3.426934e+003,1.270647e+001
