7.140112e+001,6.571310e+001
7.236536e+001,6.556941e+001
7.332959e+001,6.825844e+001
7.429382e+001,6.900618e+001
7.525806e+001,6.818896e+001
7.622229e+001,6.606974e+001
7.718652e+001,6.227629e+001
7.815076e+001,5.566453e+001
7.911499e+001,5.121617e+001
8.007922e+001,4.679686e+001
8.104346e+001,4.492286e+001
8.200769e+001,4.855235e+001
8.297192e+001,6.344860e+001
8.393616e+001,7.669543e+001
8.490039e+001,8.627165e+001
8.586462e+001,9.175963e+001
8.682886e+001,9.313715e+001
8.779310e+001,8.798353e+001
8.875733e+001,7.967652e+001
8.972157e+001,6.870734e+001
9.068580e+001,5.594620e+001
9.165003e+001,4.270942e+001
9.261427e+001,3.594118e+001
9.357850e+001,3.368938e+001
9.454273e+001,3.421455e+001
9.550697e+001,3.672136e+001
9.647120e+001,4.272573e+001
9.743543e+001,4.488921e+001
9.839967e+001,4.157701e+001
9.936390e+001,3.602899e+001
1.003281e+002,3.199887e+001
1.012924e+002,3.084263e+001
1.022566e+002,3.006981e+001
1.032208e+002,2.953118e+001
1.041851e+002,2.916753e+001
1.051493e+002,2.894522e+001
1.061135e+002,2.918900e+001
1.070778e+002,2.921525e+001
1.080420e+002,2.865243e+001
1.090062e+002,2.741145e+001
1.099705e+002,2.571305e+001
1.109347e+002,2.346484e+001
1.118989e+002,2.114174e+001
1.128632e+002,1.981713e+001
1.138274e+002,2.028958e+001
1.147916e+002,2.294627e+001
1.157559e+002,2.492569e+001
1.167201e+002,2.667131e+001
1.176843e+002,2.775505e+001
1.186486e+002,2.748431e+001
1.196128e+002,2.387656e+001
1.205770e+002,2.156440e+001
1.215413e+002,2.182623e+001
1.225055e+002,2.360646e+001
1.234697e+002,2.455001e+001
1.244340e+002,2.211229e+001
1.253982e+002,1.918959e+001
1.263624e+002,1.570870e+001
1.273267e+002,1.223535e+001
1.282909e+002,1.018584e+001
1.292551e+002,1.508037e+001
1.302194e+002,2.214064e+001
1.311836e+002,2.713055e+001
1.321478e+002,2.735369e+001
1.331121e+002,2.270556e+001
1.340763e+002,1.842334e+001
1.350405e+002,1.434034e+001
1.360048e+002,1.103499e+001
1.369690e+002,9.072528e+000
1.379332e+002,8.807727e+000
1.388975e+002,1.005095e+001
1.398617e+002,1.398181e+001
1.408259e+002,1.887119e+001
1.417902e+002,2.203173e+001
1.427544e+002,2.148844e+001
1.437186e+002,1.982273e+001
1.446829e+002,1.691279e+001
1.456471e+002,1.331412e+001
1.466113e+002,1.008978e+001
1.475756e+002,8.253271e+000
1.485398e+002,7.899384e+000
1.495040e+002,1.041127e+001
1.504683e+002,1.590701e+001
1.514325e+002,2.317385e+001
1.523967e+002,2.485541e+001
1.533610e+002,2.225756e+001
1.543252e+002,1.834559e+001
1.552894e+002,1.509824e+001
1.562537e+002,1.263939e+001
1.572179e+002,1.083513e+001
1.581821e+002,8.692377e+000
1.591464e+002,7.568652e+000
1.601106e+002,9.353357e+000
1.610748e+002,1.779228e+001
1.620391e+002,2.337355e+001
1.630033e+002,2.322628e+001
1.639676e+002,1.931147e+001
1.649318e+002,1.462722e+001
1.658960e+002,1.099467e+001
1.668603e+002,8.832642e+000
1.678245e+002,9.026800e+000
1.687887e+002,1.116693e+001
1.697530e+002,1.412731e+001
1.707172e+002,1.487819e+001
1.716814e+002,1.408049e+001
1.726457e+002,1.312819e+001
1.736099e+002,1.252255e+001
1.745741e+002,1.228245e+001
1.755384e+002,1.129294e+001
1.765026e+002,8.701062e+000
1.774668e+002,6.483691e+000
1.784311e+002,6.121600e+000
1.793953e+002,8.807226e+000
1.803595e+002,9.657550e+000
1.813238e+002,6.300482e+000
1.822880e+002,2.223694e+000
1.832522e+002,4.104187e-001
1.842165e+002,3.551129e+000
1.851807e+002,7.064136e+000
1.861449e+002,7.431287e+000
1.871092e+002,5.906769e+000
1.880734e+002,4.143579e+000
1.890376e+002,4.365143e+000
1.900019e+002,6.004388e+000
1.909661e+002,7.130341e+000
1.919303e+002,7.633960e+000
1.928946e+002,7.872772e+000
1.938588e+002,9.008245e+000
1.948230e+002,1.161747e+001
1.957873e+002,1.382917e+001
1.967515e+002,1.421722e+001
1.977157e+002,1.298533e+001
1.986800e+002,1.568967e+001
1.996442e+002,2.395196e+001
2.006084e+002,3.455801e+001
2.015727e+002,5.010004e+001
2.025369e+002,7.098628e+001
2.035011e+002,8.492801e+001
2.044654e+002,7.965784e+001
2.054296e+002,6.753307e+001
2.063938e+002,5.397092e+001
2.073581e+002,4.272840e+001
2.083223e+002,3.505437e+001
2.092865e+002,3.297419e+001
2.102508e+002,3.521909e+001
2.112150e+002,4.095848e+001
2.121792e+002,4.949778e+001
2.131435e+002,6.216270e+001
2.141077e+002,6.802053e+001
2.150719e+002,6.428853e+001
2.160362e+002,5.636625e+001
2.170004e+002,5.224725e+001
2.179646e+002,5.515673e+001
2.189289e+002,5.799707e+001
2.198931e+002,5.814204e+001
2.208573e+002,5.777075e+001
2.218216e+002,6.127962e+001
2.227858e+002,7.586009e+001
2.237500e+002,9.079512e+001
2.247143e+002,1.052602e+002
2.256785e+002,1.168261e+002
2.266427e+002,1.216764e+002
2.276070e+002,1.071911e+002
2.285712e+002,8.280920e+001
2.295354e+002,5.941042e+001
2.304997e+002,4.038801e+001
2.314639e+002,2.577916e+001
2.324281e+002,1.758259e+001
2.333924e+002,1.678875e+001
2.343566e+002,1.655198e+001
2.353208e+002,1.407078e+001
2.362851e+002,8.739416e+000
2.372493e+002,5.043115e+000
2.382135e+002,3.583551e+000
2.391778e+002,2.926282e+000
2.401420e+002,2.745172e+000
2.411062e+002,3.093280e+000
2.420705e+002,2.809442e+000
2.430347e+002,3.864929e-001
2.439989e+002,-2.402002e+000
2.449632e+002,-4.109393e+000
2.459274e+002,-3.585272e+000
2.468916e+002,-1.754504e+000
2.478559e+002,-6.404053e-001
2.488201e+002,-1.257996e-001
2.497843e+002,-1.250427e-001
2.507486e+002,-5.488952e-001
2.517128e+002,-1.502643e+000
2.526770e+002,-2.098181e+000
2.536413e+002,-2.732770e+000
2.546055e+002,-2.953833e+000
2.555697e+002,-1.869940e+000
2.565340e+002,2.697791e+000
2.574982e+002,5.480353e+000
2.584625e+002,5.233032e+000
2.594267e+002,3.269183e+000
2.603909e+002,1.836218e+000
2.613552e+002,2.597101e+000
2.623194e+002,3.578412e+000
2.632836e+002,4.141040e+000
2.642479e+002,4.201709e+000
2.652121e+002,3.827991e+000
2.661763e+002,2.861023e+000
2.671406e+002,1.648767e+000
2.681048e+002,7.382690e-001
2.690690e+002,2.169739e-001
2.700333e+002,-6.448364e-002
2.709975e+002,-6.924866e-001
2.719617e+002,-1.883807e+000
2.729260e+002,-2.604645e+000
2.738902e+002,-2.379059e+000
2.748544e+002,-1.223840e+000
2.758187e+002,-4.900818e-001
2.767829e+002,-6.890137e-001
2.777471e+002,-9.461731e-001
2.787114e+002,-7.898437e-001
2.796756e+002,-1.571960e-001
2.806398e+002,8.182983e-002
2.816041e+002,-1.753522e+000
2.825683e+002,-3.555688e+000
2.835325e+002,-3.848517e+000
2.844968e+002,-2.120605e+000
2.854610e+002,3.898010e-001
2.864252e+002,3.403320e-001
2.873895e+002,-1.068732e+000
2.883537e+002,-2.043695e+000
2.893179e+002,-1.427655e+000
2.902822e+002,9.423523e-001
2.912464e+002,1.956934e+000
2.922106e+002,1.562622e+000
2.931749e+002,5.555359e-001
2.941391e+002,-8.719482e-001
2.951033e+002,-3.266895e+000
2.960676e+002,-4.346014e+000
2.970318e+002,-3.012640e+000
2.979960e+002,-1.207983e+000
2.989603e+002,-3.344299e-001
2.999245e+002,-1.191455e+000
3.008887e+002,-2.359814e+000
3.018530e+002,-3.005170e+000
3.028172e+002,-3.245514e+000
3.037814e+002,-3.094812e+000
3.047457e+002,-2.544684e+000
3.057099e+002,-1.676978e+000
3.066741e+002,-6.894470e-001
3.076384e+002,2.942688e-001
3.086026e+002,7.394959e-001
3.095668e+002,1.614380e-002
3.105311e+002,-2.467255e+000
3.114953e+002,-3.689362e+000
3.124595e+002,-2.982703e+000
3.134238e+002,-1.642590e+000
3.143880e+002,-1.255219e+000
3.153522e+002,-2.788672e+000
3.163165e+002,-3.782098e+000
3.172807e+002,-3.646942e+000
3.182449e+002,-2.791400e+000
3.192092e+002,-1.663977e+000
3.201734e+002,-4.642151e-001
3.211376e+002,6.359375e-001
3.221019e+002,1.688074e+000
3.230661e+002,2.616492e+000
3.240303e+002,3.254303e+000
3.249946e+002,3.338068e+000
3.259588e+002,2.953424e+000
3.269230e+002,2.978021e+000
3.278873e+002,3.421118e+000
3.288515e+002,4.080920e+000
3.298157e+002,4.605639e+000
3.307800e+002,4.908185e+000
3.317442e+002,5.425458e+000
3.327084e+002,5.864435e+000
3.336727e+002,6.471704e+000
3.346369e+002,7.844476e+000
3.356011e+002,1.144378e+001
3.365654e+002,1.391437e+001
3.375296e+002,1.359224e+001
3.384938e+002,1.186467e+001
3.394581e+002,1.089235e+001
3.404223e+002,1.275743e+001
3.413865e+002,1.586054e+001
3.423508e+002,1.832244e+001
3.433150e+002,2.048695e+001
3.442792e+002,2.336806e+001
3.452435e+002,2.874837e+001
3.462077e+002,3.667492e+001
3.471719e+002,4.269979e+001
3.481362e+002,4.542689e+001
3.491004e+002,4.789517e+001
3.500646e+002,5.686904e+001
3.510289e+002,7.301864e+001
3.519931e+002,9.772372e+001
3.529573e+002,1.334792e+002
3.539216e+002,1.770695e+002
3.548858e+002,2.249556e+002
3.558500e+002,2.914205e+002
3.568143e+002,3.380919e+002
3.577785e+002,3.513593e+002
3.587427e+002,3.367823e+002
3.597070e+002,3.036206e+002
3.606712e+002,2.533860e+002
3.616354e+002,1.981246e+002
3.625997e+002,1.520710e+002
3.635639e+002,1.161592e+002
3.645281e+002,8.937128e+001
3.654924e+002,6.978256e+001
3.664566e+002,5.956297e+001
3.674208e+002,5.048548e+001
3.683851e+002,4.242450e+001
3.693493e+002,3.549853e+001
3.703135e+002,3.009082e+001
3.712778e+002,2.759844e+001
3.722420e+002,2.524405e+001
3.732062e+002,2.248010e+001
3.741705e+002,1.977668e+001
3.751347e+002,1.795409e+001
3.760989e+002,1.791313e+001
3.770632e+002,1.823879e+001
3.780274e+002,1.820902e+001
3.789916e+002,1.783881e+001
3.799559e+002,1.720297e+001
3.809201e+002,1.628375e+001
3.818844e+002,1.550840e+001
3.828486e+002,1.594670e+001
3.838128e+002,1.747515e+001
3.847771e+002,1.910412e+001
3.857413e+002,1.932295e+001
3.867055e+002,1.725021e+001
3.876698e+002,1.615594e+001
3.886340e+002,1.593495e+001
3.895982e+002,1.653559e+001
3.905625e+002,1.818480e+001
3.915267e+002,2.236075e+001
3.924909e+002,2.491888e+001
3.934552e+002,2.461594e+001
3.944194e+002,2.284293e+001
3.953836e+002,2.096717e+001
3.963479e+002,1.962239e+001
3.973121e+002,1.882828e+001
3.982763e+002,1.868061e+001
3.992406e+002,1.890996e+001
4.002048e+002,1.904699e+001
4.011690e+002,1.860736e+001
4.021333e+002,1.779785e+001
4.030975e+002,1.801867e+001
4.040617e+002,1.922639e+001
4.050260e+002,2.122171e+001
4.059902e+002,2.385611e+001
4.069544e+002,2.729606e+001
4.079187e+002,3.096067e+001
4.088829e+002,3.521362e+001
4.098471e+002,3.931038e+001
4.108114e+002,4.203576e+001
4.117756e+002,4.221975e+001
4.127398e+002,4.517191e+001
4.137041e+002,5.623326e+001
4.146683e+002,6.806952e+001
4.156325e+002,7.549438e+001
4.165968e+002,7.577087e+001
4.175610e+002,7.139922e+001
4.185252e+002,6.514650e+001
4.194895e+002,5.826085e+001
4.204537e+002,5.213220e+001
4.214179e+002,4.767704e+001
4.223822e+002,4.490873e+001
4.233464e+002,4.441515e+001
4.243106e+002,4.608732e+001
4.252749e+002,4.829862e+001
4.262391e+002,4.956428e+001
4.272033e+002,4.955303e+001
4.281676e+002,5.361500e+001
4.291318e+002,6.239207e+001
4.300960e+002,7.449619e+001
4.310603e+002,8.961838e+001
4.320245e+002,1.075375e+002
4.329887e+002,1.284323e+002
4.339530e+002,1.549050e+002
4.349172e+002,1.829762e+002
4.358814e+002,2.142233e+002
4.368457e+002,2.466455e+002
4.378099e+002,2.750440e+002
4.387741e+002,2.882332e+002
4.397384e+002,2.878684e+002
4.407026e+002,2.778660e+002
4.416668e+002,2.581122e+002
4.426311e+002,2.313918e+002
4.435953e+002,2.070627e+002
4.445595e+002,1.846365e+002
4.455238e+002,1.660390e+002
4.464880e+002,1.523562e+002
4.474522e+002,1.424925e+002
4.484165e+002,1.344696e+002
4.493807e+002,1.295428e+002
4.503449e+002,1.245487e+002
4.513092e+002,1.191406e+002
4.522734e+002,1.127661e+002
4.532376e+002,1.045434e+002
4.542019e+002,9.319890e+001
4.551661e+002,8.090646e+001
4.561303e+002,6.982040e+001
4.570946e+002,6.027964e+001
4.580588e+002,5.294395e+001
4.590230e+002,4.855938e+001
4.599873e+002,4.750205e+001
4.609515e+002,4.711157e+001
4.619157e+002,4.767275e+001
4.628800e+002,4.813511e+001
4.638442e+002,4.702954e+001
4.648084e+002,4.283431e+001
4.657727e+002,4.208276e+001
4.667369e+002,4.675163e+001
4.677011e+002,5.265773e+001
4.686654e+002,5.763627e+001
4.696296e+002,6.106438e+001
4.705938e+002,6.314342e+001
4.715581e+002,6.407513e+001
4.725223e+002,6.386465e+001
4.734865e+002,6.210739e+001
4.744508e+002,5.885059e+001
4.754150e+002,5.478613e+001
4.763792e+002,5.151905e+001
4.773435e+002,4.877511e+001
4.783077e+002,4.586720e+001
4.792719e+002,4.254588e+001
4.802362e+002,3.897885e+001
4.812004e+002,3.601896e+001
4.821646e+002,3.405314e+001
4.831289e+002,3.213212e+001
4.840931e+002,3.016244e+001
4.850573e+002,2.809377e+001
4.860216e+002,2.577695e+001
4.869858e+002,2.261704e+001
4.879500e+002,2.038724e+001
4.889143e+002,2.034211e+001
4.898785e+002,2.138007e+001
4.908427e+002,2.166873e+001
4.918070e+002,1.935503e+001
4.927712e+002,1.611841e+001
4.937354e+002,1.480097e+001
4.946997e+002,1.500474e+001
4.956639e+002,1.567803e+001
4.966281e+002,1.574135e+001
4.975924e+002,1.510886e+001
4.985566e+002,1.599045e+001
4.995208e+002,1.862300e+001
5.004851e+002,2.185168e+001
5.014493e+002,2.493184e+001
5.024135e+002,2.781979e+001
5.033778e+002,3.084669e+001
5.043420e+002,3.449705e+001
5.053063e+002,3.808122e+001
5.062705e+002,4.176991e+001
5.072347e+002,4.532030e+001
5.081990e+002,4.717244e+001
5.091632e+002,4.483320e+001
5.101274e+002,4.063824e+001
5.110917e+002,3.480663e+001
5.120559e+002,2.805695e+001
5.130201e+002,2.177558e+001
5.139844e+002,1.898189e+001
5.149486e+002,1.938346e+001
5.159128e+002,1.893827e+001
5.168771e+002,1.718093e+001
5.178413e+002,1.442944e+001
5.188055e+002,1.128950e+001
5.197698e+002,6.881836e+000
5.207340e+002,3.473395e+000
5.216982e+002,1.135254e+000
5.226625e+002,-3.055176e-001
5.236267e+002,-9.344971e-001
5.245909e+002,-6.206115e-001
5.255552e+002,1.297363e-001
5.265194e+002,1.761176e+000
5.274836e+002,3.200562e+000
5.284479e+002,3.245325e+000
5.294121e+002,1.300366e+000
5.303763e+002,-1.480231e+000
5.313406e+002,-2.846259e+000
5.323048e+002,-3.133881e+000
5.332690e+002,-2.236743e+000
5.342333e+002,1.210327e-002
5.351975e+002,3.257806e+000
5.361617e+002,4.528607e+000
5.371260e+002,2.402393e+000
5.380902e+002,6.038941e-001
5.390544e+002,-2.373413e-001
5.400187e+002,-3.424683e-001
5.409829e+002,-3.034912e-001
5.419471e+002,3.216553e-002
5.429114e+002,2.797302e-001
5.438756e+002,3.993225e-001
5.448398e+002,3.168884e-001
5.458041e+002,-1.374085e-001
5.467683e+002,-1.222906e+000
5.477325e+002,-2.290820e+000
5.486968e+002,-2.394092e+000
5.496610e+002,-1.853333e+000
5.506252e+002,-1.239319e+000
5.515895e+002,-1.022308e+000
5.525537e+002,-1.203558e+000
5.535179e+002,-1.308557e+000
5.544822e+002,-1.346295e+000
5.554464e+002,-1.231171e+000
5.564106e+002,-7.476074e-001
5.573749e+002,8.331909e-002
5.583391e+002,2.524536e-001
5.593033e+002,-9.862976e-001
5.602676e+002,-2.167950e+000
5.612318e+002,-2.999353e+000
5.621960e+002,-3.453381e+000
5.631603e+002,-3.554602e+000
5.641245e+002,-2.838159e+000
5.650887e+002,-2.380896e+000
5.660530e+002,-3.776862e+000
5.670172e+002,-6.183936e+000
5.679814e+002,-7.560193e+000
5.689457e+002,-5.600494e+000
5.699099e+002,-7.363037e-001
5.708741e+002,6.941468e-001
5.718384e+002,-1.592529e+000
5.728026e+002,-4.472608e+000
5.737668e+002,-5.397101e+000
5.747311e+002,-3.932855e+000
5.756953e+002,-2.687024e+000
5.766595e+002,-1.287836e+000
5.776238e+002,-4.574585e-001
5.785880e+002,-7.347778e-001
5.795522e+002,-2.005640e+000
5.805165e+002,-3.328393e+000
5.814807e+002,-4.154504e+000
5.824449e+002,-4.716071e+000
5.834092e+002,-5.259656e+000
5.843734e+002,-5.694903e+000
5.853376e+002,-5.663361e+000
5.863019e+002,-4.598566e+000
5.872661e+002,-2.867401e+000
5.882303e+002,-2.509521e+000
5.891946e+002,-3.556683e+000
5.901588e+002,-4.786017e+000
5.911230e+002,-4.873523e+000
5.920873e+002,-3.374152e+000
5.930515e+002,-2.544537e+000
5.940157e+002,-2.576331e+000
5.949800e+002,-2.794061e+000
5.959442e+002,-3.027295e+000
5.969084e+002,-3.235028e+000
5.978727e+002,-3.136322e+000
5.988369e+002,-1.598401e+000
5.998011e+002,-5.182861e-001
6.007654e+002,-1.158795e+000
6.017296e+002,-3.125067e+000
6.026938e+002,-5.071973e+000
6.036581e+002,-5.459729e+000
6.046223e+002,-4.733704e+000
6.055865e+002,-4.562457e+000
6.065508e+002,-4.889313e+000
6.075150e+002,-5.137982e+000
6.084792e+002,-4.658813e+000
6.094435e+002,-3.223181e+000
6.104077e+002,-2.109424e+000
6.113719e+002,-1.297723e+000
6.123362e+002,-7.696289e-001
6.133004e+002,-7.569153e-001
6.142646e+002,-1.239569e+000
6.152289e+002,-1.264862e+000
6.161931e+002,4.939636e-001
6.171573e+002,1.926904e+000
6.181216e+002,1.752289e+000
6.190858e+002,5.664551e-001
6.200500e+002,1.756592e-002
6.210143e+002,1.831219e+000
6.219785e+002,5.044421e+000
6.229427e+002,7.712018e+000
6.239070e+002,9.760846e+000
6.248712e+002,1.098288e+001
6.258354e+002,1.112506e+001
6.267997e+002,1.002150e+001
6.277639e+002,1.036254e+001
6.287281e+002,1.300409e+001
6.296924e+002,1.540340e+001
6.306566e+002,1.648328e+001
6.316208e+002,1.631469e+001
6.325851e+002,1.576329e+001
6.335493e+002,1.499298e+001
6.345135e+002,1.400071e+001
6.354778e+002,1.237389e+001
6.364420e+002,1.049927e+001
6.374063e+002,9.110217e+000
6.383705e+002,8.861133e+000
6.393347e+002,9.213489e+000
6.402990e+002,9.242004e+000
6.412632e+002,9.053680e+000
6.422274e+002,8.808741e+000
6.431917e+002,8.609027e+000
6.441559e+002,8.444385e+000
6.451201e+002,8.567248e+000
6.460844e+002,9.253571e+000
6.470486e+002,9.657862e+000
6.480128e+002,9.613050e+000
6.489771e+002,9.117193e+000
6.499413e+002,8.048920e+000
6.509055e+002,5.198029e+000
6.518698e+002,3.367200e+000
6.528340e+002,3.923859e+000
6.537982e+002,5.652899e+000
6.547625e+002,7.047620e+000
6.557267e+002,7.241663e+000
6.566909e+002,6.692584e+000
6.576552e+002,5.828162e+000
6.586194e+002,4.860120e+000
6.595836e+002,4.155188e+000
6.605479e+002,3.913013e+000
6.615121e+002,4.076807e+000
6.624763e+002,4.309247e+000
6.634406e+002,4.663135e+000
6.644048e+002,4.903100e+000
6.653690e+002,4.740015e+000
6.663333e+002,4.415991e+000
6.672975e+002,4.497552e+000
6.682617e+002,5.370203e+000
6.692260e+002,6.160285e+000
6.701902e+002,6.835340e+000
6.711544e+002,7.246375e+000
6.721187e+002,7.099664e+000
6.730829e+002,6.313855e+000
6.740471e+002,5.396362e+000
6.750114e+002,5.032721e+000
6.759756e+002,5.051849e+000
6.769398e+002,5.558173e+000
6.779041e+002,6.457776e+000
6.788683e+002,7.226746e+000
6.798325e+002,6.884302e+000
6.807968e+002,4.959009e+000
6.817610e+002,3.714050e+000
6.827252e+002,3.336017e+000
6.836895e+002,3.431073e+000
6.846537e+002,3.607764e+000
6.856179e+002,3.774609e+000
6.865822e+002,4.465625e+000
6.875464e+002,6.638757e+000
6.885106e+002,8.539459e+000
6.894749e+002,9.262464e+000
6.904391e+002,8.929822e+000
6.914034e+002,8.386023e+000
6.923676e+002,8.334864e+000
6.933318e+002,8.575470e+000
6.942961e+002,8.606836e+000
6.952603e+002,8.567230e+000
6.962245e+002,8.962469e+000
6.971888e+002,1.027503e+001
6.981530e+002,1.250002e+001
6.991172e+002,1.383759e+001
7.000815e+002,1.379717e+001
7.010457e+002,1.396517e+001
7.020099e+002,1.519102e+001
7.029742e+002,1.723886e+001
7.039384e+002,1.886115e+001
7.049026e+002,1.983587e+001
7.058669e+002,2.013202e+001
7.068311e+002,1.909410e+001
7.077953e+002,1.766384e+001
7.087596e+002,1.714880e+001
7.097238e+002,1.831427e+001
7.106880e+002,1.991368e+001
7.116523e+002,1.937775e+001
7.126165e+002,1.793692e+001
7.135807e+002,1.766686e+001
7.145450e+002,1.934371e+001
7.155092e+002,2.204495e+001
7.164734e+002,2.320123e+001
7.174377e+002,2.185609e+001
7.184019e+002,2.075136e+001
7.193661e+002,1.994347e+001
7.203304e+002,1.925030e+001
7.212946e+002,1.859206e+001
7.222589e+002,1.807466e+001
7.232231e+002,1.723979e+001
7.241873e+002,1.513531e+001
7.251516e+002,1.337298e+001
7.261158e+002,1.319450e+001
7.270800e+002,1.434736e+001
7.280443e+002,1.532490e+001
7.290085e+002,1.441922e+001
7.299727e+002,1.255050e+001
7.309370e+002,1.170253e+001
7.319012e+002,1.180728e+001
7.328654e+002,1.220836e+001
7.338297e+002,1.232510e+001
7.347939e+002,1.213943e+001
7.357581e+002,1.182801e+001
7.367224e+002,1.156768e+001
7.376866e+002,1.098793e+001
7.386508e+002,9.511744e+000
7.396151e+002,7.626245e+000
7.405793e+002,6.762872e+000
7.415435e+002,7.898261e+000
7.425078e+002,9.223096e+000
7.434720e+002,9.753937e+000
7.444362e+002,1.004807e+001
7.454005e+002,1.082775e+001
7.463647e+002,1.238810e+001
7.473289e+002,1.414400e+001
7.482932e+002,1.498912e+001
7.492574e+002,1.520280e+001
7.502216e+002,1.522633e+001
7.511859e+002,1.511021e+001
7.521501e+002,1.480902e+001
7.531143e+002,1.423140e+001
7.540786e+002,1.304779e+001
7.550428e+002,1.260469e+001
7.560070e+002,1.295078e+001
7.569713e+002,1.377837e+001
7.579355e+002,1.539318e+001
7.588997e+002,1.760965e+001
7.598640e+002,1.879353e+001
7.608282e+002,1.685497e+001
7.617924e+002,1.483528e+001
7.627567e+002,1.439850e+001
7.637209e+002,1.512522e+001
7.646851e+002,1.588331e+001
7.656494e+002,1.574391e+001
7.666136e+002,1.515341e+001
7.675778e+002,1.634445e+001
7.685421e+002,1.903791e+001
7.695063e+002,2.090742e+001
7.704705e+002,2.064604e+001
7.714348e+002,1.885983e+001
7.723990e+002,1.799717e+001
7.733632e+002,1.878733e+001
7.743275e+002,1.940506e+001
7.752917e+002,1.939936e+001
7.762559e+002,1.944080e+001
7.772202e+002,2.022180e+001
7.781844e+002,2.191130e+001
7.791486e+002,2.370167e+001
7.801129e+002,2.552530e+001
7.810771e+002,2.669269e+001
7.820413e+002,2.594061e+001
7.830056e+002,2.377308e+001
7.839698e+002,2.209829e+001
7.849340e+002,2.315645e+001
7.858983e+002,2.682187e+001
7.868625e+002,2.904312e+001
7.878267e+002,2.968769e+001
7.887910e+002,2.977122e+001
7.897552e+002,2.949385e+001
7.907194e+002,2.899639e+001
7.916837e+002,2.932593e+001
7.926479e+002,3.156662e+001
7.936121e+002,3.328588e+001
7.945764e+002,3.374832e+001
7.955406e+002,3.357502e+001
7.965048e+002,3.322250e+001
7.974691e+002,3.291377e+001
7.984333e+002,3.340568e+001
7.993975e+002,3.664032e+001
8.003618e+002,4.077223e+001
8.013260e+002,4.388780e+001
8.022902e+002,4.562677e+001
8.032545e+002,4.664761e+001
8.042187e+002,4.794954e+001
8.051829e+002,4.959596e+001
8.061472e+002,5.146694e+001
8.071114e+002,5.361089e+001
8.080756e+002,5.576493e+001
8.090399e+002,5.743688e+001
8.100041e+002,5.887735e+001
8.109683e+002,6.170634e+001
8.119326e+002,6.763634e+001
8.128968e+002,7.334501e+001
8.138610e+002,7.704425e+001
8.148253e+002,8.005874e+001
8.157895e+002,8.402064e+001
8.167537e+002,8.976024e+001
8.177180e+002,9.649959e+001
8.186822e+002,1.035859e+002
8.196464e+002,1.105469e+002
8.206107e+002,1.160011e+002
8.215749e+002,1.194975e+002
8.225391e+002,1.218728e+002
8.235034e+002,1.247208e+002
8.244676e+002,1.292025e+002
8.254318e+002,1.299925e+002
8.263961e+002,1.260782e+002
8.273603e+002,1.211528e+002
8.283245e+002,1.166412e+002
8.292888e+002,1.124455e+002
8.302530e+002,1.076491e+002
8.312172e+002,1.011676e+002
8.321815e+002,9.520409e+001
8.331457e+002,9.114986e+001
8.341099e+002,8.858320e+001
8.350742e+002,8.731419e+001
8.360384e+002,8.703460e+001
8.370026e+002,8.680928e+001
8.379669e+002,8.421793e+001
8.389311e+002,7.909127e+001
8.398953e+002,7.440752e+001
8.408596e+002,7.043856e+001
8.418238e+002,6.701211e+001
8.427880e+002,6.397587e+001
8.437523e+002,6.132808e+001
8.447165e+002,5.919592e+001
8.456807e+002,5.846478e+001
8.466450e+002,5.731911e+001
8.476092e+002,5.468829e+001
8.485734e+002,5.110741e+001
8.495377e+002,4.780303e+001
8.505019e+002,4.548680e+001
8.514661e+002,4.391103e+001
8.524304e+002,4.300123e+001
8.533946e+002,4.239376e+001
8.543588e+002,4.134721e+001
8.553231e+002,3.961428e+001
8.562873e+002,3.788427e+001
8.572515e+002,3.772109e+001
8.582158e+002,3.995766e+001
8.591800e+002,4.120267e+001
8.601442e+002,4.058857e+001
8.611085e+002,3.984118e+001
8.620727e+002,4.039583e+001
8.630369e+002,4.218019e+001
8.640012e+002,4.333805e+001
8.649654e+002,4.268032e+001
8.659296e+002,4.182990e+001
8.668939e+002,4.160905e+001
8.678581e+002,4.162587e+001
8.688223e+002,4.116099e+001
8.697866e+002,3.989430e+001
8.707508e+002,3.840125e+001
8.717150e+002,3.789125e+001
8.726793e+002,3.822079e+001
8.736435e+002,3.898019e+001
8.746077e+002,4.029132e+001
8.755720e+002,4.149917e+001
8.765362e+002,4.172224e+001
8.775004e+002,4.079461e+001
8.784647e+002,3.957973e+001
8.794289e+002,3.778478e+001
8.803931e+002,3.603405e+001
8.813574e+002,3.450903e+001
8.823216e+002,3.315507e+001
8.832858e+002,3.184985e+001
8.842501e+002,3.058912e+001
8.852143e+002,2.941423e+001
8.861785e+002,2.828217e+001
8.871428e+002,2.716495e+001
8.881070e+002,2.600158e+001
8.890712e+002,2.481617e+001
8.900355e+002,2.376859e+001
8.909997e+002,2.313664e+001
8.919639e+002,2.300862e+001
8.929282e+002,2.292937e+001
8.938924e+002,2.335512e+001
8.948566e+002,2.325257e+001
8.958209e+002,2.158557e+001
8.967851e+002,1.885110e+001
8.977493e+002,1.722025e+001
8.987136e+002,1.770419e+001
8.996778e+002,1.837070e+001
9.006420e+002,1.889840e+001
9.016063e+002,1.900952e+001
9.025705e+002,1.828527e+001
9.035347e+002,1.674890e+001
9.044990e+002,1.500755e+001
9.054632e+002,1.370140e+001
9.064274e+002,1.285081e+001
9.073917e+002,1.259861e+001
9.083559e+002,1.302133e+001
9.093201e+002,1.319923e+001
9.102844e+002,1.222872e+001
9.112486e+002,1.019430e+001
9.122128e+002,8.873797e+000
9.131771e+002,8.856463e+000
9.141413e+002,8.880096e+000
9.151055e+002,8.892596e+000
9.160698e+002,8.875132e+000
9.170340e+002,8.792486e+000
9.179982e+002,8.621038e+000
9.189625e+002,8.392096e+000
9.199267e+002,8.053103e+000
9.208909e+002,7.781412e+000
9.218552e+002,8.005716e+000
9.228194e+002,8.498691e+000
9.237836e+002,8.431479e+000
9.247479e+002,7.132043e+000
9.257121e+002,4.994849e+000
9.266763e+002,4.417035e+000
9.276406e+002,6.582300e+000
9.286048e+002,7.617798e+000
9.295690e+002,6.219806e+000
9.305333e+002,4.138403e+000
9.314975e+002,3.480710e+000
9.324617e+002,4.555054e+000
9.334260e+002,5.392444e+000
9.343902e+002,4.701169e+000
9.353545e+002,3.985803e+000
9.363187e+002,3.817358e+000
9.372830e+002,4.127716e+000
9.382472e+002,4.789139e+000
9.392114e+002,5.722363e+000
9.401757e+002,6.690808e+000
9.411399e+002,6.955487e+000
9.421041e+002,6.579556e+000
9.430684e+002,6.094464e+000
9.440326e+002,5.458097e+000
9.449968e+002,4.926013e+000
9.459611e+002,5.006763e+000
9.469253e+002,5.932635e+000
9.478895e+002,6.346277e+000
9.488538e+002,5.060608e+000
9.498180e+002,4.449356e+000
9.507822e+002,5.742642e+000
9.517465e+002,7.871484e+000
9.527107e+002,9.271380e+000
9.536749e+002,9.329473e+000
9.546392e+002,8.858960e+000
9.556034e+002,8.500616e+000
9.565676e+002,8.318884e+000
9.575319e+002,8.530637e+000
9.584961e+002,9.154157e+000
9.594603e+002,9.937256e+000
9.604246e+002,1.056257e+001
9.613888e+002,1.100364e+001
9.623530e+002,1.198914e+001
9.633173e+002,1.333437e+001
9.642815e+002,1.543535e+001
9.652457e+002,1.852336e+001
9.662100e+002,2.240511e+001
9.671742e+002,2.603796e+001
9.681384e+002,2.902093e+001
9.691027e+002,3.509395e+001
9.700669e+002,4.874470e+001
9.710311e+002,6.494509e+001
9.719954e+002,8.450649e+001
9.729596e+002,1.038319e+002
9.739238e+002,1.160493e+002
9.748881e+002,1.165452e+002
9.758523e+002,1.075614e+002
9.768165e+002,9.569194e+001
9.777808e+002,8.006340e+001
9.787450e+002,6.649817e+001
9.797092e+002,5.585741e+001
9.806735e+002,4.727061e+001
9.816377e+002,3.985160e+001
9.826019e+002,3.360746e+001
9.835662e+002,2.941787e+001
9.845304e+002,2.899640e+001
9.854946e+002,2.917228e+001
9.864589e+002,2.910600e+001
9.874231e+002,2.890825e+001
9.883873e+002,2.857880e+001
9.893516e+002,2.819380e+001
9.903158e+002,2.827279e+001
9.912800e+002,2.968503e+001
9.922443e+002,3.241089e+001
9.932085e+002,3.533564e+001
9.941727e+002,3.839543e+001
9.951370e+002,4.240118e+001
9.961012e+002,4.779743e+001
9.970654e+002,5.440347e+001
9.980297e+002,6.156481e+001
9.989939e+002,6.485851e+001
9.999581e+002,7.725541e+001
1.000922e+003,9.467451e+001
1.001887e+003,1.251413e+002
1.002851e+003,1.799921e+002
1.003815e+003,2.557169e+002
1.004779e+003,3.382882e+002
1.005744e+003,4.303607e+002
1.006708e+003,4.996513e+002
1.007672e+003,4.956373e+002
1.008636e+003,4.383361e+002
1.009600e+003,3.651710e+002
1.010565e+003,2.916174e+002
1.011529e+003,2.227935e+002
1.012493e+003,1.703073e+002
1.013457e+003,1.380233e+002
1.014422e+003,1.119978e+002
1.015386e+003,9.301131e+001
1.016350e+003,7.752016e+001
1.017314e+003,6.457670e+001
1.018279e+003,5.392400e+001
1.019243e+003,4.557175e+001
1.020207e+003,3.977129e+001
1.021171e+003,3.534050e+001
1.022135e+003,3.145891e+001
1.023100e+003,2.835802e+001
1.024064e+003,2.670582e+001
1.025028e+003,2.618483e+001
1.025992e+003,2.562208e+001
1.026957e+003,2.396248e+001
1.027921e+003,2.147455e+001
1.028885e+003,1.969432e+001
1.029849e+003,1.891541e+001
1.030814e+003,1.817673e+001
1.031778e+003,1.722352e+001
1.032742e+003,1.626533e+001
1.033706e+003,1.548115e+001
1.034671e+003,1.494270e+001
1.035635e+003,1.489864e+001
1.036599e+003,1.619266e+001
1.037563e+003,1.700538e+001
1.038527e+003,1.582719e+001
1.039492e+003,1.383409e+001
1.040456e+003,1.255369e+001
1.041420e+003,1.255813e+001
1.042384e+003,1.324170e+001
1.043349e+003,1.375953e+001
1.044313e+003,1.408433e+001
1.045277e+003,1.417296e+001
1.046241e+003,1.400467e+001
1.047206e+003,1.368678e+001
1.048170e+003,1.290864e+001
1.049134e+003,1.208876e+001
1.050098e+003,1.254881e+001
1.051063e+003,1.515187e+001
1.052027e+003,1.670896e+001
1.052991e+003,1.526453e+001
1.053955e+003,1.331991e+001
1.054919e+003,1.189493e+001
1.055884e+003,1.117683e+001
1.056848e+003,1.127453e+001
1.057812e+003,1.227006e+001
1.058776e+003,1.354518e+001
1.059741e+003,1.353096e+001
1.060705e+003,1.239664e+001
1.061669e+003,1.190048e+001
1.062633e+003,1.241509e+001
1.063598e+003,1.302812e+001
1.064562e+003,1.279982e+001
1.065526e+003,1.185684e+001
1.066490e+003,1.153959e+001
1.067454e+003,1.247222e+001
1.068419e+003,1.315557e+001
1.069383e+003,1.255336e+001
1.070347e+003,1.204154e+001
1.071311e+003,1.330184e+001
1.072276e+003,1.600115e+001
1.073240e+003,1.794419e+001
1.074204e+003,1.732721e+001
1.075168e+003,1.528245e+001
1.076133e+003,1.418247e+001
1.077097e+003,1.387265e+001
1.078061e+003,1.420821e+001
1.079025e+003,1.535135e+001
1.079990e+003,1.649205e+001
1.080954e+003,1.621179e+001
1.081918e+003,1.415728e+001
1.082882e+003,1.316421e+001
1.083846e+003,1.448645e+001
1.084811e+003,1.554035e+001
1.085775e+003,1.582359e+001
1.086739e+003,1.559644e+001
1.087703e+003,1.505765e+001
1.088668e+003,1.436434e+001
1.089632e+003,1.384318e+001
1.090596e+003,1.376835e+001
1.091560e+003,1.395114e+001
1.092525e+003,1.400683e+001
1.093489e+003,1.395231e+001
1.094453e+003,1.391864e+001
1.095417e+003,1.395653e+001
1.096381e+003,1.415888e+001
1.097346e+003,1.474014e+001
1.098310e+003,1.586686e+001
1.099274e+003,1.678424e+001
1.100238e+003,1.806094e+001
1.101203e+003,1.852012e+001
1.102167e+003,1.694212e+001
1.103131e+003,1.469871e+001
1.104095e+003,1.374115e+001
1.105060e+003,1.454093e+001
1.106024e+003,1.558275e+001
1.106988e+003,1.547263e+001
1.107952e+003,1.500245e+001
1.108917e+003,1.555208e+001
1.109881e+003,1.684740e+001
1.110845e+003,1.770421e+001
1.111809e+003,1.744089e+001
1.112773e+003,1.651564e+001
1.113738e+003,1.606991e+001
1.114702e+003,1.642301e+001
1.115666e+003,1.651727e+001
1.116630e+003,1.603285e+001
1.117595e+003,1.562918e+001
1.118559e+003,1.570306e+001
1.119523e+003,1.593075e+001
1.120487e+003,1.562533e+001
1.121452e+003,1.463371e+001
1.122416e+003,1.403683e+001
1.123380e+003,1.490786e+001
1.124344e+003,1.657827e+001
1.125308e+003,1.855411e+001
1.126273e+003,2.057291e+001
1.127237e+003,2.165046e+001
1.128201e+003,2.118908e+001
1.129165e+003,1.982222e+001
1.130130e+003,1.897751e+001
1.131094e+003,1.859157e+001
1.132058e+003,1.883116e+001
1.133022e+003,2.033748e+001
1.133987e+003,2.160277e+001
1.134951e+003,2.225563e+001
1.135915e+003,2.238962e+001
1.136879e+003,2.202148e+001
1.137844e+003,2.118208e+001
1.138808e+003,2.035468e+001
1.139772e+003,1.973247e+001
1.140736e+003,1.944925e+001
1.141700e+003,1.987284e+001
1.142665e+003,2.084328e+001
1.143629e+003,2.182571e+001
1.144593e+003,2.258283e+001
1.145557e+003,2.313956e+001
1.146522e+003,2.346615e+001
1.147486e+003,2.339798e+001
1.148450e+003,2.338964e+001
1.149414e+003,2.344133e+001
1.150379e+003,2.370626e+001
1.151343e+003,2.447154e+001
1.152307e+003,2.535450e+001
1.153271e+003,2.587217e+001
1.154235e+003,2.589119e+001
1.155200e+003,2.558011e+001
1.156164e+003,2.493131e+001
1.157128e+003,2.437242e+001
1.158092e+003,2.443306e+001
1.159057e+003,2.496375e+001
1.160021e+003,2.559230e+001
1.160985e+003,2.616097e+001
1.161949e+003,2.687156e+001
1.162914e+003,2.816709e+001
1.163878e+003,3.022181e+001
1.164842e+003,3.153139e+001
1.165806e+003,3.098028e+001
1.166771e+003,3.102564e+001
1.167735e+003,3.266086e+001
1.168699e+003,3.450448e+001
1.169663e+003,3.511357e+001
1.170627e+003,3.457397e+001
1.171592e+003,3.426501e+001
1.172556e+003,3.509388e+001
1.173520e+003,3.638135e+001
1.174484e+003,3.711678e+001
1.175449e+003,3.749792e+001
1.176413e+003,3.777968e+001
1.177377e+003,3.800419e+001
1.178341e+003,3.859399e+001
1.179306e+003,4.026167e+001
1.180270e+003,4.285061e+001
1.181234e+003,4.401980e+001
1.182198e+003,4.251215e+001
1.183162e+003,4.164541e+001
1.184127e+003,4.195292e+001
1.185091e+003,4.267295e+001
1.186055e+003,4.395023e+001
1.187019e+003,4.524544e+001
1.187984e+003,4.528976e+001
1.188948e+003,4.344714e+001
1.189912e+003,4.101398e+001
1.190876e+003,3.948075e+001
1.191841e+003,3.874167e+001
1.192805e+003,3.851066e+001
1.193769e+003,3.878100e+001
1.194733e+003,3.917027e+001
1.195698e+003,3.944985e+001
1.196662e+003,3.964503e+001
1.197626e+003,3.993864e+001
1.198590e+003,4.052684e+001
1.199554e+003,4.041909e+001
1.200519e+003,3.880126e+001
1.201483e+003,3.741640e+001
1.202447e+003,3.681968e+001
1.203411e+003,3.675741e+001
1.204376e+003,3.690711e+001
1.205340e+003,3.708181e+001
1.206304e+003,3.718510e+001
1.207268e+003,3.723565e+001
1.208233e+003,3.729548e+001
1.209197e+003,3.724384e+001
1.210161e+003,3.703616e+001
1.211125e+003,3.668794e+001
1.212089e+003,3.615446e+001
1.213054e+003,3.539870e+001
1.214018e+003,3.428943e+001
1.214982e+003,3.296413e+001
1.215946e+003,3.226165e+001
1.216911e+003,3.214688e+001
1.217875e+003,3.281461e+001
1.218839e+003,3.509491e+001
1.219803e+003,3.723125e+001
1.220768e+003,3.792236e+001
1.221732e+003,3.743576e+001
1.222696e+003,3.669978e+001
1.223660e+003,3.623553e+001
1.224625e+003,3.583818e+001
1.225589e+003,3.505253e+001
1.226553e+003,3.386288e+001
1.227517e+003,3.377590e+001
1.228481e+003,3.521508e+001
1.229446e+003,3.674025e+001
1.230410e+003,3.792460e+001
1.231374e+003,3.867912e+001
1.232338e+003,3.866345e+001
1.233303e+003,3.783312e+001
1.234267e+003,3.747106e+001
1.235231e+003,3.856981e+001
1.236195e+003,3.944496e+001
1.237160e+003,3.898524e+001
1.238124e+003,3.782946e+001
1.239088e+003,3.647965e+001
1.240052e+003,3.531551e+001
1.241016e+003,3.509274e+001
1.241981e+003,3.657052e+001
1.242945e+003,3.913821e+001
1.243909e+003,3.998783e+001
1.244873e+003,3.837826e+001
1.245838e+003,3.671066e+001
1.246802e+003,3.388651e+001
1.247766e+003,3.217274e+001
1.248730e+003,3.379171e+001
1.249695e+003,3.722390e+001
1.250659e+003,3.899834e+001
1.251623e+003,3.821939e+001
1.252587e+003,3.721532e+001
1.253552e+003,3.775709e+001
1.254516e+003,3.850283e+001
1.255480e+003,3.781498e+001
1.256444e+003,3.632281e+001
1.257408e+003,3.560306e+001
1.258373e+003,3.627089e+001
1.259337e+003,3.765311e+001
1.260301e+003,3.894051e+001
1.261265e+003,4.017545e+001
1.262230e+003,4.042104e+001
1.263194e+003,3.784197e+001
1.264158e+003,3.670660e+001
1.265122e+003,3.843515e+001
1.266087e+003,4.056275e+001
1.267051e+003,4.144967e+001
1.268015e+003,4.139844e+001
1.268979e+003,4.153233e+001
1.269943e+003,4.228965e+001
1.270908e+003,4.325738e+001
1.271872e+003,4.402738e+001
1.272836e+003,4.468052e+001
1.273800e+003,4.548248e+001
1.274765e+003,4.641174e+001
1.275729e+003,4.715716e+001
1.276693e+003,4.773259e+001
1.277657e+003,4.775119e+001
1.278622e+003,4.605195e+001
1.279586e+003,4.241861e+001
1.280550e+003,4.074200e+001
1.281514e+003,4.275913e+001
1.282479e+003,4.481291e+001
1.283443e+003,4.652047e+001
1.284407e+003,4.738015e+001
1.285371e+003,4.639645e+001
1.286335e+003,4.423404e+001
1.287300e+003,4.251042e+001
1.288264e+003,4.213447e+001
1.289228e+003,4.284257e+001
1.290192e+003,4.440699e+001
1.291157e+003,4.667982e+001
1.292121e+003,4.682775e+001
1.293085e+003,4.370028e+001
1.294049e+003,4.192602e+001
1.295014e+003,4.434405e+001
1.295978e+003,4.807172e+001
1.296942e+003,4.950330e+001
1.297906e+003,4.880257e+001
1.298870e+003,4.874882e+001
1.299835e+003,5.037120e+001
1.300799e+003,5.195544e+001
1.301763e+003,5.239022e+001
1.302727e+003,5.226627e+001
1.303692e+003,5.197831e+001
1.304656e+003,5.174866e+001
1.305620e+003,5.182722e+001
1.306584e+003,5.231583e+001
1.307549e+003,5.293727e+001
1.308513e+003,5.313924e+001
1.309477e+003,5.272210e+001
1.310441e+003,5.313294e+001
1.311406e+003,5.564053e+001
1.312370e+003,5.727374e+001
1.313334e+003,5.730244e+001
1.314298e+003,5.658984e+001
1.315263e+003,5.546520e+001
1.316227e+003,5.426465e+001
1.317191e+003,5.373513e+001
1.318155e+003,5.421955e+001
1.319120e+003,5.496784e+001
1.320084e+003,5.505822e+001
1.321048e+003,5.489263e+001
1.322012e+003,5.558904e+001
1.322976e+003,5.705853e+001
1.323941e+003,5.797915e+001
1.324905e+003,5.758492e+001
1.325869e+003,5.686750e+001
1.326833e+003,5.770617e+001
1.327798e+003,6.004685e+001
1.328762e+003,6.008986e+001
1.329726e+003,5.555063e+001
1.330690e+003,5.237901e+001
1.331655e+003,5.297699e+001
1.332619e+003,5.455036e+001
1.333583e+003,5.565604e+001
1.334547e+003,5.610892e+001
1.335511e+003,5.597469e+001
1.336476e+003,5.535755e+001
1.337440e+003,5.460075e+001
1.338404e+003,5.411321e+001
1.339368e+003,5.395583e+001
1.340333e+003,5.447927e+001
1.341297e+003,5.589846e+001
1.342261e+003,5.713428e+001
1.343225e+003,5.855841e+001
1.344190e+003,5.930243e+001
1.345154e+003,5.825520e+001
1.346118e+003,5.617968e+001
1.347082e+003,5.485140e+001
1.348047e+003,5.464941e+001
1.349011e+003,5.489152e+001
1.349975e+003,5.545333e+001
1.350939e+003,5.600373e+001
1.351903e+003,5.593328e+001
1.352868e+003,5.560752e+001
1.353832e+003,5.583018e+001
1.354796e+003,5.681077e+001
1.355760e+003,5.823475e+001
1.356725e+003,5.999566e+001
1.357689e+003,6.183205e+001
1.358653e+003,6.237263e+001
1.359617e+003,6.098506e+001
1.360582e+003,6.010983e+001
1.361546e+003,6.001975e+001
1.362510e+003,6.031467e+001
1.363474e+003,6.163697e+001
1.364438e+003,6.291544e+001
1.365403e+003,6.253945e+001
1.366367e+003,6.073191e+001
1.367331e+003,5.937551e+001
1.368295e+003,5.971459e+001
1.369260e+003,6.086303e+001
1.370224e+003,6.129325e+001
1.371188e+003,6.110860e+001
1.372152e+003,6.122130e+001
1.373117e+003,6.147247e+001
1.374081e+003,6.201762e+001
1.375045e+003,6.336719e+001
1.376009e+003,6.471910e+001
1.376974e+003,6.521553e+001
1.377938e+003,6.493211e+001
1.378902e+003,6.423610e+001
1.379866e+003,6.305488e+001
1.380830e+003,6.182481e+001
1.381795e+003,6.026298e+001
1.382759e+003,5.929753e+001
1.383723e+003,6.027941e+001
1.384687e+003,6.263990e+001
1.385652e+003,6.476268e+001
1.386616e+003,6.600680e+001
1.387580e+003,6.671969e+001
1.388544e+003,6.726896e+001
1.389509e+003,6.761130e+001
1.390473e+003,6.773817e+001
1.391437e+003,6.786702e+001
1.392401e+003,6.749840e+001
1.393365e+003,6.517077e+001
1.394330e+003,6.393092e+001
1.395294e+003,6.634327e+001
1.396258e+003,6.967582e+001
1.397222e+003,7.026168e+001
1.398187e+003,6.814233e+001
1.399151e+003,6.653062e+001
1.400115e+003,6.759093e+001
1.401079e+003,6.978941e+001
1.402044e+003,7.026859e+001
1.403008e+003,6.900649e+001
1.403972e+003,6.875017e+001
1.404936e+003,6.994592e+001
1.405901e+003,7.115002e+001
1.406865e+003,7.214268e+001
1.407829e+003,7.266890e+001
1.408793e+003,7.202611e+001
1.409757e+003,7.065336e+001
1.410722e+003,7.046205e+001
1.411686e+003,7.207847e+001
1.412650e+003,7.371212e+001
1.413614e+003,7.406447e+001
1.414579e+003,7.404493e+001
1.415543e+003,7.473933e+001
1.416507e+003,7.590227e+001
1.417471e+003,7.679434e+001
1.418436e+003,7.713861e+001
1.419400e+003,7.698338e+001
1.420364e+003,7.633353e+001
1.421328e+003,7.538853e+001
1.422292e+003,7.468650e+001
1.423257e+003,7.412203e+001
1.424221e+003,7.388280e+001
1.425185e+003,7.406060e+001
1.426149e+003,7.441216e+001
1.427114e+003,7.495142e+001
1.428078e+003,7.584226e+001
1.429042e+003,7.742117e+001
1.430006e+003,7.932771e+001
1.430971e+003,8.076614e+001
1.431935e+003,8.132756e+001
1.432899e+003,8.109032e+001
1.433863e+003,8.006821e+001
1.434828e+003,7.847466e+001
1.435792e+003,7.850670e+001
1.436756e+003,8.130208e+001
1.437720e+003,8.283540e+001
1.438684e+003,8.231142e+001
1.439649e+003,8.134956e+001
1.440613e+003,8.015406e+001
1.441577e+003,7.945728e+001
1.442541e+003,8.080327e+001
1.443506e+003,8.407223e+001
1.444470e+003,8.670007e+001
1.445434e+003,8.726030e+001
1.446398e+003,8.680874e+001
1.447363e+003,8.654039e+001
1.448327e+003,8.627528e+001
1.449291e+003,8.521014e+001
1.450255e+003,8.325401e+001
1.451219e+003,8.302457e+001
1.452184e+003,8.697827e+001
1.453148e+003,9.176170e+001
1.454112e+003,9.284651e+001
1.455076e+003,9.078737e+001
1.456041e+003,8.902325e+001
1.457005e+003,8.793385e+001
1.457969e+003,8.750159e+001
1.458933e+003,8.815141e+001
1.459898e+003,8.898540e+001
1.460862e+003,8.947160e+001
1.461826e+003,8.968309e+001
1.462790e+003,8.960735e+001
1.463755e+003,8.940127e+001
1.464719e+003,8.965627e+001
1.465683e+003,9.082575e+001
1.466647e+003,9.270708e+001
1.467611e+003,9.499586e+001
1.468576e+003,9.790952e+001
1.469540e+003,9.929879e+001
1.470504e+003,9.856419e+001
1.471468e+003,9.723491e+001
1.472433e+003,9.436159e+001
1.473397e+003,9.213668e+001
1.474361e+003,9.289986e+001
1.475325e+003,9.482971e+001
1.476290e+003,9.455394e+001
1.477254e+003,9.157632e+001
1.478218e+003,8.856036e+001
1.479182e+003,8.766432e+001
1.480146e+003,8.839049e+001
1.481111e+003,8.968010e+001
1.482075e+003,9.161739e+001
1.483039e+003,9.262653e+001
1.484003e+003,9.236471e+001
1.484968e+003,9.183363e+001
1.485932e+003,9.057637e+001
1.486896e+003,8.994952e+001
1.487860e+003,9.205815e+001
1.488825e+003,9.534955e+001
1.489789e+003,9.574272e+001
1.490753e+003,9.241472e+001
1.491717e+003,8.932767e+001
1.492682e+003,8.917413e+001
1.493646e+003,9.051373e+001
1.494610e+003,9.110648e+001
1.495574e+003,9.121552e+001
1.496538e+003,9.184640e+001
1.497503e+003,9.323529e+001
1.498467e+003,9.434269e+001
1.499431e+003,9.456488e+001
1.500395e+003,9.420518e+001
1.501360e+003,9.349577e+001
1.502324e+003,9.263524e+001
1.503288e+003,9.250609e+001
1.504252e+003,9.345348e+001
1.505217e+003,9.346129e+001
1.506181e+003,9.055725e+001
1.507145e+003,8.768425e+001
1.508109e+003,8.782283e+001
1.509073e+003,8.931146e+001
1.510038e+003,8.939207e+001
1.511002e+003,8.775728e+001
1.511966e+003,8.578087e+001
1.512930e+003,8.414310e+001
1.513895e+003,8.341062e+001
1.514859e+003,8.476247e+001
1.515823e+003,8.809736e+001
1.516787e+003,9.149062e+001
1.517752e+003,9.611698e+001
1.518716e+003,9.804613e+001
1.519680e+003,9.311823e+001
1.520644e+003,8.860673e+001
1.521609e+003,8.858324e+001
1.522573e+003,9.025712e+001
1.523537e+003,9.010447e+001
1.524501e+003,8.808636e+001
1.525465e+003,8.650970e+001
1.526430e+003,8.662099e+001
1.527394e+003,8.714079e+001
1.528358e+003,8.607930e+001
1.529322e+003,8.360057e+001
1.530287e+003,8.267578e+001
1.531251e+003,8.448950e+001
1.532215e+003,8.570860e+001
1.533179e+003,8.619579e+001
1.534144e+003,8.611523e+001
1.535108e+003,8.485763e+001
1.536072e+003,8.351749e+001
1.537036e+003,8.353967e+001
1.538000e+003,8.456516e+001
1.538965e+003,8.506688e+001
1.539929e+003,8.435934e+001
1.540893e+003,8.316098e+001
1.541857e+003,8.230122e+001
1.542822e+003,8.186371e+001
1.543786e+003,8.189594e+001
1.544750e+003,8.250806e+001
1.545714e+003,8.297111e+001
1.546679e+003,8.389685e+001
1.547643e+003,8.376803e+001
1.548607e+003,8.117249e+001
1.549571e+003,7.822359e+001
1.550536e+003,7.665702e+001
1.551500e+003,7.640620e+001
1.552464e+003,7.724131e+001
1.553428e+003,7.902089e+001
1.554392e+003,8.047874e+001
1.555357e+003,8.046803e+001
1.556321e+003,7.961227e+001
1.557285e+003,7.937495e+001
1.558249e+003,7.970615e+001
1.559214e+003,7.881261e+001
1.560178e+003,7.596555e+001
1.561142e+003,7.393325e+001
1.562106e+003,7.408964e+001
1.563071e+003,7.479761e+001
1.564035e+003,7.508714e+001
1.564999e+003,7.484808e+001
1.565963e+003,7.343492e+001
1.566927e+003,7.084932e+001
1.567892e+003,6.910159e+001
1.568856e+003,6.938480e+001
1.569820e+003,7.025138e+001
1.570784e+003,7.000212e+001
1.571749e+003,6.913128e+001
1.572713e+003,6.908594e+001
1.573677e+003,6.987523e+001
1.574641e+003,6.986813e+001
1.575606e+003,6.802008e+001
1.576570e+003,6.613607e+001
1.577534e+003,6.574822e+001
1.578498e+003,6.633684e+001
1.579463e+003,6.718376e+001
1.580427e+003,6.812267e+001
1.581391e+003,6.789342e+001
1.582355e+003,6.579305e+001
1.583319e+003,6.399620e+001
1.584284e+003,6.439543e+001
1.585248e+003,6.552361e+001
1.586212e+003,6.545241e+001
1.587176e+003,6.440467e+001
1.588141e+003,6.323053e+001
1.589105e+003,6.217588e+001
1.590069e+003,6.113784e+001
1.591033e+003,5.979539e+001
1.591998e+003,5.864054e+001
1.592962e+003,5.882607e+001
1.593926e+003,5.994746e+001
1.594890e+003,5.951818e+001
1.595854e+003,5.696937e+001
1.596819e+003,5.539515e+001
1.597783e+003,5.661377e+001
1.598747e+003,5.791780e+001
1.599711e+003,5.712893e+001
1.600676e+003,5.537705e+001
1.601640e+003,5.390701e+001
1.602604e+003,5.285085e+001
1.603568e+003,5.199955e+001
1.604533e+003,5.124710e+001
1.605497e+003,5.044434e+001
1.606461e+003,4.930881e+001
1.607425e+003,4.811220e+001
1.608390e+003,4.769119e+001
1.609354e+003,4.811794e+001
1.610318e+003,4.863456e+001
1.611282e+003,4.945547e+001
1.612246e+003,4.922518e+001
1.613211e+003,4.587251e+001
1.614175e+003,4.266515e+001
1.615139e+003,4.242042e+001
1.616103e+003,4.368026e+001
1.617068e+003,4.390897e+001
1.618032e+003,4.281484e+001
1.618996e+003,4.187448e+001
1.619960e+003,4.195433e+001
1.620925e+003,4.214501e+001
1.621889e+003,4.112991e+001
1.622853e+003,3.913451e+001
1.623817e+003,3.729870e+001
1.624781e+003,3.559002e+001
1.625746e+003,3.459867e+001
1.626710e+003,3.487972e+001
1.627674e+003,3.504652e+001
1.628638e+003,3.389299e+001
1.629603e+003,3.273279e+001
1.630567e+003,3.293661e+001
1.631531e+003,3.398887e+001
1.632495e+003,3.494274e+001
1.633460e+003,3.543680e+001
1.634424e+003,3.467171e+001
1.635388e+003,3.171845e+001
1.636352e+003,2.821995e+001
1.637317e+003,2.762198e+001
1.638281e+003,2.964415e+001
1.639245e+003,2.976322e+001
1.640209e+003,2.718248e+001
1.641173e+003,2.538052e+001
1.642138e+003,2.582825e+001
1.643102e+003,2.642391e+001
1.644066e+003,2.621540e+001
1.645030e+003,2.554921e+001
1.645995e+003,2.463166e+001
1.646959e+003,2.357102e+001
1.647923e+003,2.234476e+001
1.648887e+003,2.102394e+001
1.649852e+003,2.041240e+001
1.650816e+003,2.137446e+001
1.651780e+003,2.300505e+001
1.652744e+003,2.325645e+001
1.653708e+003,2.219152e+001
1.654673e+003,2.174101e+001
1.655637e+003,2.213560e+001
1.656601e+003,2.267635e+001
1.657565e+003,2.381513e+001
1.658530e+003,2.418253e+001
1.659494e+003,2.255294e+001
1.660458e+003,2.017146e+001
1.661422e+003,1.763827e+001
1.662387e+003,1.564073e+001
1.663351e+003,1.630586e+001
1.664315e+003,2.018071e+001
1.665279e+003,2.302616e+001
1.666244e+003,2.073947e+001
1.667208e+003,1.589063e+001
1.668172e+003,1.377484e+001
1.669136e+003,1.418933e+001
1.670100e+003,1.408261e+001
1.671065e+003,1.296032e+001
1.672029e+003,1.250600e+001
1.672993e+003,1.415620e+001
1.673957e+003,1.539135e+001
1.674922e+003,1.399276e+001
1.675886e+003,1.173470e+001
1.676850e+003,1.055937e+001
1.677814e+003,1.035861e+001
1.678779e+003,1.018182e+001
1.679743e+003,9.733594e+000
1.680707e+003,9.230280e+000
1.681671e+003,8.832751e+000
1.682635e+003,8.469403e+000
1.683600e+003,7.826688e+000
1.684564e+003,7.072769e+000
1.685528e+003,7.328723e+000
1.686492e+003,8.816937e+000
1.687457e+003,1.009023e+001
1.688421e+003,1.085221e+001
1.689385e+003,1.096306e+001
1.690349e+003,9.624975e+000
1.691314e+003,8.073911e+000
1.692278e+003,8.173917e+000
1.693242e+003,9.318555e+000
1.694206e+003,8.914846e+000
1.695171e+003,6.200101e+000
1.696135e+003,3.597772e+000
1.697099e+003,2.284500e+000
1.698063e+003,2.228775e+000
1.699027e+003,4.237244e+000
1.699992e+003,7.360193e+000
1.700956e+003,8.324002e+000
1.701920e+003,6.848990e+000
1.702884e+003,5.889288e+000
1.703849e+003,6.634189e+000
1.704813e+003,7.386087e+000
1.705777e+003,6.721823e+000
1.706741e+003,5.428205e+000
1.707706e+003,5.038934e+000
1.708670e+003,5.198029e+000
1.709634e+003,4.162012e+000
1.710598e+003,1.384048e+000
1.711563e+003,-5.641419e-001
1.712527e+003,7.147217e-002
1.713491e+003,1.206345e+000
1.714455e+003,8.562469e-001
1.715419e+003,3.839111e-002
1.716384e+003,9.756225e-001
1.717348e+003,3.291461e+000
1.718312e+003,4.053473e+000
1.719276e+003,2.339957e+000
1.720241e+003,3.689972e-001
1.721205e+003,-3.986328e-001
1.722169e+003,-2.175659e-001
1.723133e+003,8.657410e-001
1.724098e+003,2.618707e+000
1.725062e+003,2.902371e+000
1.726026e+003,1.274942e+000
1.726990e+003,3.083191e-002
1.727954e+003,-5.292572e-001
1.728919e+003,-5.624725e-001
1.729883e+003,5.899414e-001
1.730847e+003,1.621252e+000
1.731811e+003,7.898163e-001
1.732776e+003,-1.094315e+000
1.733740e+003,-2.013620e+000
1.734704e+003,-1.630505e+000
1.735668e+003,-1.048053e+000
1.736633e+003,-9.160614e-001
1.737597e+003,-1.142218e+000
1.738561e+003,-1.661743e+000
1.739525e+003,-2.278058e+000
1.740490e+003,-2.071774e+000
1.741454e+003,-5.464783e-001
1.742418e+003,-1.439270e-001
1.743382e+003,-1.707834e+000
1.744346e+003,-3.064502e+000
1.745311e+003,-3.839609e+000
1.746275e+003,-4.356973e+000
1.747239e+003,-4.727689e+000
1.748203e+003,-4.986090e+000
1.749168e+003,-5.447696e+000
1.750132e+003,-5.791337e+000
1.751096e+003,-4.881210e+000
1.752060e+003,-2.503897e+000
1.753025e+003,-1.410797e-001
1.753989e+003,8.763153e-001
1.754953e+003,6.410309e-001
1.755917e+003,-9.440338e-001
1.756881e+003,-3.931885e+000
1.757846e+003,-5.247995e+000
1.758810e+003,-4.215747e+000
1.759774e+003,-3.362936e+000
1.760738e+003,-3.132813e+000
1.761703e+003,-3.082757e+000
1.762667e+003,-3.257697e+000
1.763631e+003,-3.348404e+000
1.764595e+003,-2.775586e+000
1.765560e+003,-2.052783e+000
1.766524e+003,-2.350369e+000
1.767488e+003,-3.648660e+000
1.768452e+003,-4.490979e+000
1.769417e+003,-4.044900e+000
1.770381e+003,-3.355508e+000
1.771345e+003,-3.748856e+000
1.772309e+003,-4.728808e+000
1.773273e+003,-4.940036e+000
1.774238e+003,-4.480914e+000
1.775202e+003,-4.475589e+000
1.776166e+003,-5.184302e+000
1.777130e+003,-5.316379e+000
1.778095e+003,-3.952512e+000
1.779059e+003,-2.746991e+000
1.780023e+003,-3.601386e+000
1.780987e+003,-5.175522e+000
1.781952e+003,-4.900153e+000
1.782916e+003,-3.271716e+000
1.783880e+003,-2.939468e+000
1.784844e+003,-4.574725e+000
1.785808e+003,-6.029231e+000
1.786773e+003,-6.510180e+000
1.787737e+003,-6.403967e+000
1.788701e+003,-5.812182e+000
1.789665e+003,-4.963861e+000
1.790630e+003,-3.742130e+000
1.791594e+003,-2.590094e+000
1.792558e+003,-3.207666e+000
1.793522e+003,-5.798958e+000
1.794487e+003,-7.778987e+000
1.795451e+003,-7.526610e+000
1.796415e+003,-5.942848e+000
1.797379e+003,-4.016238e+000
1.798344e+003,-2.105716e+000
1.799308e+003,-1.964645e+000
1.800272e+003,-4.248303e+000
1.801236e+003,-5.851038e+000
1.802201e+003,-6.771081e+000
1.803165e+003,-7.034274e+000
1.804129e+003,-6.244119e+000
1.805093e+003,-5.264374e+000
1.806057e+003,-4.213117e+000
1.807022e+003,-3.498145e+000
1.807986e+003,-3.745303e+000
1.808950e+003,-4.617883e+000
1.809914e+003,-5.343774e+000
1.810879e+003,-5.636206e+000
1.811843e+003,-5.528211e+000
1.812807e+003,-5.033731e+000
1.813771e+003,-4.405798e+000
1.814736e+003,-3.922894e+000
1.815700e+003,-3.663422e+000
1.816664e+003,-4.435178e+000
1.817628e+003,-6.484351e+000
1.818593e+003,-7.008440e+000
1.819557e+003,-4.922458e+000
1.820521e+003,-3.557275e+000
1.821485e+003,-4.796124e+000
1.822449e+003,-6.223288e+000
1.823414e+003,-6.186182e+000
1.824378e+003,-5.284461e+000
1.825342e+003,-3.548471e+000
1.826306e+003,-1.547076e+000
1.827271e+003,-1.690256e+000
1.828235e+003,-4.791638e+000
1.829199e+003,-6.908019e+000
1.830163e+003,-5.066400e+000
1.831128e+003,-2.659528e+000
1.832092e+003,-2.796124e+000
1.833056e+003,-4.103638e+000
1.834020e+003,-4.355539e+000
1.834984e+003,-3.800769e+000
1.835949e+003,-3.928693e+000
1.836913e+003,-4.948678e+000
1.837877e+003,-5.619324e+000
1.838841e+003,-5.267026e+000
1.839806e+003,-4.657580e+000
1.840770e+003,-4.668836e+000
1.841734e+003,-5.027771e+000
1.842698e+003,-4.861249e+000
1.843663e+003,-4.080865e+000
1.844627e+003,-3.326117e+000
1.845591e+003,-2.701593e+000
1.846555e+003,-1.962390e+000
1.847520e+003,-3.464325e-001
1.848484e+003,3.492401e-001
1.849448e+003,-1.242825e+000
1.850412e+003,-3.290146e+000
1.851376e+003,-4.680902e+000
1.852341e+003,-5.231177e+000
1.853305e+003,-4.590005e+000
1.854269e+003,-3.093832e+000
1.855233e+003,-1.883289e+000
1.856198e+003,-1.486435e+000
1.857162e+003,-1.677124e+000
1.858126e+003,-2.457172e+000
1.859090e+003,-3.293674e+000
1.860055e+003,-2.826215e+000
1.861019e+003,-1.403864e+000
1.861983e+003,-1.190796e+000
1.862947e+003,-2.329477e+000
1.863911e+003,-2.923804e+000
1.864876e+003,-2.349411e+000
1.865840e+003,-1.916473e+000
1.866804e+003,-2.501706e+000
1.867768e+003,-3.335651e+000
1.868733e+003,-3.823554e+000
1.869697e+003,-3.789481e+000
1.870661e+003,-2.367682e+000
1.871625e+003,4.556915e-001
1.872590e+003,2.056751e+000
1.873554e+003,1.636993e+000
1.874518e+003,1.077206e+000
1.875482e+003,9.714508e-001
1.876447e+003,8.025665e-001
1.877411e+003,1.146484e-001
1.878375e+003,-6.708161e-001
1.879339e+003,-1.087585e+000
1.880303e+003,-1.238950e+000
1.881268e+003,-1.458530e+000
1.882232e+003,-1.759897e+000
1.883196e+003,-1.847226e+000
1.884160e+003,-1.553931e+000
1.885125e+003,-9.577942e-001
1.886089e+003,-1.239929e-001
1.887053e+003,7.735046e-001
1.888017e+003,1.315906e+000
1.888982e+003,1.513885e+000
1.889946e+003,1.290005e+000
1.890910e+003,5.467682e-001
1.891874e+003,-1.662140e-001
1.892839e+003,-1.066779e+000
1.893803e+003,-1.206241e+000
1.894767e+003,5.964813e-001
1.895731e+003,2.503207e+000
1.896695e+003,2.678836e+000
1.897660e+003,1.921503e+000
1.898624e+003,1.464209e+000
1.899588e+003,1.337167e+000
1.900552e+003,1.260092e+000
1.901517e+003,1.233951e+000
1.902481e+003,9.647735e-001
1.903445e+003,-2.353058e-001
1.904409e+003,-9.734497e-001
1.905374e+003,3.532532e-001
1.906338e+003,2.106555e+000
1.907302e+003,2.033276e+000
1.908266e+003,8.757294e-001
1.909230e+003,5.566559e-001
1.910195e+003,1.295154e+000
1.911159e+003,2.142395e+000
1.912123e+003,2.643899e+000
1.913087e+003,2.955136e+000
1.914052e+003,3.217291e+000
1.915016e+003,3.214145e+000
1.915980e+003,2.374237e+000
1.916944e+003,8.236054e-001
1.917909e+003,3.388550e-001
1.918873e+003,1.169699e+000
1.919837e+003,1.639035e+000
1.920801e+003,1.376437e+000
1.921766e+003,1.295261e+000
1.922730e+003,2.032065e+000
1.923694e+003,2.501245e+000
1.924658e+003,1.303488e+000
1.925622e+003,-1.060120e-001
1.926587e+003,5.461670e-001
1.927551e+003,2.491080e+000
1.928515e+003,2.749536e+000
1.929479e+003,8.377808e-001
1.930444e+003,-6.500854e-001
1.931408e+003,-8.900604e-001
1.932372e+003,-7.455719e-001
1.933336e+003,-3.916107e-001
1.934301e+003,-3.868408e-002
1.935265e+003,9.588929e-002
1.936229e+003,1.646057e-001
1.937193e+003,6.029205e-001
1.938157e+003,1.106207e+000
1.939122e+003,6.023560e-001
1.940086e+003,-9.113800e-001
1.941050e+003,-1.958810e+000
1.942014e+003,-1.667444e+000
1.942979e+003,-7.225006e-001
1.943943e+003,1.356903e-001
1.944907e+003,8.133911e-001
1.945871e+003,8.354309e-001
1.946836e+003,2.795624e-001
1.947800e+003,6.278351e-001
1.948764e+003,2.042325e+000
1.949728e+003,2.752643e+000
1.950693e+003,2.169241e+000
1.951657e+003,1.746616e+000
1.952621e+003,2.417383e+000
1.953585e+003,3.123862e+000
1.954549e+003,2.750775e+000
1.955514e+003,1.762039e+000
1.956478e+003,1.055804e+000
1.957442e+003,6.379913e-001
1.958406e+003,6.343445e-001
1.959371e+003,1.126270e+000
1.960335e+003,1.774960e+000
1.961299e+003,2.827213e+000
1.962263e+003,3.648413e+000
1.963228e+003,4.285037e+000
1.964192e+003,4.312042e+000
1.965156e+003,2.636941e+000
1.966120e+003,7.621247e-001
1.967084e+003,7.008972e-001
1.968049e+003,2.076758e+000
1.969013e+003,3.633456e+000
1.969977e+003,4.814334e+000
1.970941e+003,5.069577e+000
1.971906e+003,4.035468e+000
1.972870e+003,2.703583e+000
1.973834e+003,1.927997e+000
1.974798e+003,1.728067e+000
1.975763e+003,2.481235e+000
1.976727e+003,3.721155e+000
1.977691e+003,4.011200e+000
1.978655e+003,3.363556e+000
1.979620e+003,2.580429e+000
1.980584e+003,1.895587e+000
1.981548e+003,1.434061e+000
1.982512e+003,1.219684e+000
1.983476e+003,1.609512e+000
1.984441e+003,3.122061e+000
1.985405e+003,5.014264e+000
1.986369e+003,5.484021e+000
1.987333e+003,4.582770e+000
1.988298e+003,3.762659e+000
1.989262e+003,2.831885e+000
1.990226e+003,2.412467e+000
1.991190e+003,2.454922e+000
1.992155e+003,3.191138e+000
1.993119e+003,5.763867e+000
1.994083e+003,7.731006e+000
1.995047e+003,7.589963e+000
1.996011e+003,6.411621e+000
1.996976e+003,4.786490e+000
1.997940e+003,3.191040e+000
1.998904e+003,2.690408e+000
1.999868e+003,3.339545e+000
2.000833e+003,4.018521e+000
2.001797e+003,4.563119e+000
2.002761e+003,4.743689e+000
2.003725e+003,3.986917e+000
2.004690e+003,3.446933e+000
2.005654e+003,4.010947e+000
2.006618e+003,5.024243e+000
2.007582e+003,6.169540e+000
2.008547e+003,7.044497e+000
2.009511e+003,6.912088e+000
2.010475e+003,5.996527e+000
2.011439e+003,5.378268e+000
2.012403e+003,5.362482e+000
2.013368e+003,4.978363e+000
2.014332e+003,3.444791e+000
2.015296e+003,2.146451e+000
2.016260e+003,3.406616e+000
2.017225e+003,5.926785e+000
2.018189e+003,6.420901e+000
2.019153e+003,5.463147e+000
2.020117e+003,5.500598e+000
2.021082e+003,6.623480e+000
2.022046e+003,7.696786e+000
2.023010e+003,8.428790e+000
2.023974e+003,8.207425e+000
2.024938e+003,6.581479e+000
2.025903e+003,5.058096e+000
2.026867e+003,5.324222e+000
2.027831e+003,6.388370e+000
2.028795e+003,5.781473e+000
2.029760e+003,3.642728e+000
2.030724e+003,3.421500e+000
2.031688e+003,6.119855e+000
2.032652e+003,6.758185e+000
2.033617e+003,3.792697e+000
2.034581e+003,2.009976e+000
2.035545e+003,3.503476e+000
2.036509e+003,4.997131e+000
2.037474e+003,4.343781e+000
2.038438e+003,3.092126e+000
2.039402e+003,2.724475e+000
2.040366e+003,3.059317e+000
2.041330e+003,3.946451e+000
2.042295e+003,5.345630e+000
2.043259e+003,5.996338e+000
2.044223e+003,5.305539e+000
2.045187e+003,5.052350e+000
2.046152e+003,6.234235e+000
2.047116e+003,6.979098e+000
2.048080e+003,5.980948e+000
2.049044e+003,4.926385e+000
2.050009e+003,5.456543e+000
2.050973e+003,6.316260e+000
2.051937e+003,5.664108e+000
2.052901e+003,4.120163e+000
2.053865e+003,3.465405e+000
2.054830e+003,3.909470e+000
2.055794e+003,4.206375e+000
2.056758e+003,3.788196e+000
2.057722e+003,3.475845e+000
2.058687e+003,4.031937e+000
2.059651e+003,4.803986e+000
2.060615e+003,5.405722e+000
2.061579e+003,5.583331e+000
2.062544e+003,4.532056e+000
2.063508e+003,3.056805e+000
2.064472e+003,3.016257e+000
2.065436e+003,4.197370e+000
2.066401e+003,5.063592e+000
2.067365e+003,5.025244e+000
2.068329e+003,3.968881e+000
2.069293e+003,1.877066e+000
2.070258e+003,2.869843e-001
2.071222e+003,1.207825e+000
2.072186e+003,3.427084e+000
2.073150e+003,4.417840e+000
2.074115e+003,4.374433e+000
2.075079e+003,3.966440e+000
2.076043e+003,3.261173e+000
2.077007e+003,2.823447e+000
2.077971e+003,2.746344e+000
2.078936e+003,2.556189e+000
2.079900e+003,2.066580e+000
2.080864e+003,1.366333e+000
2.081828e+003,4.743103e-001
2.082792e+003,-1.823669e-001
2.083757e+003,-2.245178e-002
2.084721e+003,9.248565e-001
2.085685e+003,2.838303e+000
2.086649e+003,5.849432e+000
2.087614e+003,6.470581e+000
2.088578e+003,4.003333e+000
2.089542e+003,2.586587e+000
2.090506e+003,2.893570e+000
2.091471e+003,3.410580e+000
2.092435e+003,3.673859e+000
2.093399e+003,4.069260e+000
2.094363e+003,5.087646e+000
2.095328e+003,5.994620e+000
2.096292e+003,5.597949e+000
2.097256e+003,4.382681e+000
2.098220e+003,4.201840e+000
2.099185e+003,5.244485e+000
2.100149e+003,5.725888e+000
2.101113e+003,4.975909e+000
2.102077e+003,4.836642e+000
2.103042e+003,6.512994e+000
2.104006e+003,7.112283e+000
2.104970e+003,4.649610e+000
2.105934e+003,2.579278e+000
2.106898e+003,3.304083e+000
2.107863e+003,4.828271e+000
2.108827e+003,5.069891e+000
2.109791e+003,4.543857e+000
2.110755e+003,4.612124e+000
2.111719e+003,5.282532e+000
2.112684e+003,5.363116e+000
2.113648e+003,4.465073e+000
2.114612e+003,3.683795e+000
2.115576e+003,3.003964e+000
2.116541e+003,2.773282e+000
2.117505e+003,3.328311e+000
2.118469e+003,4.145590e+000
2.119433e+003,5.121970e+000
2.120398e+003,6.014990e+000
2.121362e+003,6.587192e+000
2.122326e+003,6.860916e+000
2.123290e+003,6.984451e+000
2.124255e+003,6.956037e+000
2.125219e+003,6.435092e+000
2.126183e+003,5.230478e+000
2.127147e+003,4.747314e+000
2.128112e+003,6.322339e+000
2.129076e+003,7.746722e+000
2.130040e+003,7.801404e+000
2.131004e+003,7.223895e+000
2.131969e+003,6.117215e+000
2.132933e+003,5.086978e+000
2.133897e+003,5.056168e+000
2.134861e+003,5.523206e+000
2.135825e+003,5.203702e+000
2.136790e+003,4.307101e+000
2.137754e+003,4.422287e+000
2.138718e+003,5.954651e+000
2.139682e+003,7.410251e+000
2.140646e+003,8.035208e+000
2.141611e+003,8.008975e+000
2.142575e+003,6.973971e+000
2.143539e+003,5.840802e+000
2.144503e+003,5.482364e+000
2.145468e+003,5.706522e+000
2.146432e+003,6.642548e+000
2.147396e+003,7.676996e+000
2.148360e+003,7.382937e+000
2.149325e+003,6.150848e+000
2.150289e+003,5.958356e+000
2.151253e+003,7.172769e+000
2.152217e+003,7.955093e+000
2.153182e+003,7.266309e+000
2.154146e+003,6.473310e+000
2.155110e+003,6.909406e+000
2.156074e+003,7.835715e+000
2.157039e+003,8.519818e+000
2.158003e+003,8.834394e+000
2.158967e+003,8.140439e+000
2.159931e+003,7.185464e+000
2.160896e+003,7.989203e+000
2.161860e+003,1.003027e+001
2.162824e+003,1.080398e+001
2.163788e+003,9.935202e+000
2.164752e+003,9.321622e+000
2.165717e+003,9.871847e+000
2.166681e+003,1.035081e+001
2.167645e+003,9.646591e+000
2.168609e+003,8.500076e+000
2.169573e+003,7.704684e+000
2.170538e+003,7.386823e+000
2.171502e+003,8.277262e+000
2.172466e+003,9.571927e+000
2.173430e+003,8.902575e+000
2.174395e+003,6.942474e+000
2.175359e+003,6.781921e+000
2.176323e+003,8.530100e+000
2.177287e+003,9.406778e+000
2.178252e+003,8.383618e+000
2.179216e+003,6.842096e+000
2.180180e+003,5.772339e+000
2.181144e+003,5.740008e+000
2.182109e+003,7.871305e+000
2.183073e+003,1.069845e+001
2.184037e+003,1.140080e+001
2.185001e+003,1.055229e+001
2.185966e+003,9.142697e+000
2.186930e+003,7.628385e+000
2.187894e+003,7.384918e+000
2.188858e+003,8.223523e+000
2.189823e+003,8.184751e+000
2.190787e+003,6.915601e+000
2.191751e+003,6.584933e+000
2.192715e+003,8.303699e+000
2.193679e+003,9.811178e+000
2.194644e+003,8.829788e+000
2.195608e+003,6.990079e+000
2.196572e+003,7.129373e+000
2.197536e+003,8.302371e+000
2.198500e+003,8.088376e+000
2.199465e+003,6.994901e+000
2.200429e+003,6.334689e+000
2.201393e+003,6.248376e+000
2.202357e+003,7.089172e+000
2.203322e+003,8.584198e+000
2.204286e+003,9.002933e+000
2.205250e+003,7.846521e+000
2.206214e+003,6.750342e+000
2.207179e+003,6.833450e+000
2.208143e+003,7.663886e+000
2.209107e+003,8.958835e+000
2.210071e+003,1.015332e+001
2.211036e+003,1.004881e+001
2.212000e+003,9.132947e+000
2.212964e+003,8.262619e+000
2.213928e+003,7.693213e+000
2.214893e+003,8.411466e+000
2.215857e+003,1.008946e+001
2.216821e+003,1.096050e+001
2.217785e+003,1.074599e+001
2.218750e+003,1.083586e+001
2.219714e+003,1.184239e+001
2.220678e+003,1.285577e+001
2.221642e+003,1.314543e+001
2.222606e+003,1.329967e+001
2.223571e+003,1.427629e+001
2.224535e+003,1.539718e+001
2.225499e+003,1.516863e+001
2.226463e+003,1.434317e+001
2.227427e+003,1.423907e+001
2.228392e+003,1.500386e+001
2.229356e+003,1.723975e+001
2.230320e+003,2.036584e+001
2.231284e+003,2.233415e+001
2.232249e+003,2.264409e+001
2.233213e+003,2.211273e+001
2.234177e+003,2.129287e+001
2.235141e+003,2.166913e+001
2.236106e+003,2.487429e+001
2.237070e+003,2.880059e+001
2.238034e+003,3.094072e+001
2.238998e+003,3.210923e+001
2.239963e+003,3.320369e+001
2.240927e+003,3.440984e+001
2.241891e+003,3.603145e+001
2.242855e+003,3.797779e+001
2.243820e+003,4.027046e+001
2.244784e+003,4.255155e+001
2.245748e+003,4.347369e+001
2.246712e+003,4.304467e+001
2.247677e+003,4.377340e+001
2.248641e+003,4.703682e+001
2.249605e+003,5.084811e+001
2.250569e+003,5.409399e+001
2.251533e+003,5.643736e+001
2.252498e+003,5.740348e+001
2.253462e+003,5.744147e+001
2.254426e+003,5.699743e+001
2.255390e+003,5.599562e+001
2.256354e+003,5.393090e+001
2.257319e+003,5.134916e+001
2.258283e+003,4.921195e+001
2.259247e+003,4.760343e+001
2.260211e+003,4.628626e+001
2.261176e+003,4.507198e+001
2.262140e+003,4.307276e+001
2.263104e+003,3.973956e+001
2.264068e+003,3.609332e+001
2.265033e+003,3.196691e+001
2.265997e+003,2.870308e+001
2.266961e+003,2.767906e+001
2.267925e+003,2.716243e+001
2.268890e+003,2.602242e+001
2.269854e+003,2.446000e+001
2.270818e+003,2.243417e+001
2.271782e+003,2.046825e+001
2.272747e+003,1.958434e+001
2.273711e+003,1.950689e+001
2.274675e+003,1.889483e+001
2.275639e+003,1.748426e+001
2.276604e+003,1.576302e+001
2.277568e+003,1.315350e+001
2.278532e+003,1.175370e+001
2.279496e+003,1.307727e+001
2.280460e+003,1.420436e+001
2.281425e+003,1.436564e+001
2.282389e+003,1.370787e+001
2.283353e+003,1.175023e+001
2.284317e+003,9.646014e+000
2.285281e+003,8.543442e+000
2.286246e+003,7.957730e+000
2.287210e+003,6.659714e+000
2.288174e+003,4.952685e+000
2.289138e+003,5.114923e+000
2.290103e+003,7.867792e+000
2.291067e+003,8.953799e+000
2.292031e+003,7.162439e+000
2.292995e+003,6.067029e+000
2.293960e+003,6.036133e+000
2.294924e+003,6.233884e+000
2.295888e+003,6.719119e+000
2.296852e+003,6.924579e+000
2.297817e+003,6.360526e+000
2.298781e+003,5.843024e+000
2.299745e+003,6.299344e+000
2.300709e+003,6.995331e+000
2.301674e+003,6.591089e+000
2.302638e+003,5.292295e+000
2.303602e+003,4.210516e+000
2.304566e+003,3.348209e+000
2.305531e+003,2.170578e+000
2.306495e+003,4.682800e-001
2.307459e+003,7.027008e-001
2.308423e+003,3.403867e+000
2.309387e+003,4.858099e+000
2.310352e+003,4.038785e+000
2.311316e+003,2.721042e+000
2.312280e+003,1.746970e+000
2.313244e+003,1.142496e+000
2.314208e+003,9.090027e-001
2.315173e+003,1.016208e+000
2.316137e+003,1.614587e+000
2.317101e+003,2.089285e+000
2.318065e+003,-1.937256e-002
2.319030e+003,-3.533164e+000
2.319994e+003,-3.120169e+000
2.320958e+003,1.774658e-001
2.321922e+003,2.015466e+000
2.322887e+003,2.172446e+000
2.323851e+003,1.987778e+000
2.324815e+003,1.764652e+000
2.325779e+003,1.033798e+000
2.326744e+003,-2.372070e-001
2.327708e+003,-9.675873e-001
2.328672e+003,-4.568970e-001
2.329636e+003,1.195679e-001
2.330601e+003,-3.040985e-001
2.331565e+003,-1.271808e+000
2.332529e+003,-2.922403e+000
2.333493e+003,-4.192130e+000
2.334458e+003,-3.225183e+000
2.335422e+003,-1.551508e+000
2.336386e+003,-1.332245e+000
2.337350e+003,-2.011185e+000
2.338314e+003,-2.088031e+000
2.339279e+003,-1.786398e+000
2.340243e+003,-2.798868e+000
2.341207e+003,-5.145955e+000
2.342171e+003,-5.893469e+000
2.343135e+003,-3.615918e+000
2.344100e+003,-2.199860e+000
2.345064e+003,-4.118234e+000
2.346028e+003,-5.573760e+000
2.346992e+003,-4.795163e+000
2.347957e+003,-3.857510e+000
2.348921e+003,-3.681848e+000
2.349885e+003,-3.823483e+000
2.350849e+003,-4.362210e+000
2.351814e+003,-4.713141e+000
2.352778e+003,-3.808124e+000
2.353742e+003,-2.299872e+000
2.354706e+003,-1.826044e+000
2.355671e+003,-2.286160e+000
2.356635e+003,-2.586682e+000
2.357599e+003,-2.685632e+000
2.358563e+003,-2.862219e+000
2.359528e+003,-3.141614e+000
2.360492e+003,-3.526160e+000
2.361456e+003,-4.180353e+000
2.362420e+003,-4.083285e+000
2.363385e+003,-2.702539e+000
2.364349e+003,-1.755908e+000
2.365313e+003,-2.182413e+000
2.366277e+003,-3.197903e+000
2.367241e+003,-4.132886e+000
2.368206e+003,-4.889723e+000
2.369170e+003,-5.297544e+000
2.370134e+003,-5.417253e+000
2.371098e+003,-5.313658e+000
2.372063e+003,-5.087204e+000
2.373027e+003,-5.161401e+000
2.373991e+003,-5.455644e+000
2.374955e+003,-5.864932e+000
2.375919e+003,-6.228661e+000
2.376884e+003,-5.980734e+000
2.377848e+003,-5.139102e+000
2.378812e+003,-3.988037e+000
2.379776e+003,-2.841101e+000
2.380741e+003,-2.987830e+000
2.381705e+003,-5.198415e+000
2.382669e+003,-7.069808e+000
2.383633e+003,-6.707922e+000
2.384598e+003,-5.477185e+000
2.385562e+003,-3.542410e+000
2.386526e+003,-2.314459e+000
2.387490e+003,-3.883530e+000
2.388455e+003,-5.708676e+000
2.389419e+003,-5.067828e+000
2.390383e+003,-3.341135e+000
2.391347e+003,-2.334064e+000
2.392312e+003,-2.048379e+000
2.393276e+003,-2.007742e+000
2.394240e+003,-2.167343e+000
2.395204e+003,-2.636124e+000
2.396168e+003,-3.483185e+000
2.397133e+003,-4.293350e+000
2.398097e+003,-5.655112e+000
2.399061e+003,-5.751534e+000
2.400025e+003,-3.511423e+000
2.400990e+003,-2.165015e+000
2.401954e+003,-2.787985e+000
2.402918e+003,-3.557419e+000
2.403882e+003,-3.628623e+000
2.404846e+003,-3.665567e+000
2.405811e+003,-4.333003e+000
2.406775e+003,-4.587102e+000
2.407739e+003,-2.757779e+000
2.408703e+003,-7.901917e-002
2.409668e+003,-1.005157e-001
2.410632e+003,-2.211401e+000
2.411596e+003,-3.469882e+000
2.412560e+003,-3.949655e+000
2.413525e+003,-3.740668e+000
2.414489e+003,-3.032776e+000
2.415453e+003,-2.354211e+000
2.416417e+003,-1.872418e+000
2.417382e+003,-1.869025e+000
2.418346e+003,-2.357327e+000
2.419310e+003,-3.012238e+000
2.420274e+003,-3.663947e+000
2.421239e+003,-4.154770e+000
2.422203e+003,-4.530318e+000
2.423167e+003,-4.189957e+000
2.424131e+003,-1.787277e+000
2.425095e+003,2.485809e-001
2.426060e+003,-8.388977e-002
2.427024e+003,-9.035522e-001
2.427988e+003,-6.336517e-001
2.428952e+003,-2.839417e-001
2.429917e+003,-1.462704e+000
2.430881e+003,-2.889859e+000
2.431845e+003,-2.056406e+000
2.432809e+003,2.139618e-001
2.433773e+003,5.456879e-001
2.434738e+003,-1.066464e+000
2.435702e+003,-1.915631e+000
2.436666e+003,-1.984634e+000
2.437630e+003,-1.140317e+000
2.438595e+003,1.167889e+000
2.439559e+003,1.576883e+000
2.440523e+003,-7.609802e-001
2.441487e+003,-1.409680e+000
2.442452e+003,1.040576e+000
2.443416e+003,2.956067e+000
2.444380e+003,2.482040e+000
2.445344e+003,1.561505e+000
2.446309e+003,1.797818e+000
2.447273e+003,2.625809e+000
2.448237e+003,3.448334e+000
2.449201e+003,4.032138e+000
2.450166e+003,3.996445e+000
2.451130e+003,3.509106e+000
2.452094e+003,2.507709e+000
2.453058e+003,1.453745e+000
2.454022e+003,1.269000e+000
2.454987e+003,1.422183e+000
2.455951e+003,5.368408e-001
2.456915e+003,-8.153626e-001
2.457879e+003,-7.310181e-001
2.458844e+003,8.370849e-001
2.459808e+003,2.134052e+000
2.460772e+003,2.721396e+000
2.461736e+003,3.288324e+000
2.462700e+003,4.011435e+000
2.463665e+003,4.592819e+000
2.464629e+003,5.301050e+000
2.465593e+003,5.427051e+000
2.466557e+003,4.262338e+000
2.467522e+003,3.678418e+000
2.468486e+003,4.746961e+000
2.469450e+003,5.696313e+000
2.470414e+003,5.186362e+000
2.471379e+003,4.400983e+000
2.472343e+003,4.755402e+000
2.473307e+003,5.655344e+000
2.474271e+003,5.950439e+000
2.475236e+003,5.732468e+000
2.476200e+003,5.077811e+000
2.477164e+003,4.258551e+000
2.478128e+003,4.238434e+000
2.479093e+003,4.708301e+000
2.480057e+003,4.583191e+000
2.481021e+003,4.145920e+000
2.481985e+003,4.676425e+000
2.482949e+003,6.028229e+000
2.483914e+003,6.725784e+000
2.484878e+003,6.484457e+000
2.485842e+003,6.679080e+000
2.486806e+003,7.931125e+000
2.487771e+003,8.980087e+000
2.488735e+003,9.410608e+000
2.489699e+003,9.517026e+000
2.490663e+003,8.594339e+000
2.491627e+003,8.456045e+000
2.492592e+003,1.090084e+001
2.493556e+003,1.250605e+001
2.494520e+003,1.127236e+001
2.495484e+003,9.276602e+000
2.496449e+003,7.961365e+000
2.497413e+003,7.427451e+000
2.498377e+003,7.890384e+000
2.499341e+003,9.126719e+000
2.500306e+003,1.088210e+001
2.501270e+003,1.273010e+001
2.502234e+003,1.213115e+001
2.503198e+003,9.931821e+000
2.504163e+003,9.131357e+000
2.505127e+003,9.464991e+000
2.506091e+003,9.748858e+000
2.507055e+003,9.855631e+000
2.508020e+003,1.002645e+001
2.508984e+003,1.032535e+001
2.509948e+003,1.067241e+001
2.510912e+003,1.103849e+001
2.511876e+003,1.155871e+001
2.512841e+003,1.237723e+001
2.513805e+003,1.302113e+001
2.514769e+003,1.276582e+001
2.515733e+003,1.319381e+001
2.516698e+003,1.541504e+001
2.517662e+003,1.729011e+001
2.518626e+003,1.822122e+001
2.519590e+003,1.871050e+001
2.520554e+003,1.883897e+001
2.521519e+003,1.892011e+001
2.522483e+003,1.919544e+001
2.523447e+003,1.963449e+001
2.524411e+003,2.019496e+001
2.525376e+003,2.102740e+001
2.526340e+003,2.247139e+001
2.527304e+003,2.439197e+001
2.528268e+003,2.689449e+001
2.529233e+003,2.936555e+001
2.530197e+003,2.981813e+001
2.531161e+003,2.922937e+001
2.532125e+003,2.978644e+001
2.533090e+003,3.142109e+001
2.534054e+003,3.347995e+001
2.535018e+003,3.561700e+001
2.535982e+003,3.728634e+001
2.536947e+003,3.836118e+001
2.537911e+003,3.908377e+001
2.538875e+003,3.935197e+001
2.539839e+003,3.970127e+001
2.540803e+003,3.953827e+001
2.541768e+003,4.077834e+001
2.542732e+003,4.458907e+001
2.543696e+003,4.722712e+001
2.544660e+003,4.766422e+001
2.545625e+003,4.728635e+001
2.546589e+003,4.664914e+001
2.547553e+003,4.604556e+001
2.548517e+003,4.565062e+001
2.549482e+003,4.594363e+001
2.550446e+003,4.773332e+001
2.551410e+003,4.964322e+001
2.552374e+003,4.929369e+001
2.553339e+003,4.787135e+001
2.554303e+003,4.665585e+001
2.555267e+003,4.594290e+001
2.556231e+003,4.668104e+001
2.557196e+003,4.761893e+001
2.558160e+003,4.721177e+001
2.559124e+003,4.569122e+001
2.560088e+003,4.314347e+001
2.561052e+003,4.029359e+001
2.562017e+003,3.937219e+001
2.562981e+003,4.032618e+001
2.563945e+003,3.991738e+001
2.564909e+003,3.783600e+001
2.565874e+003,3.599703e+001
2.566838e+003,3.443258e+001
2.567802e+003,3.315877e+001
2.568766e+003,3.218827e+001
2.569730e+003,3.134185e+001
2.570695e+003,3.052458e+001
2.571659e+003,2.923468e+001
2.572623e+003,2.739259e+001
2.573587e+003,2.587943e+001
2.574552e+003,2.516596e+001
2.575516e+003,2.434469e+001
2.576480e+003,2.274821e+001
2.577444e+003,2.105520e+001
2.578409e+003,1.937923e+001
2.579373e+003,1.804043e+001
2.580337e+003,1.772063e+001
2.581301e+003,1.726437e+001
2.582266e+003,1.523542e+001
2.583230e+003,1.386644e+001
2.584194e+003,1.510746e+001
2.585158e+003,1.689768e+001
2.586123e+003,1.735128e+001
2.587087e+003,1.686904e+001
2.588051e+003,1.601155e+001
2.589015e+003,1.495300e+001
2.589979e+003,1.427320e+001
2.590944e+003,1.382794e+001
2.591908e+003,1.311641e+001
2.592872e+003,1.214485e+001
2.593836e+003,1.076006e+001
2.594801e+003,9.265079e+000
2.595765e+003,8.470728e+000
2.596729e+003,8.004062e+000
2.597693e+003,6.225183e+000
2.598657e+003,3.757880e+000
2.599622e+003,4.098554e+000
2.600586e+003,7.757571e+000
2.601550e+003,9.256998e+000
2.602514e+003,6.731772e+000
2.603479e+003,5.032407e+000
2.604443e+003,4.308164e+000
2.605407e+003,4.163467e+000
2.606371e+003,4.784350e+000
2.607336e+003,4.672577e+000
2.608300e+003,3.478262e+000
2.609264e+003,2.452554e+000
2.610228e+003,2.058673e+000
2.611193e+003,1.872632e+000
2.612157e+003,1.667606e+000
2.613121e+003,1.930975e+000
2.614085e+003,3.326852e+000
2.615050e+003,4.051856e+000
2.616014e+003,1.638651e+000
2.616978e+003,-6.556366e-001
2.617942e+003,-6.335754e-001
2.618906e+003,9.426270e-002
2.619871e+003,1.259634e+000
2.620835e+003,1.838367e+000
2.621799e+003,5.760834e-001
2.622763e+003,-8.199798e-001
2.623728e+003,-7.383392e-001
2.624692e+003,9.921875e-002
2.625656e+003,5.612457e-001
2.626620e+003,8.480835e-001
2.627584e+003,1.656299e+000
2.628549e+003,2.656940e+000
2.629513e+003,2.900082e+000
2.630477e+003,2.377512e+000
2.631441e+003,1.454254e-001
2.632406e+003,-2.277132e+000
2.633370e+003,-1.476843e+000
2.634334e+003,1.103421e+000
2.635298e+003,2.214017e+000
2.636263e+003,1.716483e+000
2.637227e+003,6.718963e-001
2.638191e+003,-6.971253e-001
2.639155e+003,-1.575792e+000
2.640120e+003,-1.951215e+000
2.641084e+003,-1.765141e+000
2.642048e+003,-9.739960e-001
2.643012e+003,9.082337e-002
2.643977e+003,1.430109e+000
2.644941e+003,1.727780e+000
2.645905e+003,9.160522e-001
2.646869e+003,2.819397e-001
2.647833e+003,1.668213e-001
2.648798e+003,2.034088e-001
2.649762e+003,2.091003e-001
2.650726e+003,-4.557495e-002
2.651690e+003,-7.471222e-001
2.652655e+003,-1.393326e+000
2.653619e+003,-1.989771e+000
2.654583e+003,-2.080458e+000
2.655547e+003,-1.175876e+000
2.656511e+003,-2.877106e-001
2.657476e+003,3.718079e-001
2.658440e+003,8.267182e-001
2.659404e+003,1.146295e+000
2.660368e+003,9.056976e-001
2.661333e+003,-2.028931e-001
2.662297e+003,-1.347888e+000
2.663261e+003,-1.747974e+000
2.664225e+003,-1.698126e+000
2.665190e+003,-1.273447e+000
2.666154e+003,-1.026813e+000
2.667118e+003,-2.399983e+000
2.668082e+003,-3.274464e+000
2.669047e+003,-4.362640e-001
2.670011e+003,2.374225e+000
2.670975e+003,8.494049e-001
2.671939e+003,-1.718086e+000
2.672904e+003,-1.510388e+000
2.673868e+003,5.759277e-002
2.674832e+003,1.188092e+000
2.675796e+003,1.731549e+000
2.676760e+003,1.195258e+000
2.677725e+003,-1.279449e-001
2.678689e+003,-1.147434e+000
2.679653e+003,-1.854427e+000
2.680617e+003,-2.506529e+000
2.681582e+003,-2.698996e+000
2.682546e+003,-7.411850e-001
2.683510e+003,1.830585e+000
2.684474e+003,1.551657e+000
2.685438e+003,-6.198319e-001
2.686403e+003,-1.273621e+000
2.687367e+003,-3.246918e-001
2.688331e+003,-1.166595e-001
2.689295e+003,-7.365326e-001
2.690260e+003,-6.513245e-001
2.691224e+003,2.848419e-001
2.692188e+003,4.200836e-001
2.693152e+003,-2.398560e-001
2.694117e+003,-5.157791e-001
2.695081e+003,-3.957458e-001
2.696045e+003,-7.927429e-001
2.697009e+003,-1.598189e+000
2.697974e+003,-1.557013e+000
2.698938e+003,-5.308899e-001
2.699902e+003,2.211426e-001
2.700866e+003,2.890595e-001
2.701831e+003,-7.418823e-003
2.702795e+003,-1.172885e+000
2.703759e+003,-1.391743e+000
2.704723e+003,-4.948425e-002
2.705688e+003,7.954376e-001
2.706652e+003,8.847717e-001
2.707616e+003,2.337952e-001
2.708580e+003,-1.105168e+000
2.709544e+003,-1.995560e+000
2.710509e+003,-2.011737e+000
2.711473e+003,-1.863382e+000
2.712437e+003,-1.956258e+000
2.713401e+003,-1.877213e+000
2.714365e+003,-1.240523e+000
2.715330e+003,-6.201401e-001
2.716294e+003,-6.528778e-002
2.717258e+003,3.015900e-002
2.718222e+003,-8.403686e-001
2.719187e+003,-1.688016e+000
2.720151e+003,-2.439494e+000
2.721115e+003,-2.361455e+000
2.722079e+003,-9.656860e-001
2.723044e+003,1.371017e-001
2.724008e+003,-2.742020e-001
2.724972e+003,-8.745941e-001
2.725936e+003,-2.148361e-001
2.726901e+003,5.189422e-001
2.727865e+003,-2.528656e-001
2.728829e+003,-1.172476e+000
2.729793e+003,-1.206511e+000
2.730758e+003,-8.970367e-001
2.731722e+003,-1.196960e-001
2.732686e+003,1.617050e-001
2.733650e+003,-1.180748e+000
2.734615e+003,-2.277080e+000
2.735579e+003,-1.375009e+000
2.736543e+003,-7.303314e-002
2.737507e+003,-5.207413e-001
2.738471e+003,-1.932556e+000
2.739436e+003,-3.462695e+000
2.740400e+003,-4.304834e+000
2.741364e+003,-2.121651e+000
2.742328e+003,5.442063e-001
2.743292e+003,3.905594e-001
2.744257e+003,-6.132736e-001
2.745221e+003,-4.766236e-002
2.746185e+003,9.008942e-001
2.747149e+003,2.244766e-001
2.748114e+003,-8.426971e-001
2.749078e+003,-3.475876e-001
2.750042e+003,1.017517e+000
2.751006e+003,1.460410e+000
2.751971e+003,1.134622e+000
2.752935e+003,4.147705e-001
2.753899e+003,-5.326462e-001
2.754863e+003,-1.579182e+000
2.755828e+003,-2.353903e+000
2.756792e+003,-2.284791e+000
2.757756e+003,-1.586978e+000
2.758720e+003,-3.287094e-001
2.759685e+003,1.064471e+000
2.760649e+003,1.987955e+000
2.761613e+003,2.271481e+000
2.762577e+003,1.141116e+000
2.763542e+003,-1.068224e+000
2.764506e+003,-1.474258e+000
2.765470e+003,-4.994858e-001
2.766434e+003,-2.527756e-001
2.767398e+003,-6.380752e-001
2.768363e+003,-1.552309e+000
2.769327e+003,-2.614134e+000
2.770291e+003,-3.120071e+000
2.771255e+003,-3.154602e+000
2.772219e+003,-3.218480e+000
2.773184e+003,-3.268712e+000
2.774148e+003,-2.645522e+000
2.775112e+003,-1.449739e+000
2.776076e+003,-1.220192e+000
2.777041e+003,-1.966068e+000
2.778005e+003,-2.902321e+000
2.778969e+003,-3.773660e+000
2.779933e+003,-2.753023e+000
2.780898e+003,-6.655701e-001
2.781862e+003,-2.411346e-001
2.782826e+003,-1.246600e+000
2.783790e+003,-2.072856e+000
2.784755e+003,-2.464398e+000
2.785719e+003,-2.834950e+000
2.786683e+003,-3.218698e+000
2.787647e+003,-3.144942e+000
2.788612e+003,-2.535263e+000
2.789576e+003,-2.449502e+000
2.790540e+003,-2.833038e+000
2.791504e+003,-1.772415e+000
2.792469e+003,2.440659e-001
2.793433e+003,1.413712e-001
2.794397e+003,-1.680322e+000
2.795361e+003,-2.659634e+000
2.796325e+003,-2.456998e+000
2.797290e+003,-1.956496e+000
2.798254e+003,-1.375429e+000
2.799218e+003,-1.203140e+000
2.800182e+003,-1.670750e+000
2.801146e+003,-1.127165e+000
2.802111e+003,5.574783e-001
2.803075e+003,2.350824e+000
2.804039e+003,4.016019e+000
2.805003e+003,4.140250e+000
2.805968e+003,2.827521e+000
2.806932e+003,9.033661e-001
2.807896e+003,-9.775604e-001
2.808860e+003,-1.599878e+000
2.809825e+003,-8.859848e-001
2.810789e+003,-4.420914e-001
2.811753e+003,-7.299194e-001
2.812717e+003,-2.175445e-002
2.813682e+003,2.182425e+000
2.814646e+003,2.456207e+000
2.815610e+003,8.400177e-001
2.816574e+003,1.064629e+000
2.817539e+003,2.888846e+000
2.818503e+003,2.912112e+000
2.819467e+003,1.013737e+000
2.820431e+003,-9.140961e-001
2.821396e+003,-2.169363e+000
2.822360e+003,-2.169125e+000
2.823324e+003,-6.920990e-001
2.824288e+003,8.700531e-001
2.825252e+003,2.916260e+000
2.826217e+003,2.688290e+000
2.827181e+003,1.101181e-001
2.828145e+003,-9.297913e-001
2.829109e+003,-3.830490e-001
2.830073e+003,-5.261993e-002
2.831038e+003,-2.222885e-001
2.832002e+003,-6.614929e-001
2.832966e+003,-1.156075e+000
2.833930e+003,-1.251022e+000
2.834895e+003,-8.427734e-001
2.835859e+003,2.241333e-001
2.836823e+003,2.373253e+000
2.837787e+003,2.615777e+000
2.838752e+003,7.905197e-001
2.839716e+003,3.144821e-001
2.840680e+003,1.155585e+000
2.841644e+003,1.695763e+000
2.842609e+003,1.626425e+000
2.843573e+003,5.929734e-001
2.844537e+003,-9.022583e-001
2.845501e+003,-8.467835e-001
2.846466e+003,9.486359e-001
2.847430e+003,1.345447e+000
2.848394e+003,-1.552109e-001
2.849358e+003,-9.681915e-001
2.850323e+003,-1.101894e+000
2.851287e+003,3.123566e-001
2.852251e+003,2.768341e+000
2.853215e+003,2.659550e+000
2.854179e+003,6.675568e-001
2.855144e+003,4.763748e-001
2.856108e+003,1.785925e+000
2.857072e+003,1.360341e+000
2.858036e+003,-9.670807e-001
2.859000e+003,-2.090367e+000
2.859965e+003,-1.807616e+000
2.860929e+003,-1.540575e+000
2.861893e+003,-1.304715e+000
2.862857e+003,-1.296086e+000
2.863822e+003,-1.418126e+000
2.864786e+003,-1.425052e+000
2.865750e+003,-1.177129e+000
2.866714e+003,5.922394e-002
2.867679e+003,1.564374e+000
2.868643e+003,1.291249e+000
2.869607e+003,-4.801911e-001
2.870571e+003,-1.507475e+000
2.871536e+003,-1.703902e+000
2.872500e+003,-7.353989e-001
2.873464e+003,1.259705e+000
2.874428e+003,9.305954e-001
2.875393e+003,-9.329346e-001
2.876357e+003,-1.895271e+000
2.877321e+003,-1.930072e+000
2.878285e+003,-1.250656e+000
2.879250e+003,-1.374497e-001
2.880214e+003,1.390259e+000
2.881178e+003,2.823929e+000
2.882142e+003,2.917397e+000
2.883106e+003,2.003091e+000
2.884071e+003,1.282956e+000
2.885035e+003,7.479782e-001
2.885999e+003,2.957214e-001
2.886963e+003,2.085724e-002
2.887927e+003,2.919037e-001
2.888892e+003,8.759232e-001
2.889856e+003,1.293570e+000
2.890820e+003,1.791870e+000
2.891784e+003,3.363715e+000
2.892749e+003,4.800507e+000
2.893713e+003,3.959253e+000
2.894677e+003,2.007205e+000
2.895641e+003,1.561890e+000
2.896606e+003,2.123752e+000
2.897570e+003,2.733768e+000
2.898534e+003,3.003760e+000
2.899498e+003,1.997969e+000
2.900463e+003,5.541107e-001
2.901427e+003,-1.100537e+000
2.902391e+003,-1.795073e+000
2.903355e+003,8.432434e-001
2.904320e+003,3.090622e+000
2.905284e+003,7.342636e-001
2.906248e+003,-2.523233e+000
2.907212e+003,-8.494339e-001
2.908177e+003,2.441600e+000
2.909141e+003,1.669402e+000
2.910105e+003,-2.418686e-001
2.911069e+003,-8.592285e-001
2.912033e+003,-3.726379e-001
2.912998e+003,2.448982e+000
2.913962e+003,4.315686e+000
2.914926e+003,3.004088e+000
2.915890e+003,1.112949e+000
2.916854e+003,4.941193e-001
2.917819e+003,5.547394e-001
2.918783e+003,7.805527e-001
2.919747e+003,8.369751e-001
2.920711e+003,2.086044e-001
2.921676e+003,-4.607910e-001
2.922640e+003,-1.186154e+000
2.923604e+003,-1.132867e+000
2.924568e+003,5.378815e-001
2.925533e+003,1.704790e+000
2.926497e+003,1.548692e+000
2.927461e+003,1.530270e+000
2.928425e+003,2.440376e+000
2.929390e+003,6.417206e-001
2.930354e+003,-7.161491e+000
2.931318e+003,-1.190680e+001
2.932282e+003,-4.804692e+000
2.933247e+003,9.360352e-001
2.934211e+003,1.541722e+000
2.935175e+003,1.658389e+000
2.936139e+003,1.496899e+000
2.937104e+003,4.745499e-001
2.938068e+003,-1.338724e+000
2.939032e+003,-2.108428e+000
2.939996e+003,-1.368410e+000
2.940960e+003,-2.935440e-001
2.941925e+003,6.250900e-001
2.942889e+003,9.435989e-001
2.943853e+003,2.707901e-001
2.944817e+003,-1.627319e-001
2.945781e+003,-2.747131e-001
2.946746e+003,-5.389816e-001
2.947710e+003,-9.121186e-001
2.948674e+003,-4.845123e-002
2.949638e+003,1.680145e+000
2.950603e+003,2.031796e+000
2.951567e+003,1.094078e+000
2.952531e+003,9.570328e-001
2.953495e+003,1.877606e+000
2.954460e+003,2.155931e+000
2.955424e+003,1.744345e+000
2.956388e+003,1.015669e+000
2.957352e+003,6.311798e-002
2.958317e+003,1.019287e-002
2.959281e+003,5.246048e-001
2.960245e+003,4.453644e-001
2.961209e+003,2.513901e-001
2.962174e+003,1.435237e+000
2.963138e+003,3.134502e+000
2.964102e+003,3.075504e+000
2.965066e+003,2.036232e+000
2.966031e+003,1.814719e+000
2.966995e+003,2.109497e+000
2.967959e+003,1.987790e+000
2.968923e+003,1.596231e+000
2.969887e+003,1.111446e+000
2.970852e+003,7.033844e-001
2.971816e+003,4.542801e-001
2.972780e+003,5.331787e-001
2.973744e+003,1.358267e+000
2.974708e+003,2.242178e+000
2.975673e+003,2.678191e+000
2.976637e+003,2.613779e+000
2.977601e+003,1.892538e+000
2.978565e+003,1.080341e+000
2.979530e+003,1.335823e+000
2.980494e+003,1.310291e+000
2.981458e+003,-1.464793e+000
2.982422e+003,-2.737534e+000
2.983387e+003,1.406273e+000
2.984351e+003,3.789633e+000
2.985315e+003,1.700343e+000
2.986279e+003,-5.444046e-001
2.987244e+003,-7.445892e-001
2.988208e+003,-5.393555e-001
2.989172e+003,-9.812195e-001
2.990136e+003,-1.038736e+000
2.991101e+003,4.248917e-001
2.992065e+003,1.253906e+000
2.993029e+003,6.245788e-001
2.993993e+003,5.381378e-001
2.994958e+003,1.233426e+000
2.995922e+003,1.262238e+000
2.996886e+003,5.236527e-001
2.997850e+003,4.115616e-001
2.998814e+003,1.062573e+000
2.999779e+003,9.332321e-001
3.000743e+003,-3.761368e-001
3.001707e+003,-4.701141e-001
3.002671e+003,1.021030e+000
3.003635e+003,2.136191e+000
3.004600e+003,2.847377e+000
3.005564e+003,2.623280e+000
3.006528e+003,1.740343e+000
3.007492e+003,7.328278e-001
3.008457e+003,6.300507e-002
3.009421e+003,7.615570e-001
3.010385e+003,2.242429e+000
3.011349e+003,3.187616e+000
3.012314e+003,3.178755e+000
3.013278e+003,6.788422e-001
3.014242e+003,-2.953564e+000
3.015206e+003,-3.182713e+000
3.016171e+003,-1.423482e+000
3.017135e+003,1.227509e+000
3.018099e+003,3.042401e+000
3.019063e+003,9.268738e-001
3.020028e+003,-1.139294e+000
3.020992e+003,4.678665e-001
3.021956e+003,2.520537e+000
3.022920e+003,2.211928e+000
3.023885e+003,1.113977e+000
3.024849e+003,9.245499e-001
3.025813e+003,9.307617e-001
3.026777e+003,5.884384e-001
3.027741e+003,-5.801392e-003
3.028706e+003,-1.336676e+000
3.029670e+003,-1.837331e+000
3.030634e+003,-9.076111e-001
3.031598e+003,-6.075104e-001
3.032563e+003,-1.543776e+000
3.033527e+003,-1.922907e+000
3.034491e+003,-1.008635e+000
3.035455e+003,1.942001e-001
3.036420e+003,1.383653e+000
3.037384e+003,1.841360e+000
3.038348e+003,1.156929e+000
3.039312e+003,5.918304e-001
3.040277e+003,1.787170e-001
3.041241e+003,-1.188049e-002
3.042205e+003,-2.439270e-002
3.043169e+003,4.479828e-002
3.044134e+003,9.596863e-002
3.045098e+003,-1.395752e-001
3.046062e+003,-5.970108e-001
3.047026e+003,-8.779343e-001
3.047990e+003,-9.062805e-001
3.048955e+003,-1.643112e-001
3.049919e+003,9.909821e-001
3.050883e+003,9.089661e-001
3.051847e+003,1.797989e-001
3.052812e+003,-3.449631e-001
3.053776e+003,-7.510513e-001
3.054740e+003,-1.632614e+000
3.055704e+003,-1.927060e+000
3.056668e+003,-4.523911e-001
3.057633e+003,1.312889e+000
3.058597e+003,1.752037e+000
3.059561e+003,1.533426e+000
3.060525e+003,1.419504e+000
3.061490e+003,1.138934e+000
3.062454e+003,2.087463e-001
3.063418e+003,-4.745300e-001
3.064382e+003,-5.374237e-001
3.065347e+003,-4.507721e-001
3.066311e+003,-3.287231e-001
3.067275e+003,-2.471146e-001
3.068239e+003,-2.191437e-001
3.069204e+003,-1.249481e-001
3.070168e+003,6.887054e-002
3.071132e+003,8.196564e-002
3.072096e+003,-4.512817e-001
3.073061e+003,-1.098358e-001
3.074025e+003,1.245740e+000
3.074989e+003,2.016957e+000
3.075953e+003,2.166954e+000
3.076917e+003,2.225987e+000
3.077882e+003,2.081305e+000
3.078846e+003,8.741165e-001
3.079810e+003,-8.001129e-001
3.080774e+003,-8.414047e-001
3.081739e+003,1.731400e-001
3.082703e+003,4.174851e-001
3.083667e+003,1.304596e-001
3.084631e+003,-5.840912e-002
3.085595e+003,1.018219e-002
3.086560e+003,8.604950e-001
3.087524e+003,1.817839e+000
3.088488e+003,2.389919e+000
3.089452e+003,2.431204e+000
3.090417e+003,1.842220e+000
3.091381e+003,8.574616e-001
3.092345e+003,-3.670212e-001
3.093309e+003,-1.384752e+000
3.094274e+003,-1.861942e+000
3.095238e+003,-1.743976e+000
3.096202e+003,-4.707245e-001
3.097166e+003,4.941727e-001
3.098131e+003,9.010208e-001
3.099095e+003,9.826630e-001
3.100059e+003,7.753403e-001
3.101023e+003,2.575684e-002
3.101988e+003,-1.037144e+000
3.102952e+003,-9.361267e-001
3.103916e+003,4.860458e-001
3.104880e+003,6.949112e-001
3.105844e+003,-6.256332e-001
3.106809e+003,-8.288177e-001
3.107773e+003,-1.069244e-001
3.108737e+003,-1.170635e+000
3.109701e+003,-2.976737e+000
3.110666e+003,-2.768179e+000
3.111630e+003,-1.446385e+000
3.112594e+003,-2.762207e-001
3.113558e+003,1.889832e-001
3.114522e+003,-8.126084e-001
3.115487e+003,-1.626463e+000
3.116451e+003,3.752930e-001
3.117415e+003,2.861748e+000
3.118379e+003,2.316084e+000
3.119344e+003,9.310150e-001
3.120308e+003,3.218842e-002
3.121272e+003,-7.219772e-001
3.122236e+003,-1.689905e+000
3.123201e+003,-1.492847e+000
3.124165e+003,2.465149e-001
3.125129e+003,1.082204e+000
3.126093e+003,8.322144e-002
3.127058e+003,-1.307957e+000
3.128022e+003,-2.678966e+000
3.128986e+003,-2.126857e+000
3.129950e+003,1.540865e+000
3.130915e+003,2.467453e+000
3.131879e+003,9.194611e-001
3.132843e+003,-7.589920e-001
3.133807e+003,-1.902974e+000
3.134771e+003,-1.032333e+000
3.135736e+003,9.418289e-001
3.136700e+003,2.157416e+000
3.137664e+003,2.373535e+000
3.138628e+003,1.342607e+000
3.139593e+003,-3.796387e-001
3.140557e+003,-2.072559e+000
3.141521e+003,-2.911922e+000
3.142485e+003,-5.848587e-001
3.143449e+003,1.755009e+000
3.144414e+003,1.797595e+000
3.145378e+003,4.828064e-001
3.146342e+003,-2.186288e+000
3.147306e+003,-3.182890e+000
3.148271e+003,-1.190932e+000
3.149235e+003,6.121292e-001
3.150199e+003,4.462555e-001
3.151163e+003,-1.759705e-001
3.152128e+003,-8.305588e-001
3.153092e+003,-1.272148e+000
3.154056e+003,-1.528075e+000
3.155020e+003,-1.134114e+000
3.155985e+003,-3.386353e-001
3.156949e+003,-4.721207e-001
3.157913e+003,-1.195843e+000
3.158877e+003,-1.003709e+000
3.159842e+003,-4.245285e-001
3.160806e+003,-1.668425e+000
3.161770e+003,-3.488719e+000
3.162734e+003,-2.147203e+000
3.163698e+003,5.313950e-001
3.164663e+003,6.971527e-001
3.165627e+003,-1.627716e-001
3.166591e+003,-1.285855e+000
3.167555e+003,-1.567560e+000
3.168520e+003,-2.057953e-002
3.169484e+003,5.764816e-001
3.170448e+003,-1.072264e+000
3.171412e+003,-2.069891e+000
3.172376e+003,-7.205322e-001
3.173341e+003,5.079132e-001
3.174305e+003,1.942154e-001
3.175269e+003,1.618271e-001
3.176233e+003,7.762024e-001
3.177198e+003,2.186218e-001
3.178162e+003,-1.214041e+000
3.179126e+003,-3.338562e-001
3.180090e+003,1.870589e+000
3.181055e+003,1.460399e+000
3.182019e+003,-8.060943e-001
3.182983e+003,-1.346111e+000
3.183947e+003,-8.509704e-001
3.184912e+003,-1.288606e+000
3.185876e+003,-1.962512e+000
3.186840e+003,-9.523773e-001
3.187804e+003,2.300858e-001
3.188769e+003,-1.982788e-001
3.189733e+003,-8.163574e-001
3.190697e+003,-9.150802e-001
3.191661e+003,-6.223648e-001
3.192625e+003,4.870606e-003
3.193590e+003,4.301453e-002
3.194554e+003,-9.529022e-001
3.195518e+003,-1.854872e+000
3.196482e+003,-2.321228e+000
3.197447e+003,-1.461804e+000
3.198411e+003,1.198200e+000
3.199375e+003,9.220154e-001
3.200339e+003,-1.470718e+000
3.201303e+003,1.032974e-001
3.202268e+003,3.830623e+000
3.203232e+003,4.178755e+000
3.204196e+003,2.061615e+000
3.205160e+003,8.085449e-001
3.206125e+003,1.949646e-001
3.207089e+003,-3.089081e-001
3.208053e+003,-5.853271e-001
3.209017e+003,-2.188538e-001
3.209982e+003,1.698502e-001
3.210946e+003,-9.314118e-002
3.211910e+003,-1.926636e-001
3.212874e+003,1.882370e-001
3.213839e+003,6.720794e-001
3.214803e+003,1.074725e+000
3.215767e+003,7.021820e-001
3.216731e+003,-5.747101e-001
3.217696e+003,-1.097278e+000
3.218660e+003,-1.535095e-001
3.219624e+003,2.921844e-001
3.220588e+003,2.157349e-001
3.221552e+003,3.864945e-001
3.222517e+003,6.378692e-001
3.223481e+003,3.466431e-001
3.224445e+003,-2.438004e-001
3.225409e+003,-6.717178e-001
3.226374e+003,-1.015956e+000
3.227338e+003,-1.528056e+000
3.228302e+003,-1.656191e+000
3.229266e+003,-5.887710e-001
3.230230e+003,5.970169e-001
3.231195e+003,9.287888e-001
3.232159e+003,6.746963e-001
3.233123e+003,-5.630554e-001
3.234087e+003,-1.260715e+000
3.235052e+003,-1.189597e+000
3.236016e+003,-9.042160e-001
3.236980e+003,-5.254868e-001
3.237944e+003,4.348083e-001
3.238909e+003,1.795493e+000
3.239873e+003,1.373279e+000
3.240837e+003,-6.193436e-001
3.241801e+003,-1.720050e+000
3.242766e+003,-2.030437e+000
3.243730e+003,-1.704405e+000
3.244694e+003,-1.219020e+000
3.245658e+003,-1.255211e+000
3.246623e+003,-1.494496e+000
3.247587e+003,-1.643156e+000
3.248551e+003,-1.855504e+000
3.249515e+003,-2.252454e+000
3.250479e+003,-1.999596e+000
3.251444e+003,-3.075210e-001
3.252408e+003,8.629104e-001
3.253372e+003,2.769928e-002
3.254336e+003,-7.359207e-001
3.255301e+003,-1.358929e+000
3.256265e+003,-4.416016e-001
3.257229e+003,1.350359e+000
3.258193e+003,3.404739e-001
3.259157e+003,-2.432750e+000
3.260122e+003,-2.898076e+000
3.261086e+003,-1.667899e+000
3.262050e+003,-9.410126e-001
3.263014e+003,-6.241409e-001
3.263979e+003,-5.133117e-001
3.264943e+003,-6.706344e-001
3.265907e+003,-1.656757e+000
3.266871e+003,-2.183553e+000
3.267836e+003,-1.551588e+000
3.268800e+003,-1.319595e-001
3.269764e+003,1.936925e+000
3.270728e+003,2.133243e+000
3.271693e+003,-1.376678e-001
3.272657e+003,-1.835626e+000
3.273621e+003,-1.886714e+000
3.274585e+003,-6.281067e-001
3.275550e+003,1.978294e+000
3.276514e+003,1.370688e+000
3.277478e+003,-1.048129e+000
3.278442e+003,-1.335579e+000
3.279406e+003,-5.948623e-001
3.280371e+003,-6.005279e-001
3.281335e+003,-1.030202e+000
3.282299e+003,-1.568910e+000
3.283263e+003,-1.698412e+000
3.284228e+003,-9.045349e-001
3.285192e+003,1.660599e-001
3.286156e+003,1.394516e+000
3.287120e+003,1.828453e+000
3.288084e+003,9.142243e-001
3.289049e+003,7.802445e-001
3.290013e+003,1.463156e+000
3.290977e+003,1.234702e+000
3.291941e+003,2.433426e-001
3.292906e+003,-7.556763e-002
3.293870e+003,1.834244e-001
3.294834e+003,-1.380951e-001
3.295798e+003,-6.735672e-001
3.296763e+003,-2.977066e-001
3.297727e+003,3.204834e-001
3.298691e+003,8.495331e-002
3.299655e+003,-3.984650e-001
3.300620e+003,-9.183563e-001
3.301584e+003,-1.158330e+000
3.302548e+003,-1.020705e+000
3.303512e+003,-9.462921e-001
3.304477e+003,-9.637756e-001
3.305441e+003,2.804230e-001
3.306405e+003,3.291803e+000
3.307369e+003,3.928883e+000
3.308333e+003,1.901964e+000
3.309298e+003,1.579361e+000
3.310262e+003,2.414562e+000
3.311226e+003,3.129100e+000
3.312190e+003,3.474288e+000
3.313155e+003,2.867065e+000
3.314119e+003,2.304030e+000
3.315083e+003,2.631592e+000
3.316047e+003,2.812848e+000
3.317011e+003,1.957780e+000
3.317976e+003,1.084526e+000
3.318940e+003,9.677307e-001
3.319904e+003,9.618683e-001
3.320868e+003,1.032849e+000
3.321833e+003,5.928116e-001
3.322797e+003,-1.435944e-001
3.323761e+003,4.340408e-001
3.324725e+003,1.930391e+000
3.325690e+003,3.033696e+000
3.326654e+003,3.520404e+000
3.327618e+003,3.440549e+000
3.328582e+003,2.901842e+000
3.329547e+003,2.005676e+000
3.330511e+003,1.039490e+000
3.331475e+003,7.626190e-002
3.332439e+003,-3.937332e-001
3.333404e+003,-2.835541e-002
3.334368e+003,2.126816e-001
3.335332e+003,1.714325e-001
3.336296e+003,5.401611e-001
3.337260e+003,1.380569e+000
3.338225e+003,2.130710e+000
3.339189e+003,2.513451e+000
3.340153e+003,1.473982e+000
3.341117e+003,-4.793121e-001
3.342082e+003,-5.212906e-001
3.343046e+003,5.276688e-001
3.344010e+003,2.473297e+000
3.344974e+003,3.312558e+000
3.345938e+003,1.179997e+000
3.346903e+003,-1.108266e+000
3.347867e+003,-2.221963e+000
3.348831e+003,-2.158104e+000
3.349795e+003,-8.778473e-001
3.350760e+003,-4.337555e-001
3.351724e+003,-2.091836e+000
3.352688e+003,-2.368002e+000
3.353652e+003,-1.432838e+000
3.354617e+003,-1.054478e+000
3.355581e+003,-1.131537e+000
3.356545e+003,-1.670010e+000
3.357509e+003,-1.760005e+000
3.358474e+003,3.102112e-002
3.359438e+003,1.401485e+000
3.360402e+003,6.347809e-002
3.361366e+003,-1.381734e+000
3.362331e+003,-3.213654e-002
3.363295e+003,7.438126e-001
3.364259e+003,-8.542435e-001
3.365223e+003,-1.059268e+000
3.366188e+003,1.396851e-001
3.367152e+003,-7.991592e-001
3.368116e+003,-3.239974e+000
3.369080e+003,-4.032661e+000
3.370044e+003,-3.121932e+000
3.371009e+003,-1.851120e+000
3.371973e+003,-4.588059e-001
3.372937e+003,9.102036e-001
3.373901e+003,1.448993e+000
3.374865e+003,-1.235704e+000
3.375830e+003,-2.582956e+000
3.376794e+003,-1.756882e-001
3.377758e+003,1.099373e+000
3.378722e+003,3.800507e-001
3.379687e+003,-2.719467e-001
3.380651e+003,-3.780838e-001
3.381615e+003,-8.251892e-001
3.382579e+003,-1.596297e+000
3.383544e+003,-1.600716e+000
3.384508e+003,-1.129547e+000
3.385472e+003,-9.166595e-001
3.386436e+003,-1.235953e+000
3.387401e+003,-3.417401e+000
3.388365e+003,-4.611839e+000
3.389329e+003,-3.337422e+000
3.390293e+003,-2.092702e+000
3.391258e+003,-1.846008e+000
3.392222e+003,-1.473665e+000
3.393186e+003,-4.982651e-001
3.394150e+003,1.165579e+000
3.395115e+003,3.520520e+000
3.396079e+003,3.638310e+000
3.397043e+003,2.307898e+000
3.398007e+003,1.650198e+000
3.398971e+003,1.615692e+000
3.399936e+003,2.146440e+000
3.400900e+003,2.982648e+000
3.401864e+003,4.083189e+000
3.402828e+003,4.231999e+000
3.403792e+003,2.562694e+000
3.404757e+003,1.261791e+000
3.405721e+003,1.491867e+000
3.406685e+003,2.421901e+000
3.407649e+003,3.960997e+000
3.408614e+003,5.806274e+000
3.409578e+003,7.602310e+000
3.410542e+003,8.331757e+000
3.411506e+003,8.556653e+000
3.412471e+003,9.103168e+000
3.413435e+003,1.008118e+001
3.414399e+003,1.165668e+001
3.415363e+003,1.310956e+001
3.416328e+003,1.374479e+001
3.417292e+003,1.394588e+001
3.418256e+003,1.368958e+001
3.419220e+003,1.351756e+001
3.420185e+003,1.353974e+001
3.421149e+003,1.453044e+001
3.422113e+003,1.572926e+001
3.423077e+003,1.432245e+001
3.424042e+003,1.223389e+001
3.425006e+003,1.338071e+001
3.425970e+003,1.552702e+001
3.426934e+003,1.527604e+001
