7.140112e+001,4.861501e+001
7.236536e+001,4.773014e+001
7.332959e+001,4.732776e+001
7.429382e+001,4.686849e+001
7.525806e+001,4.658265e+001
7.622229e+001,4.529515e+001
7.718652e+001,4.177083e+001
7.815076e+001,3.427690e+001
7.911499e+001,3.039124e+001
8.007922e+001,2.941085e+001
8.104346e+001,3.113281e+001
8.200769e+001,3.592013e+001
8.297192e+001,4.699288e+001
8.393616e+001,5.639037e+001
8.490039e+001,6.300661e+001
8.586462e+001,6.655447e+001
8.682886e+001,6.691362e+001
8.779310e+001,6.153388e+001
8.875733e+001,5.413912e+001
8.972157e+001,4.627150e+001
9.068580e+001,3.873715e+001
9.165003e+001,3.191358e+001
9.261427e+001,2.806487e+001
9.357850e+001,2.631913e+001
9.454273e+001,2.635964e+001
9.550697e+001,2.826971e+001
9.647120e+001,3.334686e+001
9.743543e+001,3.539422e+001
9.839967e+001,3.334172e+001
9.936390e+001,2.944146e+001
1.003281e+002,2.625266e+001
1.012924e+002,2.423175e+001
1.022566e+002,2.276571e+001
1.032208e+002,2.212170e+001
1.041851e+002,2.203374e+001
1.051493e+002,2.193114e+001
1.061135e+002,2.113138e+001
1.070778e+002,2.018735e+001
1.080420e+002,1.936390e+001
1.090062e+002,1.871261e+001
1.099705e+002,1.805556e+001
1.109347e+002,1.634575e+001
1.118989e+002,1.423652e+001
1.128632e+002,1.286365e+001
1.138274e+002,1.306688e+001
1.147916e+002,1.517691e+001
1.157559e+002,1.694171e+001
1.167201e+002,1.873004e+001
1.176843e+002,2.010753e+001
1.186486e+002,2.047321e+001
1.196128e+002,1.876513e+001
1.205770e+002,1.727472e+001
1.215413e+002,1.606845e+001
1.225055e+002,1.519222e+001
1.234697e+002,1.470179e+001
1.244340e+002,1.580379e+001
1.253982e+002,1.626036e+001
1.263624e+002,1.439829e+001
1.273267e+002,1.043335e+001
1.282909e+002,6.617676e+000
1.292551e+002,8.674731e+000
1.302194e+002,1.297010e+001
1.311836e+002,1.672230e+001
1.321478e+002,1.810687e+001
1.331121e+002,1.694912e+001
1.340763e+002,1.440302e+001
1.350405e+002,1.025550e+001
1.360048e+002,6.418353e+000
1.369690e+002,4.924689e+000
1.379332e+002,7.384485e+000
1.388975e+002,1.017151e+001
1.398617e+002,1.400085e+001
1.408259e+002,1.785876e+001
1.417902e+002,2.017270e+001
1.427544e+002,1.947243e+001
1.437186e+002,1.780813e+001
1.446829e+002,1.504476e+001
1.456471e+002,1.165180e+001
1.466113e+002,8.547583e+000
1.475756e+002,6.554968e+000
1.485398e+002,5.834192e+000
1.495040e+002,7.576550e+000
1.504683e+002,1.190496e+001
1.514325e+002,1.782972e+001
1.523967e+002,1.919531e+001
1.533610e+002,1.707467e+001
1.543252e+002,1.448035e+001
1.552894e+002,1.369910e+001
1.562537e+002,1.587974e+001
1.572179e+002,1.585626e+001
1.581821e+002,1.170552e+001
1.591464e+002,7.016675e+000
1.601106e+002,5.732007e+000
1.610748e+002,1.174384e+001
1.620391e+002,1.596745e+001
1.630033e+002,1.563033e+001
1.639676e+002,1.249114e+001
1.649318e+002,9.392652e+000
1.658960e+002,9.178675e+000
1.668603e+002,9.887054e+000
1.678245e+002,1.044841e+001
1.687887e+002,1.064702e+001
1.697530e+002,1.053422e+001
1.707172e+002,9.921753e+000
1.716814e+002,9.094604e+000
1.726457e+002,9.056513e+000
1.736099e+002,1.029709e+001
1.745741e+002,1.291297e+001
1.755384e+002,1.344772e+001
1.765026e+002,1.047281e+001
1.774668e+002,7.659094e+000
1.784311e+002,7.224933e+000
1.793953e+002,1.038232e+001
1.803595e+002,1.229149e+001
1.813238e+002,1.167265e+001
1.822880e+002,1.013619e+001
1.832522e+002,9.001776e+000
1.842165e+002,9.346247e+000
1.851807e+002,9.469568e+000
1.861449e+002,7.431067e+000
1.871092e+002,4.496619e+000
1.880734e+002,2.376477e+000
1.890376e+002,3.655902e+000
1.900019e+002,7.298859e+000
1.909661e+002,1.001319e+001
1.919303e+002,1.157183e+001
1.928946e+002,1.229443e+001
1.938588e+002,1.312329e+001
1.948230e+002,1.383517e+001
1.957873e+002,1.518524e+001
1.967515e+002,1.708812e+001
1.977157e+002,1.961010e+001
1.986800e+002,2.381653e+001
1.996442e+002,2.833377e+001
2.006084e+002,3.554045e+001
2.015727e+002,5.009451e+001
2.025369e+002,7.300137e+001
2.035011e+002,8.890079e+001
2.044654e+002,8.272016e+001
2.054296e+002,6.908580e+001
2.063938e+002,5.498890e+001
2.073581e+002,4.519862e+001
2.083223e+002,3.980980e+001
2.092865e+002,3.794428e+001
2.102508e+002,3.891685e+001
2.112150e+002,4.262284e+001
2.121792e+002,4.908175e+001
2.131435e+002,5.949578e+001
2.141077e+002,6.466988e+001
2.150719e+002,6.293248e+001
2.160362e+002,5.774045e+001
2.170004e+002,5.398158e+001
2.179646e+002,5.145610e+001
2.189289e+002,5.132051e+001
2.198931e+002,5.269839e+001
2.208573e+002,5.631318e+001
2.218216e+002,6.381485e+001
2.227858e+002,8.141945e+001
2.237500e+002,9.800028e+001
2.247143e+002,1.118272e+002
2.256785e+002,1.210344e+002
2.266427e+002,1.231948e+002
2.276070e+002,1.081836e+002
2.285712e+002,8.458107e+001
2.295354e+002,6.265749e+001
2.304997e+002,4.554670e+001
2.314639e+002,3.292561e+001
2.324281e+002,2.362957e+001
2.333924e+002,1.759957e+001
2.343566e+002,1.340768e+001
2.353208e+002,1.108949e+001
2.362851e+002,1.103478e+001
2.372493e+002,1.036188e+001
2.382135e+002,8.305176e+000
2.391778e+002,6.248553e+000
2.401420e+002,5.040808e+000
2.411062e+002,5.121118e+000
2.420705e+002,4.867285e+000
2.430347e+002,2.590399e+000
2.439989e+002,-1.502686e-002
2.449632e+002,-1.508069e+000
2.459274e+002,-7.292420e-001
2.468916e+002,1.203778e+000
2.478559e+002,1.970386e+000
2.488201e+002,1.780652e+000
2.497843e+002,7.470825e-001
2.507486e+002,-1.038452e+000
2.517128e+002,-3.873834e+000
2.526770e+002,-4.807977e+000
2.536413e+002,-3.210156e+000
2.546055e+002,-4.258728e-001
2.555697e+002,1.461133e+000
2.565340e+002,1.799756e+000
2.574982e+002,2.000623e+000
2.584625e+002,2.264679e+000
2.594267e+002,2.551135e+000
2.603909e+002,2.710620e+000
2.613552e+002,2.410437e+000
2.623194e+002,2.103088e+000
2.632836e+002,2.128320e+000
2.642479e+002,2.376044e+000
2.652121e+002,2.555408e+000
2.661763e+002,2.152924e+000
2.671406e+002,1.410852e+000
2.681048e+002,5.585266e-001
2.690690e+002,-3.283630e-001
2.700333e+002,-1.099738e+000
2.709975e+002,-1.009491e+000
2.719617e+002,3.848877e-001
2.729260e+002,1.225580e+000
2.738902e+002,7.126770e-001
2.748544e+002,-1.128302e+000
2.758187e+002,-2.097644e+000
2.767829e+002,-1.128027e+000
2.777471e+002,-3.677002e-001
2.787114e+002,-5.330628e-001
2.796756e+002,-1.694159e+000
2.806398e+002,-2.840247e+000
2.816041e+002,-3.611786e+000
2.825683e+002,-3.959955e+000
2.835325e+002,-3.640668e+000
2.844968e+002,-2.614905e+000
2.854610e+002,-1.254559e+000
2.864252e+002,-5.234375e-001
2.873895e+002,-1.186951e-001
2.883537e+002,5.365540e-001
2.893179e+002,1.837213e+000
2.902822e+002,3.885577e+000
2.912464e+002,4.292847e+000
2.922106e+002,2.708905e+000
2.931749e+002,7.301880e-001
2.941391e+002,-6.772888e-001
2.951033e+002,-1.399097e+000
2.960676e+002,-2.011261e+000
2.970318e+002,-2.742645e+000
2.979960e+002,-3.202252e+000
2.989603e+002,-3.066772e+000
2.999245e+002,-2.125751e+000
3.008887e+002,-9.805908e-001
3.018530e+002,2.644897e-001
3.028172e+002,1.305505e+000
3.037814e+002,1.798138e+000
3.047457e+002,1.447083e+000
3.057099e+002,4.520630e-001
3.066741e+002,-4.025879e-001
3.076384e+002,-1.192065e+000
3.086026e+002,-2.182037e+000
3.095668e+002,-3.721191e+000
3.105311e+002,-6.240314e+000
3.114953e+002,-7.164343e+000
3.124595e+002,-5.833991e+000
3.134238e+002,-3.574896e+000
3.143880e+002,-1.899457e+000
3.153522e+002,-1.186066e+000
3.163165e+002,-6.845948e-001
3.172807e+002,-4.735107e-001
3.182449e+002,-1.719482e-001
3.192092e+002,7.867615e-001
3.201734e+002,3.253577e+000
3.211376e+002,5.247602e+000
3.221019e+002,5.129614e+000
3.230661e+002,3.636115e+000
3.240303e+002,1.789386e+000
3.249946e+002,7.193481e-001
3.259588e+002,5.628052e-001
3.269230e+002,1.060736e+000
3.278873e+002,2.235492e+000
3.288515e+002,3.675177e+000
3.298157e+002,4.643140e+000
3.307800e+002,4.624878e+000
3.317442e+002,5.211633e+000
3.327084e+002,6.652362e+000
3.336727e+002,8.529468e+000
3.346369e+002,1.016324e+001
3.356011e+002,1.129692e+001
3.365654e+002,1.238000e+001
3.375296e+002,1.337240e+001
3.384938e+002,1.444324e+001
3.394581e+002,1.582937e+001
3.404223e+002,1.787697e+001
3.413865e+002,2.006476e+001
3.423508e+002,2.131371e+001
3.433150e+002,2.219725e+001
3.442792e+002,2.392622e+001
3.452435e+002,2.851220e+001
3.462077e+002,3.623212e+001
3.471719e+002,4.367791e+001
3.481362e+002,4.996212e+001
3.491004e+002,5.696574e+001
3.500646e+002,6.887809e+001
3.510289e+002,8.462471e+001
3.519931e+002,1.092857e+002
3.529573e+002,1.458636e+002
3.539216e+002,1.906153e+002
3.548858e+002,2.389548e+002
3.558500e+002,3.040661e+002
3.568143e+002,3.495132e+002
3.577785e+002,3.623923e+002
3.587427e+002,3.480442e+002
3.597070e+002,3.152825e+002
3.606712e+002,2.652658e+002
3.616354e+002,2.099941e+002
3.625997e+002,1.636733e+002
3.635639e+002,1.272596e+002
3.645281e+002,9.981633e+001
3.654924e+002,7.955370e+001
3.664566e+002,6.864569e+001
3.674208e+002,5.870847e+001
3.683851e+002,4.953619e+001
3.693493e+002,4.136578e+001
3.703135e+002,3.482189e+001
3.712778e+002,3.117039e+001
3.722420e+002,2.800219e+001
3.732062e+002,2.481971e+001
3.741705e+002,2.202181e+001
3.751347e+002,2.032652e+001
3.760989e+002,2.062456e+001
3.770632e+002,2.151773e+001
3.780274e+002,2.265329e+001
3.789916e+002,2.362015e+001
3.799559e+002,2.388083e+001
3.809201e+002,2.271749e+001
3.818844e+002,2.066420e+001
3.828486e+002,1.931265e+001
3.838128e+002,1.864464e+001
3.847771e+002,1.832909e+001
3.857413e+002,1.784694e+001
3.867055e+002,1.694977e+001
3.876698e+002,1.684970e+001
3.886340e+002,1.748871e+001
3.895982e+002,1.878127e+001
3.905625e+002,2.088192e+001
3.915267e+002,2.507770e+001
3.924909e+002,2.770892e+001
3.934552e+002,2.783355e+001
3.944194e+002,2.649722e+001
3.953836e+002,2.463831e+001
3.963479e+002,2.250613e+001
3.973121e+002,2.076431e+001
3.982763e+002,1.986594e+001
3.992406e+002,1.966104e+001
4.002048e+002,1.996788e+001
4.011690e+002,2.060785e+001
4.021333e+002,2.157040e+001
4.030975e+002,2.284003e+001
4.040617e+002,2.445629e+001
4.050260e+002,2.595488e+001
4.059902e+002,2.664130e+001
4.069544e+002,2.555593e+001
4.079187e+002,2.662505e+001
4.088829e+002,3.000919e+001
4.098471e+002,3.471861e+001
4.108114e+002,4.004134e+001
4.117756e+002,4.577790e+001
4.127398e+002,5.263442e+001
4.137041e+002,6.342980e+001
4.146683e+002,7.361263e+001
4.156325e+002,7.988963e+001
4.165968e+002,8.052135e+001
4.175610e+002,7.695882e+001
4.185252e+002,6.974100e+001
4.194895e+002,6.122625e+001
4.204537e+002,5.444555e+001
4.214179e+002,5.130589e+001
4.223822e+002,5.160915e+001
4.233464e+002,5.180952e+001
4.243106e+002,5.133818e+001
4.252749e+002,5.185515e+001
4.262391e+002,5.378159e+001
4.272033e+002,5.707636e+001
4.281676e+002,6.349258e+001
4.291318e+002,7.298456e+001
4.300960e+002,8.540757e+001
4.310603e+002,1.010220e+002
4.320245e+002,1.196015e+002
4.329887e+002,1.405273e+002
4.339530e+002,1.640326e+002
4.349172e+002,1.894150e+002
4.358814e+002,2.206358e+002
4.368457e+002,2.556917e+002
4.378099e+002,2.873704e+002
4.387741e+002,3.000552e+002
4.397384e+002,2.966102e+002
4.407026e+002,2.847315e+002
4.416668e+002,2.651002e+002
4.426311e+002,2.401334e+002
4.435953e+002,2.179863e+002
4.445595e+002,2.001903e+002
4.455238e+002,1.837774e+002
4.464880e+002,1.682128e+002
4.474522e+002,1.539975e+002
4.484165e+002,1.426577e+002
4.493807e+002,1.370090e+002
4.503449e+002,1.315631e+002
4.513092e+002,1.254441e+002
4.522734e+002,1.181282e+002
4.532376e+002,1.087164e+002
4.542019e+002,9.561259e+001
4.551661e+002,8.208049e+001
4.561303e+002,7.189943e+001
4.570946e+002,6.472607e+001
4.580588e+002,5.987335e+001
4.590230e+002,5.663448e+001
4.599873e+002,5.520187e+001
4.609515e+002,5.296241e+001
4.619157e+002,4.915107e+001
4.628800e+002,4.586102e+001
4.638442e+002,4.505429e+001
4.648084e+002,4.744966e+001
4.657727e+002,5.044454e+001
4.667369e+002,5.433006e+001
4.677011e+002,5.830457e+001
4.686654e+002,6.214659e+001
4.696296e+002,6.581386e+001
4.705938e+002,6.825745e+001
4.715581e+002,6.885802e+001
4.725223e+002,6.795628e+001
4.734865e+002,6.519667e+001
4.744508e+002,6.071943e+001
4.754150e+002,5.538905e+001
4.763792e+002,5.106385e+001
4.773435e+002,4.755653e+001
4.783077e+002,4.489532e+001
4.792719e+002,4.325640e+001
4.802362e+002,4.235877e+001
4.812004e+002,4.050094e+001
4.821646e+002,3.611330e+001
4.831289e+002,3.256582e+001
4.840931e+002,3.061504e+001
4.850573e+002,2.967358e+001
4.860216e+002,2.814231e+001
4.869858e+002,2.491061e+001
4.879500e+002,2.221315e+001
4.889143e+002,2.056890e+001
4.898785e+002,1.988360e+001
4.908427e+002,2.009012e+001
4.918070e+002,2.143780e+001
4.927712e+002,2.294835e+001
4.937354e+002,2.305474e+001
4.946997e+002,2.212799e+001
4.956639e+002,2.098853e+001
4.966281e+002,2.044974e+001
4.975924e+002,2.058049e+001
4.985566e+002,2.120095e+001
4.995208e+002,2.213935e+001
5.004851e+002,2.356762e+001
5.014493e+002,2.571470e+001
5.024135e+002,2.872795e+001
5.033778e+002,3.186386e+001
5.043420e+002,3.559943e+001
5.053063e+002,3.909919e+001
5.062705e+002,4.231179e+001
5.072347e+002,4.501673e+001
5.081990e+002,4.617429e+001
5.091632e+002,4.363631e+001
5.101274e+002,3.973951e+001
5.110917e+002,3.538064e+001
5.120559e+002,3.099473e+001
5.130201e+002,2.673903e+001
5.139844e+002,2.279330e+001
5.149486e+002,1.920811e+001
5.159128e+002,1.650552e+001
5.168771e+002,1.498490e+001
5.178413e+002,1.409952e+001
5.188055e+002,1.259764e+001
5.197698e+002,9.510089e+000
5.207340e+002,7.303796e+000
5.216982e+002,6.541211e+000
5.226625e+002,6.345679e+000
5.236267e+002,5.703448e+000
5.245909e+002,4.117346e+000
5.255552e+002,2.660681e+000
5.265194e+002,1.804742e+000
5.274836e+002,1.354724e+000
5.284479e+002,1.250610e+000
5.294121e+002,1.451105e+000
5.303763e+002,1.795398e+000
5.313406e+002,1.605054e+000
5.323048e+002,1.181494e+000
5.332690e+002,1.394452e+000
5.342333e+002,2.732471e+000
5.351975e+002,4.931360e+000
5.361617e+002,5.760669e+000
5.371260e+002,4.537305e+000
5.380902e+002,3.106818e+000
5.390544e+002,1.267340e+000
5.400187e+002,-6.812195e-001
5.409829e+002,-1.599786e+000
5.419471e+002,-1.199402e-001
5.429114e+002,1.212012e+000
5.438756e+002,1.638647e+000
5.448398e+002,1.444592e+000
5.458041e+002,1.089471e+000
5.467683e+002,8.146057e-001
5.477325e+002,8.184387e-001
5.486968e+002,1.314441e+000
5.496610e+002,2.166925e+000
5.506252e+002,3.236603e+000
5.515895e+002,4.412360e+000
5.525537e+002,5.663989e+000
5.535179e+002,5.793933e+000
5.544822e+002,4.609290e+000
5.554464e+002,3.471893e+000
5.564106e+002,3.251502e+000
5.573749e+002,3.940253e+000
5.583391e+002,3.842548e+000
5.593033e+002,1.734302e+000
5.602676e+002,-3.218994e-002
5.612318e+002,-6.741455e-001
5.621960e+002,-4.001526e-001
5.631603e+002,-4.269409e-002
5.641245e+002,-2.137878e-001
5.650887e+002,-4.868408e-001
5.660530e+002,-6.175110e-001
5.670172e+002,-5.601501e-001
5.679814e+002,-1.608276e-001
5.689457e+002,7.926514e-001
5.699099e+002,2.102631e+000
5.708741e+002,1.749695e+000
5.718384e+002,-4.680664e-001
5.728026e+002,-2.706366e+000
5.737668e+002,-3.294281e+000
5.747311e+002,-1.757867e+000
5.756953e+002,-1.013849e+000
5.766595e+002,-1.660724e+000
5.776238e+002,-2.355713e+000
5.785880e+002,-2.398859e+000
5.795522e+002,-1.867841e+000
5.805165e+002,-1.758295e+000
5.814807e+002,-3.701160e+000
5.824449e+002,-5.337991e+000
5.834092e+002,-5.161969e+000
5.843734e+002,-3.480615e+000
5.853376e+002,-1.360046e+000
5.863019e+002,5.325928e-002
5.872661e+002,6.671509e-001
5.882303e+002,5.967835e-001
5.891946e+002,-1.775879e-001
5.901588e+002,-8.965027e-001
5.911230e+002,-6.510925e-001
5.920873e+002,1.071399e+000
5.930515e+002,1.601752e+000
5.940157e+002,4.125854e-001
5.949800e+002,-9.744934e-001
5.959442e+002,-1.900348e+000
5.969084e+002,-2.314789e+000
5.978727e+002,-2.528870e+000
5.988369e+002,-2.592944e+000
5.998011e+002,-2.556342e+000
6.007654e+002,-2.426080e+000
6.017296e+002,-2.213190e+000
6.026938e+002,-1.932275e+000
6.036581e+002,-1.599542e+000
6.046223e+002,-1.213171e+000
6.055865e+002,-6.684631e-001
6.065508e+002,2.656250e-002
6.075150e+002,5.857849e-001
6.084792e+002,6.400757e-001
6.094435e+002,-4.390869e-002
6.104077e+002,1.119751e-001
6.113719e+002,1.781793e+000
6.123362e+002,3.264240e+000
6.133004e+002,3.422052e+000
6.142646e+002,2.251190e+000
6.152289e+002,1.584845e+000
6.161931e+002,2.699335e+000
6.171573e+002,3.999023e+000
6.181216e+002,4.952759e+000
6.190858e+002,5.646405e+000
6.200500e+002,6.509216e+000
6.210143e+002,8.023651e+000
6.219785e+002,9.761841e+000
6.229427e+002,1.078225e+001
6.239070e+002,1.121379e+001
6.248712e+002,1.173507e+001
6.258354e+002,1.306238e+001
6.267997e+002,1.541299e+001
6.277639e+002,1.694177e+001
6.287281e+002,1.749877e+001
6.296924e+002,1.758742e+001
6.306566e+002,1.721505e+001
6.316208e+002,1.643872e+001
6.325851e+002,1.586686e+001
6.335493e+002,1.589647e+001
6.345135e+002,1.608193e+001
6.354778e+002,1.634315e+001
6.364420e+002,1.662003e+001
6.374063e+002,1.687022e+001
6.383705e+002,1.707073e+001
6.393347e+002,1.720443e+001
6.402990e+002,1.746893e+001
6.412632e+002,1.773596e+001
6.422274e+002,1.760393e+001
6.431917e+002,1.674890e+001
6.441559e+002,1.518498e+001
6.451201e+002,1.376132e+001
6.460844e+002,1.271643e+001
6.470486e+002,1.134542e+001
6.480128e+002,8.797351e+000
6.489771e+002,5.596216e+000
6.499413e+002,4.057757e+000
6.509055e+002,6.162775e+000
6.518698e+002,7.984393e+000
6.528340e+002,8.270538e+000
6.537982e+002,7.823846e+000
6.547625e+002,7.885882e+000
6.557267e+002,9.260663e+000
6.566909e+002,1.069907e+001
6.576552e+002,1.007364e+001
6.586194e+002,8.353394e+000
6.595836e+002,6.867578e+000
6.605479e+002,6.305871e+000
6.615121e+002,6.562860e+000
6.624763e+002,7.149347e+000
6.634406e+002,8.352880e+000
6.644048e+002,9.092267e+000
6.653690e+002,8.842395e+000
6.663333e+002,8.057867e+000
6.672975e+002,7.680896e+000
6.682617e+002,8.096930e+000
6.692260e+002,8.479321e+000
6.701902e+002,8.578321e+000
6.711544e+002,8.598615e+000
6.721187e+002,8.811383e+000
6.730829e+002,9.253876e+000
6.740471e+002,9.418768e+000
6.750114e+002,7.845721e+000
6.759756e+002,6.000610e+000
6.769398e+002,5.698059e+000
6.779041e+002,7.190125e+000
6.788683e+002,9.372272e+000
6.798325e+002,1.024345e+001
6.807968e+002,9.329987e+000
6.817610e+002,8.647855e+000
6.827252e+002,8.210892e+000
6.836895e+002,7.974741e+000
6.846537e+002,7.863645e+000
6.856179e+002,7.830856e+000
6.865822e+002,8.110761e+000
6.875464e+002,9.063177e+000
6.885106e+002,1.003371e+001
6.894749e+002,1.070959e+001
6.904391e+002,1.112375e+001
6.914034e+002,1.153578e+001
6.923676e+002,1.207116e+001
6.933318e+002,1.293068e+001
6.942961e+002,1.463266e+001
6.952603e+002,1.687414e+001
6.962245e+002,1.864635e+001
6.971888e+002,1.898983e+001
6.981530e+002,1.784251e+001
6.991172e+002,1.764860e+001
7.000815e+002,1.845080e+001
7.010457e+002,1.968358e+001
7.020099e+002,2.173738e+001
7.029742e+002,2.429393e+001
7.039384e+002,2.562630e+001
7.049026e+002,2.409740e+001
7.058669e+002,2.292321e+001
7.068311e+002,2.308239e+001
7.077953e+002,2.400876e+001
7.087596e+002,2.505906e+001
7.097238e+002,2.593467e+001
7.106880e+002,2.669995e+001
7.116523e+002,2.753769e+001
7.126165e+002,2.821623e+001
7.135807e+002,2.843199e+001
7.145450e+002,2.808723e+001
7.155092e+002,2.720885e+001
7.164734e+002,2.578383e+001
7.174377e+002,2.319941e+001
7.184019e+002,2.146079e+001
7.193661e+002,2.092629e+001
7.203304e+002,2.091108e+001
7.212946e+002,2.071695e+001
7.222589e+002,2.024432e+001
7.232231e+002,2.001617e+001
7.241873e+002,2.065796e+001
7.251516e+002,2.116023e+001
7.261158e+002,2.079484e+001
7.270800e+002,1.961776e+001
7.280443e+002,1.829724e+001
7.290085e+002,1.750599e+001
7.299727e+002,1.717458e+001
7.309370e+002,1.701645e+001
7.319012e+002,1.702396e+001
7.328654e+002,1.720805e+001
7.338297e+002,1.762839e+001
7.347939e+002,1.832197e+001
7.357581e+002,1.809600e+001
7.367224e+002,1.598355e+001
7.376866e+002,1.433174e+001
7.386508e+002,1.387992e+001
7.396151e+002,1.434541e+001
7.405793e+002,1.499315e+001
7.415435e+002,1.589806e+001
7.425078e+002,1.655068e+001
7.434720e+002,1.642693e+001
7.444362e+002,1.607212e+001
7.454005e+002,1.619455e+001
7.463647e+002,1.707406e+001
7.473289e+002,1.808566e+001
7.482932e+002,1.769148e+001
7.492574e+002,1.656492e+001
7.502216e+002,1.638509e+001
7.511859e+002,1.755838e+001
7.521501e+002,1.933513e+001
7.531143e+002,2.041330e+001
7.540786e+002,2.052663e+001
7.550428e+002,2.064128e+001
7.560070e+002,2.076249e+001
7.569713e+002,2.086210e+001
7.579355e+002,2.104376e+001
7.588997e+002,2.125381e+001
7.598640e+002,2.101381e+001
7.608282e+002,1.933263e+001
7.617924e+002,1.793429e+001
7.627567e+002,1.786955e+001
7.637209e+002,1.876881e+001
7.646851e+002,1.983326e+001
7.656494e+002,2.041829e+001
7.666136e+002,2.066627e+001
7.675778e+002,2.127028e+001
7.685421e+002,2.218462e+001
7.695063e+002,2.283846e+001
7.704705e+002,2.296919e+001
7.714348e+002,2.265229e+001
7.723990e+002,2.211290e+001
7.733632e+002,2.046895e+001
7.743275e+002,2.004473e+001
7.752917e+002,2.177546e+001
7.762559e+002,2.420137e+001
7.772202e+002,2.606437e+001
7.781844e+002,2.703493e+001
7.791486e+002,2.776231e+001
7.801129e+002,2.859145e+001
7.810771e+002,2.953641e+001
7.820413e+002,3.076094e+001
7.830056e+002,3.219901e+001
7.839698e+002,3.363141e+001
7.849340e+002,3.481676e+001
7.858983e+002,3.571099e+001
7.868625e+002,3.603540e+001
7.878267e+002,3.565566e+001
7.887910e+002,3.523613e+001
7.897552e+002,3.513436e+001
7.907194e+002,3.534084e+001
7.916837e+002,3.561079e+001
7.926479e+002,3.556007e+001
7.936121e+002,3.606360e+001
7.945764e+002,3.781696e+001
7.955406e+002,3.987803e+001
7.965048e+002,4.114623e+001
7.974691e+002,4.122091e+001
7.984333e+002,4.113934e+001
7.993975e+002,4.199269e+001
8.003618e+002,4.344979e+001
8.013260e+002,4.548806e+001
8.022902e+002,4.801809e+001
8.032545e+002,5.063602e+001
8.042187e+002,5.274923e+001
8.051829e+002,5.420451e+001
8.061472e+002,5.628727e+001
8.071114e+002,5.937148e+001
8.080756e+002,6.242140e+001
8.090399e+002,6.456743e+001
8.100041e+002,6.609393e+001
8.109683e+002,6.882560e+001
8.119326e+002,7.387547e+001
8.128968e+002,7.946622e+001
8.138610e+002,8.549398e+001
8.148253e+002,9.139787e+001
8.157895e+002,9.616371e+001
8.167537e+002,9.941318e+001
8.177180e+002,1.024585e+002
8.186822e+002,1.084406e+002
8.196464e+002,1.161126e+002
8.206107e+002,1.229900e+002
8.215749e+002,1.285365e+002
8.225391e+002,1.323925e+002
8.235034e+002,1.338575e+002
8.244676e+002,1.321896e+002
8.254318e+002,1.300712e+002
8.263961e+002,1.283213e+002
8.273603e+002,1.257301e+002
8.283245e+002,1.210708e+002
8.292888e+002,1.148375e+002
8.302530e+002,1.091347e+002
8.312172e+002,1.051384e+002
8.321815e+002,1.016504e+002
8.331457e+002,9.787653e+001
8.341099e+002,9.412174e+001
8.350742e+002,9.079736e+001
8.360384e+002,8.807713e+001
8.370026e+002,8.565137e+001
8.379669e+002,8.265141e+001
8.389311e+002,7.902759e+001
8.398953e+002,7.640968e+001
8.408596e+002,7.545747e+001
8.418238e+002,7.490259e+001
8.427880e+002,7.328403e+001
8.437523e+002,7.044387e+001
8.447165e+002,6.742367e+001
8.456807e+002,6.397913e+001
8.466450e+002,6.081753e+001
8.476092e+002,5.807458e+001
8.485734e+002,5.575370e+001
8.495377e+002,5.386499e+001
8.505019e+002,5.245908e+001
8.514661e+002,5.156400e+001
8.524304e+002,5.166264e+001
8.533946e+002,5.208414e+001
8.543588e+002,5.159591e+001
8.553231e+002,4.975594e+001
8.562873e+002,4.725272e+001
8.572515e+002,4.558729e+001
8.582158e+002,4.493601e+001
8.591800e+002,4.483820e+001
8.601442e+002,4.570918e+001
8.611085e+002,4.657545e+001
8.620727e+002,4.694241e+001
8.630369e+002,4.683166e+001
8.640012e+002,4.625924e+001
8.649654e+002,4.430912e+001
8.659296e+002,4.297115e+001
8.668939e+002,4.363885e+001
8.678581e+002,4.524015e+001
8.688223e+002,4.617909e+001
8.697866e+002,4.567901e+001
8.707508e+002,4.468710e+001
8.717150e+002,4.542542e+001
8.726793e+002,4.741536e+001
8.736435e+002,4.846008e+001
8.746077e+002,4.819177e+001
8.755720e+002,4.703442e+001
8.765362e+002,4.533185e+001
8.775004e+002,4.285464e+001
8.784647e+002,4.089820e+001
8.794289e+002,3.971421e+001
8.803931e+002,3.868356e+001
8.813574e+002,3.765482e+001
8.823216e+002,3.661599e+001
8.832858e+002,3.559713e+001
8.842501e+002,3.463713e+001
8.852143e+002,3.382431e+001
8.861785e+002,3.344042e+001
8.871428e+002,3.304162e+001
8.881070e+002,3.187757e+001
8.890712e+002,2.988113e+001
8.900355e+002,2.785170e+001
8.909997e+002,2.710282e+001
8.919639e+002,2.787863e+001
8.929282e+002,2.851247e+001
8.938924e+002,2.917395e+001
8.948566e+002,2.951217e+001
8.958209e+002,2.925467e+001
8.967851e+002,2.851461e+001
8.977493e+002,2.773462e+001
8.987136e+002,2.687797e+001
8.996778e+002,2.611673e+001
9.006420e+002,2.585419e+001
9.016063e+002,2.553132e+001
9.025705e+002,2.449337e+001
9.035347e+002,2.267097e+001
9.044990e+002,2.071576e+001
9.054632e+002,1.937574e+001
9.064274e+002,1.858532e+001
9.073917e+002,1.809819e+001
9.083559e+002,1.797067e+001
9.093201e+002,1.764113e+001
9.102844e+002,1.650056e+001
9.112486e+002,1.461591e+001
9.122128e+002,1.340806e+001
9.131771e+002,1.341501e+001
9.141413e+002,1.349111e+001
9.151055e+002,1.369216e+001
9.160698e+002,1.383322e+001
9.170340e+002,1.361397e+001
9.179982e+002,1.297893e+001
9.189625e+002,1.247257e+001
9.199267e+002,1.287915e+001
9.208909e+002,1.338030e+001
9.218552e+002,1.321651e+001
9.228194e+002,1.243221e+001
9.237836e+002,1.116191e+001
9.247479e+002,9.494486e+000
9.257121e+002,7.725616e+000
9.266763e+002,7.712888e+000
9.276406e+002,1.087657e+001
9.286048e+002,1.255839e+001
9.295690e+002,1.124597e+001
9.305333e+002,8.951075e+000
9.314975e+002,8.014475e+000
9.324617e+002,8.748370e+000
9.334260e+002,9.338018e+000
9.343902e+002,8.477292e+000
9.353545e+002,7.793906e+000
9.363187e+002,8.357351e+000
9.372830e+002,9.569067e+000
9.382472e+002,1.024410e+001
9.392114e+002,9.670832e+000
9.401757e+002,8.410947e+000
9.411399e+002,7.651278e+000
9.421041e+002,7.294818e+000
9.430684e+002,7.014884e+000
9.440326e+002,6.646857e+000
9.449968e+002,6.480609e+000
9.459611e+002,7.092181e+000
9.469253e+002,8.738803e+000
9.478895e+002,9.819150e+000
9.488538e+002,9.550253e+000
9.498180e+002,9.417984e+000
9.507822e+002,1.001541e+001
9.517465e+002,1.089517e+001
9.527107e+002,1.124341e+001
9.536749e+002,1.073153e+001
9.546392e+002,1.031366e+001
9.556034e+002,1.165702e+001
9.565676e+002,1.354488e+001
9.575319e+002,1.427868e+001
9.584961e+002,1.378899e+001
9.594603e+002,1.323510e+001
9.604246e+002,1.380813e+001
9.613888e+002,1.548975e+001
9.623530e+002,1.714878e+001
9.633173e+002,1.805858e+001
9.642815e+002,1.990977e+001
9.652457e+002,2.288662e+001
9.662100e+002,2.702797e+001
9.671742e+002,3.202304e+001
9.681384e+002,3.772053e+001
9.691027e+002,4.552551e+001
9.700669e+002,5.746100e+001
9.710311e+002,7.113650e+001
9.719954e+002,8.846959e+001
9.729596e+002,1.061931e+002
9.739238e+002,1.177998e+002
9.748881e+002,1.188957e+002
9.758523e+002,1.113296e+002
9.768165e+002,1.003758e+002
9.777808e+002,8.502757e+001
9.787450e+002,7.193457e+001
9.797092e+002,6.215618e+001
9.806735e+002,5.455218e+001
9.816377e+002,4.822382e+001
9.826019e+002,4.319651e+001
9.835662e+002,3.924181e+001
9.845304e+002,3.682104e+001
9.854946e+002,3.505242e+001
9.864589e+002,3.390540e+001
9.874231e+002,3.310891e+001
9.883873e+002,3.205230e+001
9.893516e+002,3.061949e+001
9.903158e+002,2.984311e+001
9.912800e+002,3.154138e+001
9.922443e+002,3.525419e+001
9.932085e+002,3.770189e+001
9.941727e+002,3.859078e+001
9.951370e+002,4.069197e+001
9.961012e+002,4.580398e+001
9.970654e+002,5.368137e+001
9.980297e+002,6.328988e+001
9.989939e+002,7.235126e+001
9.999581e+002,8.790785e+001
1.000922e+003,1.046774e+002
1.001887e+003,1.324195e+002
1.002851e+003,1.824588e+002
1.003815e+003,2.522260e+002
1.004779e+003,3.305301e+002
1.005744e+003,4.222484e+002
1.006708e+003,4.936226e+002
1.007672e+003,4.919167e+002
1.008636e+003,4.371325e+002
1.009600e+003,3.668768e+002
1.010565e+003,2.967175e+002
1.011529e+003,2.310066e+002
1.012493e+003,1.797084e+002
1.013457e+003,1.460536e+002
1.014422e+003,1.188530e+002
1.015386e+003,9.845145e+001
1.016350e+003,8.218086e+001
1.017314e+003,7.001662e+001
1.018279e+003,6.088615e+001
1.019243e+003,5.307952e+001
1.020207e+003,4.609908e+001
1.021171e+003,4.040094e+001
1.022135e+003,3.712476e+001
1.023100e+003,3.482504e+001
1.024064e+003,3.240259e+001
1.025028e+003,2.967932e+001
1.025992e+003,2.695337e+001
1.026957e+003,2.449050e+001
1.027921e+003,2.234397e+001
1.028885e+003,2.060366e+001
1.029849e+003,1.910075e+001
1.030814e+003,1.842251e+001
1.031778e+003,1.955520e+001
1.032742e+003,2.071544e+001
1.033706e+003,1.978616e+001
1.034671e+003,1.680600e+001
1.035635e+003,1.487852e+001
1.036599e+003,1.627218e+001
1.037563e+003,1.759586e+001
1.038527e+003,1.651827e+001
1.039492e+003,1.447235e+001
1.040456e+003,1.340022e+001
1.041420e+003,1.400101e+001
1.042384e+003,1.545298e+001
1.043349e+003,1.664726e+001
1.044313e+003,1.750905e+001
1.045277e+003,1.728396e+001
1.046241e+003,1.552490e+001
1.047206e+003,1.407746e+001
1.048170e+003,1.414788e+001
1.049134e+003,1.509825e+001
1.050098e+003,1.522550e+001
1.051063e+003,1.398773e+001
1.052027e+003,1.339511e+001
1.052991e+003,1.489189e+001
1.053955e+003,1.628446e+001
1.054919e+003,1.623328e+001
1.055884e+003,1.507003e+001
1.056848e+003,1.378487e+001
1.057812e+003,1.300350e+001
1.058776e+003,1.262213e+001
1.059741e+003,1.245584e+001
1.060705e+003,1.241714e+001
1.061669e+003,1.207386e+001
1.062633e+003,1.121723e+001
1.063598e+003,1.040477e+001
1.064562e+003,1.012487e+001
1.065526e+003,1.040134e+001
1.066490e+003,1.116870e+001
1.067454e+003,1.310922e+001
1.068419e+003,1.439421e+001
1.069383e+003,1.394319e+001
1.070347e+003,1.319359e+001
1.071311e+003,1.346132e+001
1.072276e+003,1.473157e+001
1.073240e+003,1.603967e+001
1.074204e+003,1.674770e+001
1.075168e+003,1.676772e+001
1.076133e+003,1.556650e+001
1.077097e+003,1.348929e+001
1.078061e+003,1.166913e+001
1.079025e+003,1.035162e+001
1.079990e+003,9.656763e+000
1.080954e+003,9.940969e+000
1.081918e+003,1.140674e+001
1.082882e+003,1.245831e+001
1.083846e+003,1.265472e+001
1.084811e+003,1.281628e+001
1.085775e+003,1.309333e+001
1.086739e+003,1.340487e+001
1.087703e+003,1.372358e+001
1.088668e+003,1.404016e+001
1.089632e+003,1.422736e+001
1.090596e+003,1.402928e+001
1.091560e+003,1.373218e+001
1.092525e+003,1.405138e+001
1.093489e+003,1.478884e+001
1.094453e+003,1.518455e+001
1.095417e+003,1.486917e+001
1.096381e+003,1.420564e+001
1.097346e+003,1.385513e+001
1.098310e+003,1.380890e+001
1.099274e+003,1.412108e+001
1.100238e+003,1.544038e+001
1.101203e+003,1.635013e+001
1.102167e+003,1.596890e+001
1.103131e+003,1.511483e+001
1.104095e+003,1.498417e+001
1.105060e+003,1.586176e+001
1.106024e+003,1.681729e+001
1.106988e+003,1.705915e+001
1.107952e+003,1.696077e+001
1.108917e+003,1.704271e+001
1.109881e+003,1.728025e+001
1.110845e+003,1.757331e+001
1.111809e+003,1.786376e+001
1.112773e+003,1.811780e+001
1.113738e+003,1.831630e+001
1.114702e+003,1.858741e+001
1.115666e+003,1.857363e+001
1.116630e+003,1.811447e+001
1.117595e+003,1.753477e+001
1.118559e+003,1.662928e+001
1.119523e+003,1.580780e+001
1.120487e+003,1.571297e+001
1.121452e+003,1.652522e+001
1.122416e+003,1.771263e+001
1.123380e+003,1.914086e+001
1.124344e+003,2.029551e+001
1.125308e+003,2.035188e+001
1.126273e+003,1.958582e+001
1.127237e+003,1.904122e+001
1.128201e+003,1.931263e+001
1.129165e+003,1.988989e+001
1.130130e+003,1.945004e+001
1.131094e+003,1.724697e+001
1.132058e+003,1.625390e+001
1.133022e+003,1.734564e+001
1.133987e+003,1.836193e+001
1.134951e+003,1.856376e+001
1.135915e+003,1.834087e+001
1.136879e+003,1.828683e+001
1.137844e+003,1.854924e+001
1.138808e+003,1.885115e+001
1.139772e+003,1.890615e+001
1.140736e+003,1.883374e+001
1.141700e+003,1.896667e+001
1.142665e+003,1.923023e+001
1.143629e+003,1.921371e+001
1.144593e+003,1.869656e+001
1.145557e+003,1.815216e+001
1.146522e+003,1.856298e+001
1.147486e+003,2.026780e+001
1.148450e+003,2.120754e+001
1.149414e+003,2.063851e+001
1.150379e+003,2.047043e+001
1.151343e+003,2.160182e+001
1.152307e+003,2.316948e+001
1.153271e+003,2.416205e+001
1.154235e+003,2.432594e+001
1.155200e+003,2.384079e+001
1.156164e+003,2.236094e+001
1.157128e+003,2.114103e+001
1.158092e+003,2.244507e+001
1.159057e+003,2.523015e+001
1.160021e+003,2.667363e+001
1.160985e+003,2.566816e+001
1.161949e+003,2.386923e+001
1.162914e+003,2.384454e+001
1.163878e+003,2.586335e+001
1.164842e+003,2.729387e+001
1.165806e+003,2.731314e+001
1.166771e+003,2.772653e+001
1.167735e+003,2.956744e+001
1.168699e+003,3.128979e+001
1.169663e+003,3.090462e+001
1.170627e+003,2.878303e+001
1.171592e+003,2.772239e+001
1.172556e+003,2.968742e+001
1.173520e+003,3.277640e+001
1.174484e+003,3.428335e+001
1.175449e+003,3.472213e+001
1.176413e+003,3.480933e+001
1.177377e+003,3.469030e+001
1.178341e+003,3.477851e+001
1.179306e+003,3.551550e+001
1.180270e+003,3.689721e+001
1.181234e+003,3.864186e+001
1.182198e+003,4.180500e+001
1.183162e+003,4.327884e+001
1.184127e+003,4.177216e+001
1.185091e+003,3.969788e+001
1.186055e+003,3.823170e+001
1.187019e+003,3.752990e+001
1.187984e+003,3.773074e+001
1.188948e+003,3.889977e+001
1.189912e+003,3.969497e+001
1.190876e+003,3.775926e+001
1.191841e+003,3.449236e+001
1.192805e+003,3.373671e+001
1.193769e+003,3.565914e+001
1.194733e+003,3.712046e+001
1.195698e+003,3.589510e+001
1.196662e+003,3.310276e+001
1.197626e+003,3.176993e+001
1.198590e+003,3.233739e+001
1.199554e+003,3.268237e+001
1.200519e+003,3.257601e+001
1.201483e+003,3.228672e+001
1.202447e+003,3.154128e+001
1.203411e+003,3.083211e+001
1.204376e+003,3.091956e+001
1.205340e+003,3.179073e+001
1.206304e+003,3.245218e+001
1.207268e+003,3.204821e+001
1.208233e+003,3.099487e+001
1.209197e+003,3.007835e+001
1.210161e+003,2.925854e+001
1.211125e+003,2.913004e+001
1.212089e+003,3.019184e+001
1.213054e+003,3.129848e+001
1.214018e+003,3.101678e+001
1.214982e+003,2.954949e+001
1.215946e+003,2.881820e+001
1.216911e+003,2.918101e+001
1.217875e+003,2.990179e+001
1.218839e+003,3.120317e+001
1.219803e+003,3.223317e+001
1.220768e+003,3.221998e+001
1.221732e+003,3.148911e+001
1.222696e+003,3.093041e+001
1.223660e+003,3.102176e+001
1.224625e+003,3.130746e+001
1.225589e+003,3.087102e+001
1.226553e+003,2.968992e+001
1.227517e+003,2.973954e+001
1.228481e+003,3.157408e+001
1.229446e+003,3.327903e+001
1.230410e+003,3.425281e+001
1.231374e+003,3.443938e+001
1.232338e+003,3.340353e+001
1.233303e+003,3.104811e+001
1.234267e+003,2.942296e+001
1.235231e+003,2.961283e+001
1.236195e+003,3.018843e+001
1.237160e+003,3.049355e+001
1.238124e+003,3.056220e+001
1.239088e+003,3.046107e+001
1.240052e+003,3.024676e+001
1.241016e+003,2.991944e+001
1.241981e+003,2.945168e+001
1.242945e+003,2.900735e+001
1.243909e+003,2.939973e+001
1.244873e+003,3.134921e+001
1.245838e+003,3.241392e+001
1.246802e+003,3.186675e+001
1.247766e+003,3.119550e+001
1.248730e+003,3.141657e+001
1.249695e+003,3.207855e+001
1.250659e+003,3.187719e+001
1.251623e+003,3.039440e+001
1.252587e+003,2.962329e+001
1.253552e+003,3.146881e+001
1.254516e+003,3.409596e+001
1.255480e+003,3.603959e+001
1.256444e+003,3.724259e+001
1.257408e+003,3.757116e+001
1.258373e+003,3.701871e+001
1.259337e+003,3.612482e+001
1.260301e+003,3.563991e+001
1.261265e+003,3.559217e+001
1.262230e+003,3.548780e+001
1.263194e+003,3.504931e+001
1.264158e+003,3.476987e+001
1.265122e+003,3.491182e+001
1.266087e+003,3.502877e+001
1.267051e+003,3.460785e+001
1.268015e+003,3.397989e+001
1.268979e+003,3.406922e+001
1.269943e+003,3.525248e+001
1.270908e+003,3.651420e+001
1.271872e+003,3.669460e+001
1.272836e+003,3.622127e+001
1.273800e+003,3.610673e+001
1.274765e+003,3.636096e+001
1.275729e+003,3.690555e+001
1.276693e+003,3.792922e+001
1.277657e+003,3.879971e+001
1.278622e+003,3.811849e+001
1.279586e+003,3.570338e+001
1.280550e+003,3.486477e+001
1.281514e+003,3.758205e+001
1.282479e+003,3.936350e+001
1.283443e+003,3.816977e+001
1.284407e+003,3.643875e+001
1.285371e+003,3.589591e+001
1.286335e+003,3.649651e+001
1.287300e+003,3.759177e+001
1.288264e+003,3.881669e+001
1.289228e+003,3.978852e+001
1.290192e+003,3.978864e+001
1.291157e+003,3.885636e+001
1.292121e+003,3.827880e+001
1.293085e+003,3.788086e+001
1.294049e+003,3.800860e+001
1.295014e+003,3.940420e+001
1.295978e+003,4.104009e+001
1.296942e+003,4.154498e+001
1.297906e+003,4.101898e+001
1.298870e+003,4.072763e+001
1.299835e+003,4.100605e+001
1.300799e+003,4.142997e+001
1.301763e+003,4.187865e+001
1.302727e+003,4.221389e+001
1.303692e+003,4.216569e+001
1.304656e+003,4.197084e+001
1.305620e+003,4.243693e+001
1.306584e+003,4.396890e+001
1.307549e+003,4.549249e+001
1.308513e+003,4.478168e+001
1.309477e+003,4.121725e+001
1.310441e+003,3.995777e+001
1.311406e+003,4.329176e+001
1.312370e+003,4.571473e+001
1.313334e+003,4.585566e+001
1.314298e+003,4.533557e+001
1.315263e+003,4.546337e+001
1.316227e+003,4.618989e+001
1.317191e+003,4.682341e+001
1.318155e+003,4.706773e+001
1.319120e+003,4.713956e+001
1.320084e+003,4.728332e+001
1.321048e+003,4.738430e+001
1.322012e+003,4.716366e+001
1.322976e+003,4.664939e+001
1.323941e+003,4.625314e+001
1.324905e+003,4.612001e+001
1.325869e+003,4.638302e+001
1.326833e+003,4.755312e+001
1.327798e+003,4.959173e+001
1.328762e+003,5.031343e+001
1.329726e+003,4.878015e+001
1.330690e+003,4.725761e+001
1.331655e+003,4.602438e+001
1.332619e+003,4.536090e+001
1.333583e+003,4.585637e+001
1.334547e+003,4.696479e+001
1.335511e+003,4.767889e+001
1.336476e+003,4.758669e+001
1.337440e+003,4.716790e+001
1.338404e+003,4.702888e+001
1.339368e+003,4.714677e+001
1.340333e+003,4.712882e+001
1.341297e+003,4.691162e+001
1.342261e+003,4.662461e+001
1.343225e+003,4.629563e+001
1.344190e+003,4.591933e+001
1.345154e+003,4.501604e+001
1.346118e+003,4.415986e+001
1.347082e+003,4.515753e+001
1.348047e+003,4.854029e+001
1.349011e+003,5.095869e+001
1.349975e+003,4.968309e+001
1.350939e+003,4.738636e+001
1.351903e+003,4.699446e+001
1.352868e+003,4.782888e+001
1.353832e+003,4.850916e+001
1.354796e+003,4.866480e+001
1.355760e+003,4.873545e+001
1.356725e+003,4.915615e+001
1.357689e+003,4.983053e+001
1.358653e+003,5.030465e+001
1.359617e+003,5.054642e+001
1.360582e+003,5.067001e+001
1.361546e+003,5.057779e+001
1.362510e+003,5.046151e+001
1.363474e+003,5.036792e+001
1.364438e+003,5.040301e+001
1.365403e+003,5.081074e+001
1.366367e+003,5.137483e+001
1.367331e+003,5.132640e+001
1.368295e+003,5.017249e+001
1.369260e+003,4.869920e+001
1.370224e+003,4.835865e+001
1.371188e+003,4.923155e+001
1.372152e+003,4.991813e+001
1.373117e+003,5.031781e+001
1.374081e+003,5.051827e+001
1.375045e+003,5.022862e+001
1.376009e+003,5.003365e+001
1.376974e+003,5.098267e+001
1.377938e+003,5.279752e+001
1.378902e+003,5.351153e+001
1.379866e+003,5.222405e+001
1.380830e+003,5.094447e+001
1.381795e+003,5.145228e+001
1.382759e+003,5.233477e+001
1.383723e+003,5.194666e+001
1.384687e+003,5.091380e+001
1.385652e+003,5.127146e+001
1.386616e+003,5.374857e+001
1.387580e+003,5.658601e+001
1.388544e+003,5.766329e+001
1.389509e+003,5.708746e+001
1.390473e+003,5.616670e+001
1.391437e+003,5.452079e+001
1.392401e+003,5.360076e+001
1.393365e+003,5.422945e+001
1.394330e+003,5.457886e+001
1.395294e+003,5.321638e+001
1.396258e+003,5.150222e+001
1.397222e+003,5.132575e+001
1.398187e+003,5.282249e+001
1.399151e+003,5.477182e+001
1.400115e+003,5.629563e+001
1.401079e+003,5.717375e+001
1.402044e+003,5.689759e+001
1.403008e+003,5.546577e+001
1.403972e+003,5.492986e+001
1.404936e+003,5.540931e+001
1.405901e+003,5.653252e+001
1.406865e+003,5.908104e+001
1.407829e+003,6.143114e+001
1.408793e+003,6.140682e+001
1.409757e+003,5.960566e+001
1.410722e+003,5.898416e+001
1.411686e+003,6.051982e+001
1.412650e+003,6.171441e+001
1.413614e+003,6.036586e+001
1.414579e+003,5.840225e+001
1.415543e+003,5.788164e+001
1.416507e+003,5.852208e+001
1.417471e+003,5.959079e+001
1.418436e+003,6.081283e+001
1.419400e+003,6.159266e+001
1.420364e+003,6.114954e+001
1.421328e+003,5.997851e+001
1.422292e+003,6.005955e+001
1.423257e+003,6.169457e+001
1.424221e+003,6.323660e+001
1.425185e+003,6.487844e+001
1.426149e+003,6.576837e+001
1.427114e+003,6.542174e+001
1.428078e+003,6.461082e+001
1.429042e+003,6.354111e+001
1.430006e+003,6.259749e+001
1.430971e+003,6.262284e+001
1.431935e+003,6.401395e+001
1.432899e+003,6.612593e+001
1.433863e+003,6.814857e+001
1.434828e+003,7.003242e+001
1.435792e+003,7.040839e+001
1.436756e+003,6.781061e+001
1.437720e+003,6.647044e+001
1.438684e+003,6.730225e+001
1.439649e+003,6.888705e+001
1.440613e+003,7.108818e+001
1.441577e+003,7.321864e+001
1.442541e+003,7.414513e+001
1.443506e+003,7.368830e+001
1.444470e+003,7.243393e+001
1.445434e+003,7.050842e+001
1.446398e+003,6.888527e+001
1.447363e+003,6.912197e+001
1.448327e+003,7.059007e+001
1.449291e+003,7.189111e+001
1.450255e+003,7.296507e+001
1.451219e+003,7.356277e+001
1.452184e+003,7.321484e+001
1.453148e+003,7.267825e+001
1.454112e+003,7.293998e+001
1.455076e+003,7.389203e+001
1.456041e+003,7.509276e+001
1.457005e+003,7.682910e+001
1.457969e+003,7.779360e+001
1.458933e+003,7.659827e+001
1.459898e+003,7.529211e+001
1.460862e+003,7.541277e+001
1.461826e+003,7.608186e+001
1.462790e+003,7.555994e+001
1.463755e+003,7.385716e+001
1.464719e+003,7.311556e+001
1.465683e+003,7.500712e+001
1.466647e+003,7.810559e+001
1.467611e+003,7.895623e+001
1.468576e+003,7.710371e+001
1.469540e+003,7.611780e+001
1.470504e+003,7.687693e+001
1.471468e+003,7.730138e+001
1.472433e+003,7.669107e+001
1.473397e+003,7.608560e+001
1.474361e+003,7.619496e+001
1.475325e+003,7.675045e+001
1.476290e+003,7.735560e+001
1.477254e+003,7.777229e+001
1.478218e+003,7.764892e+001
1.479182e+003,7.670271e+001
1.480146e+003,7.560607e+001
1.481111e+003,7.597128e+001
1.482075e+003,7.803278e+001
1.483039e+003,7.847274e+001
1.484003e+003,7.577074e+001
1.484968e+003,7.411990e+001
1.485932e+003,7.527048e+001
1.486896e+003,7.714977e+001
1.487860e+003,7.808645e+001
1.488825e+003,7.823238e+001
1.489789e+003,7.836232e+001
1.490753e+003,7.869423e+001
1.491717e+003,7.897787e+001
1.492682e+003,7.915446e+001
1.493646e+003,7.891930e+001
1.494610e+003,7.726222e+001
1.495574e+003,7.476229e+001
1.496538e+003,7.332955e+001
1.497503e+003,7.323214e+001
1.498467e+003,7.372066e+001
1.499431e+003,7.467995e+001
1.500395e+003,7.574166e+001
1.501360e+003,7.666931e+001
1.502324e+003,7.742464e+001
1.503288e+003,7.737155e+001
1.504252e+003,7.611626e+001
1.505217e+003,7.523870e+001
1.506181e+003,7.570018e+001
1.507145e+003,7.662806e+001
1.508109e+003,7.782497e+001
1.509073e+003,7.876515e+001
1.510038e+003,7.821635e+001
1.511002e+003,7.627159e+001
1.511966e+003,7.483505e+001
1.512930e+003,7.519917e+001
1.513895e+003,7.633982e+001
1.514859e+003,7.651604e+001
1.515823e+003,7.566830e+001
1.516787e+003,7.422666e+001
1.517752e+003,7.163177e+001
1.518716e+003,7.014439e+001
1.519680e+003,7.159783e+001
1.520644e+003,7.271185e+001
1.521609e+003,7.138026e+001
1.522573e+003,6.931059e+001
1.523537e+003,6.858644e+001
1.524501e+003,6.940712e+001
1.525465e+003,7.087003e+001
1.526430e+003,7.235633e+001
1.527394e+003,7.361296e+001
1.528358e+003,7.432935e+001
1.529322e+003,7.451341e+001
1.530287e+003,7.392025e+001
1.531251e+003,7.213811e+001
1.532215e+003,7.047275e+001
1.533179e+003,6.846494e+001
1.534144e+003,6.709087e+001
1.535108e+003,6.703802e+001
1.536072e+003,6.755453e+001
1.537036e+003,6.816851e+001
1.538000e+003,6.858046e+001
1.538965e+003,6.809956e+001
1.539929e+003,6.653555e+001
1.540893e+003,6.533866e+001
1.541857e+003,6.632356e+001
1.542822e+003,6.881885e+001
1.543786e+003,6.967533e+001
1.544750e+003,6.801939e+001
1.545714e+003,6.743627e+001
1.546679e+003,6.931096e+001
1.547643e+003,7.026701e+001
1.548607e+003,6.860043e+001
1.549571e+003,6.617728e+001
1.550536e+003,6.452449e+001
1.551500e+003,6.362073e+001
1.552464e+003,6.303228e+001
1.553428e+003,6.267788e+001
1.554392e+003,6.273719e+001
1.555357e+003,6.336581e+001
1.556321e+003,6.421983e+001
1.557285e+003,6.483728e+001
1.558249e+003,6.519617e+001
1.559214e+003,6.471342e+001
1.560178e+003,6.305661e+001
1.561142e+003,6.150983e+001
1.562106e+003,6.022111e+001
1.563071e+003,5.933884e+001
1.564035e+003,5.960960e+001
1.564999e+003,6.033631e+001
1.565963e+003,5.933819e+001
1.566927e+003,5.641758e+001
1.567892e+003,5.472912e+001
1.568856e+003,5.609923e+001
1.569820e+003,5.846680e+001
1.570784e+003,5.990102e+001
1.571749e+003,6.037157e+001
1.572713e+003,5.954379e+001
1.573677e+003,5.752434e+001
1.574641e+003,5.640060e+001
1.575606e+003,5.735109e+001
1.576570e+003,5.816014e+001
1.577534e+003,5.651030e+001
1.578498e+003,5.386858e+001
1.579463e+003,5.332883e+001
1.580427e+003,5.479562e+001
1.581391e+003,5.525911e+001
1.582355e+003,5.363260e+001
1.583319e+003,5.199791e+001
1.584284e+003,5.192680e+001
1.585248e+003,5.246832e+001
1.586212e+003,5.252170e+001
1.587176e+003,5.201954e+001
1.588141e+003,5.085059e+001
1.589105e+003,4.904709e+001
1.590069e+003,4.751324e+001
1.591033e+003,4.683120e+001
1.591998e+003,4.661749e+001
1.592962e+003,4.627441e+001
1.593926e+003,4.588878e+001
1.594890e+003,4.617641e+001
1.595854e+003,4.744740e+001
1.596819e+003,4.806727e+001
1.597783e+003,4.725094e+001
1.598747e+003,4.576500e+001
1.599711e+003,4.366096e+001
1.600676e+003,4.158259e+001
1.601640e+003,4.020263e+001
1.602604e+003,3.966802e+001
1.603568e+003,4.043074e+001
1.604533e+003,4.278035e+001
1.605497e+003,4.461422e+001
1.606461e+003,4.324828e+001
1.607425e+003,4.009691e+001
1.608390e+003,3.934931e+001
1.609354e+003,4.112607e+001
1.610318e+003,4.211030e+001
1.611282e+003,4.155901e+001
1.612246e+003,4.057657e+001
1.613211e+003,3.924404e+001
1.614175e+003,3.806750e+001
1.615139e+003,3.759511e+001
1.616103e+003,3.750248e+001
1.617068e+003,3.727127e+001
1.618032e+003,3.679633e+001
1.618996e+003,3.615664e+001
1.619960e+003,3.535672e+001
1.620925e+003,3.446287e+001
1.621889e+003,3.349438e+001
1.622853e+003,3.254333e+001
1.623817e+003,3.225670e+001
1.624781e+003,3.292385e+001
1.625746e+003,3.267571e+001
1.626710e+003,3.044733e+001
1.627674e+003,2.829228e+001
1.628638e+003,2.708484e+001
1.629603e+003,2.635599e+001
1.630567e+003,2.583876e+001
1.631531e+003,2.551992e+001
1.632495e+003,2.557496e+001
1.633460e+003,2.598387e+001
1.634424e+003,2.614554e+001
1.635388e+003,2.554834e+001
1.636352e+003,2.461559e+001
1.637317e+003,2.417957e+001
1.638281e+003,2.418748e+001
1.639245e+003,2.380903e+001
1.640209e+003,2.278257e+001
1.641173e+003,2.232586e+001
1.642138e+003,2.356334e+001
1.643102e+003,2.430401e+001
1.644066e+003,2.297727e+001
1.645030e+003,2.106545e+001
1.645995e+003,1.975143e+001
1.646959e+003,1.915225e+001
1.647923e+003,1.942650e+001
1.648887e+003,2.050325e+001
1.649852e+003,2.107382e+001
1.650816e+003,1.991514e+001
1.651780e+003,1.788425e+001
1.652744e+003,1.671737e+001
1.653708e+003,1.638840e+001
1.654673e+003,1.638543e+001
1.655637e+003,1.681195e+001
1.656601e+003,1.709100e+001
1.657565e+003,1.711951e+001
1.658530e+003,1.688603e+001
1.659494e+003,1.605275e+001
1.660458e+003,1.520210e+001
1.661422e+003,1.517968e+001
1.662387e+003,1.570182e+001
1.663351e+003,1.572909e+001
1.664315e+003,1.492841e+001
1.665279e+003,1.396697e+001
1.666244e+003,1.337900e+001
1.667208e+003,1.306091e+001
1.668172e+003,1.284300e+001
1.669136e+003,1.269584e+001
1.670100e+003,1.231352e+001
1.671065e+003,1.154231e+001
1.672029e+003,1.111128e+001
1.672993e+003,1.173193e+001
1.673957e+003,1.212837e+001
1.674922e+003,1.100046e+001
1.675886e+003,9.530225e+000
1.676850e+003,9.105682e+000
1.677814e+003,9.566144e+000
1.678779e+003,1.013941e+001
1.679743e+003,1.059435e+001
1.680707e+003,1.039023e+001
1.681671e+003,8.562332e+000
1.682635e+003,6.419786e+000
1.683600e+003,6.592447e+000
1.684564e+003,8.671350e+000
1.685528e+003,1.000710e+001
1.686492e+003,1.029539e+001
1.687457e+003,9.866713e+000
1.688421e+003,8.394419e+000
1.689385e+003,7.133478e+000
1.690349e+003,7.382484e+000
1.691314e+003,8.196675e+000
1.692278e+003,8.771594e+000
1.693242e+003,8.916463e+000
1.694206e+003,7.974211e+000
1.695171e+003,5.666803e+000
1.696135e+003,3.729718e+000
1.697099e+003,3.318350e+000
1.698063e+003,3.778012e+000
1.699027e+003,4.691734e+000
1.699992e+003,5.738948e+000
1.700956e+003,5.663016e+000
1.701920e+003,4.371890e+000
1.702884e+003,3.636987e+000
1.703849e+003,4.252417e+000
1.704813e+003,4.797121e+000
1.705777e+003,3.979739e+000
1.706741e+003,2.656337e+000
1.707706e+003,2.421736e+000
1.708670e+003,2.935614e+000
1.709634e+003,2.654234e+000
1.710598e+003,1.157869e+000
1.711563e+003,2.760849e-001
1.712527e+003,1.662732e+000
1.713491e+003,2.977869e+000
1.714455e+003,1.837355e+000
1.715419e+003,-3.883560e-001
1.716384e+003,-1.487434e+000
1.717348e+003,-1.350766e+000
1.718312e+003,-4.359924e-001
1.719276e+003,1.113330e+000
1.720241e+003,2.331270e+000
1.721205e+003,2.534654e+000
1.722169e+003,2.039876e+000
1.723133e+003,1.198875e+000
1.724098e+003,1.207047e-001
1.725062e+003,-5.496368e-001
1.726026e+003,-8.882751e-001
1.726990e+003,-6.764206e-001
1.727954e+003,6.377182e-001
1.728919e+003,1.831068e+000
1.729883e+003,2.734187e+000
1.730847e+003,2.937192e+000
1.731811e+003,1.321079e+000
1.732776e+003,-1.088129e+000
1.733740e+003,-1.868118e+000
1.734704e+003,-7.465897e-001
1.735668e+003,4.323746e-001
1.736633e+003,5.883271e-001
1.737597e+003,-5.066681e-002
1.738561e+003,-1.312024e+000
1.739525e+003,-2.847838e+000
1.740490e+003,-2.997493e+000
1.741454e+003,-1.164644e+000
1.742418e+003,-2.321320e-001
1.743382e+003,-8.648712e-001
1.744346e+003,-1.355160e+000
1.745311e+003,-1.244725e+000
1.746275e+003,-1.140904e+000
1.747239e+003,-1.512259e+000
1.748203e+003,-2.002940e+000
1.749168e+003,-2.178401e+000
1.750132e+003,-2.024028e+000
1.751096e+003,-1.639799e+000
1.752060e+003,-1.139658e+000
1.753025e+003,-8.660370e-001
1.753989e+003,-1.145305e+000
1.754953e+003,-1.711996e+000
1.755917e+003,-1.989987e+000
1.756881e+003,-1.981457e+000
1.757846e+003,-1.674088e+000
1.758810e+003,-6.776550e-001
1.759774e+003,-4.584381e-001
1.760738e+003,-2.276097e+000
1.761703e+003,-3.480371e+000
1.762667e+003,-2.320158e+000
1.763631e+003,-9.633759e-001
1.764595e+003,-1.444225e+000
1.765560e+003,-2.850679e+000
1.766524e+003,-3.300520e+000
1.767488e+003,-2.615912e+000
1.768452e+003,-2.000087e+000
1.769417e+003,-2.050105e+000
1.770381e+003,-2.504593e+000
1.771345e+003,-3.194411e+000
1.772309e+003,-4.035040e+000
1.773273e+003,-4.987002e+000
1.774238e+003,-5.989539e+000
1.775202e+003,-6.203059e+000
1.776166e+003,-5.436093e+000
1.777130e+003,-4.347549e+000
1.778095e+003,-2.888924e+000
1.779059e+003,-1.814133e+000
1.780023e+003,-2.197127e+000
1.780987e+003,-3.093936e+000
1.781952e+003,-2.842735e+000
1.782916e+003,-1.685535e+000
1.783880e+003,-7.543060e-001
1.784844e+003,-1.389648e-001
1.785808e+003,-3.338776e-002
1.786773e+003,-7.201523e-001
1.787737e+003,-1.713797e+000
1.788701e+003,-2.980258e+000
1.789665e+003,-4.107309e+000
1.790630e+003,-4.172227e+000
1.791594e+003,-3.549435e+000
1.792558e+003,-3.870255e+000
1.793522e+003,-5.420477e+000
1.794487e+003,-6.375711e+000
1.795451e+003,-5.564394e+000
1.796415e+003,-4.027443e+000
1.797379e+003,-3.132748e+000
1.798344e+003,-2.811845e+000
1.799308e+003,-2.681998e+000
1.800272e+003,-2.863760e+000
1.801236e+003,-2.828337e+000
1.802201e+003,-1.975110e+000
1.803165e+003,-1.777544e+000
1.804129e+003,-3.313498e+000
1.805093e+003,-4.538085e+000
1.806057e+003,-4.080148e+000
1.807022e+003,-2.948509e+000
1.807986e+003,-1.959486e+000
1.808950e+003,-1.449756e+000
1.809914e+003,-2.017085e+000
1.810879e+003,-3.561771e+000
1.811843e+003,-4.656972e+000
1.812807e+003,-4.229700e+000
1.813771e+003,-3.226086e+000
1.814736e+003,-3.162343e+000
1.815700e+003,-3.832466e+000
1.816664e+003,-4.031403e+000
1.817628e+003,-3.678053e+000
1.818593e+003,-3.853052e+000
1.819557e+003,-5.013568e+000
1.820521e+003,-5.632787e+000
1.821485e+003,-4.826036e+000
1.822449e+003,-3.765123e+000
1.823414e+003,-3.167456e+000
1.824378e+003,-2.949226e+000
1.825342e+003,-3.208591e+000
1.826306e+003,-3.738872e+000
1.827271e+003,-3.834064e+000
1.828235e+003,-3.326601e+000
1.829199e+003,-2.563557e+000
1.830163e+003,-1.229352e+000
1.831128e+003,-2.972107e-001
1.832092e+003,-1.090250e+000
1.833056e+003,-2.519231e+000
1.834020e+003,-2.667612e+000
1.834984e+003,-1.895105e+000
1.835949e+003,-1.927936e+000
1.836913e+003,-3.018752e+000
1.837877e+003,-3.797890e+000
1.838841e+003,-3.529999e+000
1.839806e+003,-2.788741e+000
1.840770e+003,-2.143411e+000
1.841734e+003,-1.694516e+000
1.842698e+003,-1.792307e+000
1.843663e+003,-2.544934e+000
1.844627e+003,-2.652933e+000
1.845591e+003,-1.296227e+000
1.846555e+003,-6.175598e-001
1.847520e+003,-1.259061e+000
1.848484e+003,-1.870342e+000
1.849448e+003,-1.690514e+000
1.850412e+003,-1.470265e+000
1.851376e+003,-2.079378e+000
1.852341e+003,-3.016484e+000
1.853305e+003,-3.323001e+000
1.854269e+003,-2.972354e+000
1.855233e+003,-2.715759e+000
1.856198e+003,-2.878935e+000
1.857162e+003,-2.863306e+000
1.858126e+003,-1.953375e+000
1.859090e+003,-7.021667e-001
1.860055e+003,-1.837219e-001
1.861019e+003,-3.822113e-001
1.861983e+003,-1.288872e+000
1.862947e+003,-2.930850e+000
1.863911e+003,-3.884465e+000
1.864876e+003,-3.708549e+000
1.865840e+003,-3.176677e+000
1.866804e+003,-2.535419e+000
1.867768e+003,-2.069525e+000
1.868733e+003,-2.505306e+000
1.869697e+003,-3.235460e+000
1.870661e+003,-2.189462e+000
1.871625e+003,6.430115e-001
1.872590e+003,2.497337e+000
1.873554e+003,2.990422e+000
1.874518e+003,2.689584e+000
1.875482e+003,9.722549e-001
1.876447e+003,-5.400177e-001
1.877411e+003,-7.105865e-001
1.878375e+003,-2.682373e-001
1.879339e+003,1.082153e-002
1.880303e+003,1.022202e-001
1.881268e+003,2.834030e-001
1.882232e+003,5.628967e-001
1.883196e+003,5.648544e-001
1.884160e+003,1.290985e-001
1.885125e+003,-1.514084e-001
1.886089e+003,4.274765e-001
1.887053e+003,1.455228e+000
1.888017e+003,1.748277e+000
1.888982e+003,1.301447e+000
1.889946e+003,1.276955e+000
1.890910e+003,1.841135e+000
1.891874e+003,1.923427e+000
1.892839e+003,8.520066e-001
1.893803e+003,3.782455e-001
1.894767e+003,2.015761e+000
1.895731e+003,3.770763e+000
1.896695e+003,3.478587e+000
1.897660e+003,2.264319e+000
1.898624e+003,2.080957e+000
1.899588e+003,2.854610e+000
1.900552e+003,3.224741e+000
1.901517e+003,2.805977e+000
1.902481e+003,2.398804e+000
1.903445e+003,2.372765e+000
1.904409e+003,2.435013e+000
1.905374e+003,2.311656e+000
1.906338e+003,2.269820e+000
1.907302e+003,2.900990e+000
1.908266e+003,3.699228e+000
1.909230e+003,3.346098e+000
1.910195e+003,1.985197e+000
1.911159e+003,1.252353e+000
1.912123e+003,1.858339e+000
1.913087e+003,2.936629e+000
1.914052e+003,3.689429e+000
1.915016e+003,3.949556e+000
1.915980e+003,3.244511e+000
1.916944e+003,1.695375e+000
1.917909e+003,9.489425e-001
1.918873e+003,1.137553e+000
1.919837e+003,1.437909e+000
1.920801e+003,1.832735e+000
1.921766e+003,2.132884e+000
1.922730e+003,2.253265e+000
1.923694e+003,2.245006e+000
1.924658e+003,2.070665e+000
1.925622e+003,1.871483e+000
1.926587e+003,1.802260e+000
1.927551e+003,1.861906e+000
1.928515e+003,2.099350e+000
1.929479e+003,2.570926e+000
1.930444e+003,2.589090e+000
1.931408e+003,1.356943e+000
1.932372e+003,5.252182e-001
1.933336e+003,1.167097e+000
1.934301e+003,2.190707e+000
1.935265e+003,2.982666e+000
1.936229e+003,3.403827e+000
1.937193e+003,3.115172e+000
1.938157e+003,2.378514e+000
1.939122e+003,1.868597e+000
1.940086e+003,1.776508e+000
1.941050e+003,1.893405e+000
1.942014e+003,2.075357e+000
1.942979e+003,2.233946e+000
1.943943e+003,2.271774e+000
1.944907e+003,2.230691e+000
1.945871e+003,2.255167e+000
1.946836e+003,2.345222e+000
1.947800e+003,2.044539e+000
1.948764e+003,1.215262e+000
1.949728e+003,1.063666e+000
1.950693e+003,2.003549e+000
1.951657e+003,3.014088e+000
1.952621e+003,3.862750e+000
1.953585e+003,4.133432e+000
1.954549e+003,2.916739e+000
1.955514e+003,1.162579e+000
1.956478e+003,1.153923e+000
1.957442e+003,2.754773e+000
1.958406e+003,3.858620e+000
1.959371e+003,4.528662e+000
1.960335e+003,4.367493e+000
1.961299e+003,2.121176e+000
1.962263e+003,7.494659e-001
1.963228e+003,1.853099e+000
1.964192e+003,3.508208e+000
1.965156e+003,4.740976e+000
1.966120e+003,5.435693e+000
1.967084e+003,5.382998e+000
1.968049e+003,4.907442e+000
1.969013e+003,4.642267e+000
1.969977e+003,4.742868e+000
1.970941e+003,5.009562e+000
1.971906e+003,5.348428e+000
1.972870e+003,5.673556e+000
1.973834e+003,6.195277e+000
1.974798e+003,6.380562e+000
1.975763e+003,4.607893e+000
1.976727e+003,1.833647e+000
1.977691e+003,1.198634e+000
1.978655e+003,2.618584e+000
1.979620e+003,4.070206e+000
1.980584e+003,5.054875e+000
1.981548e+003,5.385231e+000
1.982512e+003,4.920647e+000
1.983476e+003,3.993799e+000
1.984441e+003,2.860182e+000
1.985405e+003,1.891818e+000
1.986369e+003,2.047850e+000
1.987333e+003,3.315544e+000
1.988298e+003,4.236711e+000
1.989262e+003,4.795175e+000
1.990226e+003,4.914258e+000
1.991190e+003,4.172925e+000
1.992155e+003,3.802008e+000
1.993119e+003,4.819696e+000
1.994083e+003,5.413599e+000
1.995047e+003,3.750679e+000
1.996011e+003,1.920277e+000
1.996976e+003,2.329411e+000
1.997940e+003,4.221425e+000
1.998904e+003,6.020567e+000
1.999868e+003,7.485387e+000
2.000833e+003,7.390280e+000
2.001797e+003,4.404977e+000
2.002761e+003,2.474232e+000
2.003725e+003,4.112515e+000
2.004690e+003,6.141389e+000
2.005654e+003,6.429533e+000
2.006618e+003,6.178244e+000
2.007582e+003,6.932234e+000
2.008547e+003,8.010737e+000
2.009511e+003,8.023268e+000
2.010475e+003,6.974023e+000
2.011439e+003,5.556250e+000
2.012403e+003,4.153819e+000
2.013368e+003,3.266376e+000
2.014332e+003,3.269077e+000
2.015296e+003,3.847809e+000
2.016260e+003,4.848247e+000
2.017225e+003,5.946092e+000
2.018189e+003,6.246481e+000
2.019153e+003,5.955550e+000
2.020117e+003,6.052804e+000
2.021082e+003,6.526636e+000
2.022046e+003,6.473749e+000
2.023010e+003,5.685931e+000
2.023974e+003,4.489873e+000
2.024938e+003,2.972507e+000
2.025903e+003,2.084995e+000
2.026867e+003,2.949762e+000
2.027831e+003,4.690857e+000
2.028795e+003,5.232928e+000
2.029760e+003,4.644517e+000
2.030724e+003,4.253858e+000
2.031688e+003,4.167752e+000
2.032652e+003,3.682776e+000
2.033617e+003,2.338174e+000
2.034581e+003,1.649783e+000
2.035545e+003,2.170438e+000
2.036509e+003,3.196471e+000
2.037474e+003,4.690234e+000
2.038438e+003,6.108727e+000
2.039402e+003,6.989566e+000
2.040366e+003,7.372878e+000
2.041330e+003,7.301056e+000
2.042295e+003,6.797856e+000
2.043259e+003,5.964375e+000
2.044223e+003,4.373175e+000
2.045187e+003,3.572987e+000
2.046152e+003,4.530632e+000
2.047116e+003,5.377481e+000
2.048080e+003,5.509112e+000
2.049044e+003,5.147113e+000
2.050009e+003,4.074005e+000
2.050973e+003,2.955725e+000
2.051937e+003,2.503005e+000
2.052901e+003,2.645978e+000
2.053865e+003,3.076062e+000
2.054830e+003,3.672546e+000
2.055794e+003,4.394426e+000
2.056758e+003,5.251723e+000
2.057722e+003,5.960188e+000
2.058687e+003,6.441324e+000
2.059651e+003,6.545775e+000
2.060615e+003,5.735255e+000
2.061579e+003,4.722425e+000
2.062544e+003,4.588104e+000
2.063508e+003,5.044017e+000
2.064472e+003,5.442963e+000
2.065436e+003,5.601270e+000
2.066401e+003,5.340698e+000
2.067365e+003,4.695238e+000
2.068329e+003,4.210761e+000
2.069293e+003,4.233813e+000
2.070258e+003,4.272634e+000
2.071222e+003,3.690134e+000
2.072186e+003,2.882796e+000
2.073150e+003,2.637111e+000
2.074115e+003,2.911403e+000
2.075079e+003,3.800935e+000
2.076043e+003,5.123126e+000
2.077007e+003,5.354901e+000
2.077971e+003,4.338957e+000
2.078936e+003,3.662837e+000
2.079900e+003,3.901424e+000
2.080864e+003,4.510280e+000
2.081828e+003,5.147351e+000
2.082792e+003,5.580424e+000
2.083757e+003,5.444572e+000
2.084721e+003,4.919563e+000
2.085685e+003,4.650510e+000
2.086649e+003,4.658624e+000
2.087614e+003,4.773170e+000
2.088578e+003,5.136056e+000
2.089542e+003,4.764380e+000
2.090506e+003,3.025696e+000
2.091471e+003,2.302535e+000
2.092435e+003,3.974895e+000
2.093399e+003,5.477736e+000
2.094363e+003,4.856076e+000
2.095328e+003,3.579225e+000
2.096292e+003,3.523640e+000
2.097256e+003,4.343254e+000
2.098220e+003,4.959435e+000
2.099185e+003,5.414454e+000
2.100149e+003,5.537997e+000
2.101113e+003,4.872583e+000
2.102077e+003,4.665926e+000
2.103042e+003,5.861533e+000
2.104006e+003,6.189145e+000
2.104970e+003,4.020331e+000
2.105934e+003,2.220941e+000
2.106898e+003,2.727707e+000
2.107863e+003,3.990592e+000
2.108827e+003,4.415422e+000
2.109791e+003,4.369173e+000
2.110755e+003,4.776601e+000
2.111719e+003,5.660001e+000
2.112684e+003,6.583839e+000
2.113648e+003,7.867784e+000
2.114612e+003,8.103706e+000
2.115576e+003,5.974571e+000
2.116541e+003,4.160253e+000
2.117505e+003,3.630388e+000
2.118469e+003,3.699074e+000
2.119433e+003,4.329814e+000
2.120398e+003,4.999013e+000
2.121362e+003,5.170242e+000
2.122326e+003,4.978375e+000
2.123290e+003,4.646120e+000
2.124255e+003,4.325380e+000
2.125219e+003,4.355031e+000
2.126183e+003,4.826041e+000
2.127147e+003,5.627188e+000
2.128112e+003,7.315507e+000
2.129076e+003,8.408546e+000
2.130040e+003,7.440874e+000
2.131004e+003,6.271790e+000
2.131969e+003,6.446199e+000
2.132933e+003,7.155307e+000
2.133897e+003,7.502751e+000
2.134861e+003,7.594987e+000
2.135825e+003,7.939961e+000
2.136790e+003,8.386897e+000
2.137754e+003,8.097076e+000
2.138718e+003,6.903300e+000
2.139682e+003,5.884662e+000
2.140646e+003,5.627347e+000
2.141611e+003,5.838185e+000
2.142575e+003,6.556572e+000
2.143539e+003,7.281735e+000
2.144503e+003,7.536380e+000
2.145468e+003,7.523908e+000
2.146432e+003,7.404654e+000
2.147396e+003,7.269502e+000
2.148360e+003,7.262820e+000
2.149325e+003,7.356954e+000
2.150289e+003,7.413237e+000
2.151253e+003,7.383090e+000
2.152217e+003,7.219241e+000
2.153182e+003,6.896167e+000
2.154146e+003,7.020468e+000
2.155110e+003,8.608340e+000
2.156074e+003,1.025690e+001
2.157039e+003,9.968428e+000
2.158003e+003,8.623825e+000
2.158967e+003,7.135695e+000
2.159931e+003,6.061394e+000
2.160896e+003,6.988544e+000
2.161860e+003,9.185730e+000
2.162824e+003,9.720049e+000
2.163788e+003,8.237454e+000
2.164752e+003,7.248077e+000
2.165717e+003,7.973668e+000
2.166681e+003,9.008146e+000
2.167645e+003,9.114088e+000
2.168609e+003,8.979065e+000
2.169573e+003,9.912732e+000
2.170538e+003,1.106831e+001
2.171502e+003,1.072166e+001
2.172466e+003,9.251363e+000
2.173430e+003,7.064321e+000
2.174395e+003,4.796109e+000
2.175359e+003,4.390544e+000
2.176323e+003,5.847188e+000
2.177287e+003,7.368421e+000
2.178252e+003,8.158318e+000
2.179216e+003,8.398155e+000
2.180180e+003,8.219687e+000
2.181144e+003,7.964404e+000
2.182109e+003,8.016752e+000
2.183073e+003,8.254164e+000
2.184037e+003,8.743075e+000
2.185001e+003,9.126198e+000
2.185966e+003,8.153648e+000
2.186930e+003,6.362380e+000
2.187894e+003,5.496037e+000
2.188858e+003,5.677591e+000
2.189823e+003,6.168981e+000
2.190787e+003,6.697354e+000
2.191751e+003,7.360053e+000
2.192715e+003,8.228065e+000
2.193679e+003,9.132199e+000
2.194644e+003,9.921346e+000
2.195608e+003,1.046548e+001
2.196572e+003,1.053132e+001
2.197536e+003,1.020835e+001
2.198500e+003,9.527773e+000
2.199465e+003,8.714673e+000
2.200429e+003,8.424440e+000
2.201393e+003,8.636457e+000
2.202357e+003,9.208943e+000
2.203322e+003,9.975721e+000
2.204286e+003,1.035861e+001
2.205250e+003,1.017568e+001
2.206214e+003,9.852361e+000
2.207179e+003,9.680387e+000
2.208143e+003,9.599838e+000
2.209107e+003,9.577818e+000
2.210071e+003,9.502073e+000
2.211036e+003,9.034117e+000
2.212000e+003,8.415297e+000
2.212964e+003,8.261706e+000
2.213928e+003,8.455835e+000
2.214893e+003,8.583099e+000
2.215857e+003,8.699743e+000
2.216821e+003,9.218157e+000
2.217785e+003,1.015140e+001
2.218750e+003,1.107072e+001
2.219714e+003,1.176782e+001
2.220678e+003,1.229477e+001
2.221642e+003,1.268975e+001
2.222606e+003,1.316969e+001
2.223571e+003,1.406003e+001
2.224535e+003,1.513562e+001
2.225499e+003,1.624725e+001
2.226463e+003,1.712094e+001
2.227427e+003,1.660393e+001
2.228392e+003,1.553500e+001
2.229356e+003,1.647459e+001
2.230320e+003,1.916308e+001
2.231284e+003,2.140458e+001
2.232249e+003,2.249086e+001
2.233213e+003,2.277071e+001
2.234177e+003,2.250277e+001
2.235141e+003,2.250332e+001
2.236106e+003,2.341707e+001
2.237070e+003,2.512605e+001
2.238034e+003,2.778510e+001
2.238998e+003,3.082137e+001
2.239963e+003,3.401891e+001
2.240927e+003,3.670762e+001
2.241891e+003,3.719270e+001
2.242855e+003,3.653609e+001
2.243820e+003,3.713760e+001
2.244784e+003,3.910050e+001
2.245748e+003,4.122794e+001
2.246712e+003,4.310767e+001
2.247677e+003,4.498568e+001
2.248641e+003,4.702248e+001
2.249605e+003,4.894664e+001
2.250569e+003,5.059058e+001
2.251533e+003,5.188092e+001
2.252498e+003,5.283646e+001
2.253462e+003,5.328860e+001
2.254426e+003,5.290043e+001
2.255390e+003,5.206047e+001
2.256354e+003,5.139364e+001
2.257319e+003,5.059901e+001
2.258283e+003,4.893044e+001
2.259247e+003,4.653080e+001
2.260211e+003,4.412977e+001
2.261176e+003,4.193024e+001
2.262140e+003,3.974007e+001
2.263104e+003,3.747043e+001
2.264068e+003,3.507227e+001
2.265033e+003,3.216807e+001
2.265997e+003,2.960553e+001
2.266961e+003,2.811547e+001
2.267925e+003,2.689374e+001
2.268890e+003,2.505868e+001
2.269854e+003,2.337403e+001
2.270818e+003,2.342861e+001
2.271782e+003,2.388189e+001
2.272747e+003,2.194042e+001
2.273711e+003,1.815750e+001
2.274675e+003,1.563697e+001
2.275639e+003,1.498364e+001
2.276604e+003,1.471517e+001
2.277568e+003,1.490145e+001
2.278532e+003,1.449263e+001
2.279496e+003,1.230920e+001
2.280460e+003,1.071810e+001
2.281425e+003,1.127527e+001
2.282389e+003,1.181457e+001
2.283353e+003,1.085075e+001
2.284317e+003,9.569705e+000
2.285281e+003,9.243551e+000
2.286246e+003,9.306559e+000
2.287210e+003,8.598116e+000
2.288174e+003,7.265771e+000
2.289138e+003,6.388612e+000
2.290103e+003,6.013937e+000
2.291067e+003,6.059271e+000
2.292031e+003,7.148857e+000
2.292995e+003,7.429942e+000
2.293960e+003,5.878754e+000
2.294924e+003,5.333998e+000
2.295888e+003,7.461090e+000
2.296852e+003,8.784055e+000
2.297817e+003,7.034143e+000
2.298781e+003,4.889596e+000
2.299745e+003,4.929253e+000
2.300709e+003,5.825522e+000
2.301674e+003,5.204300e+000
2.302638e+003,3.429968e+000
2.303602e+003,2.348312e+000
2.304566e+003,1.939172e+000
2.305531e+003,2.570132e+000
2.306495e+003,4.559921e+000
2.307459e+003,5.160588e+000
2.308423e+003,3.920253e+000
2.309387e+003,3.067766e+000
2.310352e+003,3.192946e+000
2.311316e+003,3.454701e+000
2.312280e+003,3.461276e+000
2.313244e+003,3.575725e+000
2.314208e+003,4.126959e+000
2.315173e+003,4.399040e+000
2.316137e+003,3.290443e+000
2.317101e+003,1.317905e+000
2.318065e+003,-6.942154e-001
2.319030e+003,-2.272141e+000
2.319994e+003,-8.393784e-001
2.320958e+003,2.704204e+000
2.321922e+003,4.790587e+000
2.322887e+003,5.198527e+000
2.323851e+003,4.739665e+000
2.324815e+003,3.748961e+000
2.325779e+003,2.405750e+000
2.326744e+003,9.511536e-001
2.327708e+003,4.314804e-001
2.328672e+003,1.545502e+000
2.329636e+003,2.446562e+000
2.330601e+003,1.132390e+000
2.331565e+003,-7.995148e-001
2.332529e+003,-1.816223e+000
2.333493e+003,-2.200659e+000
2.334458e+003,-1.941499e+000
2.335422e+003,-1.542363e+000
2.336386e+003,-1.683612e+000
2.337350e+003,-2.141682e+000
2.338314e+003,-2.580179e+000
2.339279e+003,-2.829906e+000
2.340243e+003,-2.560519e+000
2.341207e+003,-1.805817e+000
2.342171e+003,-1.224661e+000
2.343135e+003,-9.280227e-001
2.344100e+003,-1.293608e+000
2.345064e+003,-3.435295e+000
2.346028e+003,-4.782401e+000
2.346992e+003,-3.831132e+000
2.347957e+003,-2.689699e+000
2.348921e+003,-2.190247e+000
2.349885e+003,-2.090825e+000
2.350849e+003,-2.499901e+000
2.351814e+003,-2.974765e+000
2.352778e+003,-2.838289e+000
2.353742e+003,-2.402400e+000
2.354706e+003,-2.464432e+000
2.355671e+003,-2.968001e+000
2.356635e+003,-3.342644e+000
2.357599e+003,-3.551332e+000
2.358563e+003,-3.868945e+000
2.359528e+003,-4.457436e+000
2.360492e+003,-4.614003e+000
2.361456e+003,-4.134315e+000
2.362420e+003,-3.673065e+000
2.363385e+003,-3.415263e+000
2.364349e+003,-3.261238e+000
2.365313e+003,-3.164108e+000
2.366277e+003,-3.046440e+000
2.367241e+003,-2.801509e+000
2.368206e+003,-2.825221e+000
2.369170e+003,-3.908372e+000
2.370134e+003,-5.392220e+000
2.371098e+003,-5.048207e+000
2.372063e+003,-3.461073e+000
2.373027e+003,-3.152132e+000
2.373991e+003,-3.764253e+000
2.374955e+003,-3.899423e+000
2.375919e+003,-3.518446e+000
2.376884e+003,-3.007785e+000
2.377848e+003,-2.530548e+000
2.378812e+003,-2.178300e+000
2.379776e+003,-2.024497e+000
2.380741e+003,-2.421399e+000
2.381705e+003,-3.593170e+000
2.382669e+003,-4.426904e+000
2.383633e+003,-4.120934e+000
2.384598e+003,-3.096718e+000
2.385562e+003,-7.314361e-001
2.386526e+003,1.038933e+000
2.387490e+003,8.698578e-002
2.388455e+003,-1.622234e+000
2.389419e+003,-2.408107e+000
2.390383e+003,-2.539549e+000
2.391347e+003,-2.228947e+000
2.392312e+003,-1.896564e+000
2.393276e+003,-2.523726e+000
2.394240e+003,-3.977551e+000
2.395204e+003,-4.595656e+000
2.396168e+003,-4.016042e+000
2.397133e+003,-3.381586e+000
2.398097e+003,-2.398499e+000
2.399061e+003,-2.096519e+000
2.400025e+003,-3.038059e+000
2.400990e+003,-3.534093e+000
2.401954e+003,-2.973561e+000
2.402918e+003,-2.493736e+000
2.403882e+003,-2.676436e+000
2.404846e+003,-2.928868e+000
2.405811e+003,-2.768674e+000
2.406775e+003,-2.366592e+000
2.407739e+003,-1.934877e+000
2.408703e+003,-1.626358e+000
2.409668e+003,-1.979048e+000
2.410632e+003,-2.761510e+000
2.411596e+003,-2.824571e+000
2.412560e+003,-2.260118e+000
2.413525e+003,-1.038222e+000
2.414489e+003,4.457367e-001
2.415453e+003,4.399918e-001
2.416417e+003,-8.106766e-001
2.417382e+003,-1.131473e+000
2.418346e+003,-2.023636e-001
2.419310e+003,6.135559e-002
2.420274e+003,-1.134694e+000
2.421239e+003,-2.291704e+000
2.422203e+003,-2.517877e+000
2.423167e+003,-2.233621e+000
2.424131e+003,-1.456802e+000
2.425095e+003,-6.398834e-001
2.426060e+003,3.179352e-001
2.427024e+003,7.418121e-001
2.427988e+003,-6.712677e-001
2.428952e+003,-2.098802e+000
2.429917e+003,-1.237836e+000
2.430881e+003,4.783112e-001
2.431845e+003,4.426987e-001
2.432809e+003,-7.751007e-001
2.433773e+003,-4.272644e-001
2.434738e+003,1.496631e+000
2.435702e+003,1.703760e+000
2.436666e+003,-8.088623e-001
2.437630e+003,-1.219577e+000
2.438595e+003,1.113362e+000
2.439559e+003,2.667061e+000
2.440523e+003,2.931419e+000
2.441487e+003,3.062373e+000
2.442452e+003,3.383244e+000
2.443416e+003,3.504303e+000
2.444380e+003,3.233237e+000
2.445344e+003,2.552834e+000
2.446309e+003,1.408383e+000
2.447273e+003,6.771622e-001
2.448237e+003,1.665617e+000
2.449201e+003,3.359409e+000
2.450166e+003,4.420447e+000
2.451130e+003,4.806633e+000
2.452094e+003,3.938582e+000
2.453058e+003,2.698558e+000
2.454022e+003,2.530303e+000
2.454987e+003,2.980731e+000
2.455951e+003,3.109308e+000
2.456915e+003,2.898657e+000
2.457879e+003,2.622966e+000
2.458844e+003,2.402727e+000
2.459808e+003,2.470442e+000
2.460772e+003,2.909079e+000
2.461736e+003,3.253522e+000
2.462700e+003,3.057951e+000
2.463665e+003,3.312399e+000
2.464629e+003,4.500342e+000
2.465593e+003,5.643594e+000
2.466557e+003,6.934100e+000
2.467522e+003,7.212115e+000
2.468486e+003,5.533832e+000
2.469450e+003,4.077403e+000
2.470414e+003,4.397159e+000
2.471379e+003,5.729288e+000
2.472343e+003,7.300838e+000
2.473307e+003,8.548871e+000
2.474271e+003,8.103215e+000
2.475236e+003,6.665837e+000
2.476200e+003,6.757421e+000
2.477164e+003,7.702085e+000
2.478128e+003,7.249911e+000
2.479093e+003,6.010266e+000
2.480057e+003,5.845769e+000
2.481021e+003,6.558264e+000
2.481985e+003,7.115603e+000
2.482949e+003,7.325667e+000
2.483914e+003,7.392699e+000
2.484878e+003,7.382174e+000
2.485842e+003,7.282364e+000
2.486806e+003,7.023810e+000
2.487771e+003,7.090231e+000
2.488735e+003,7.990079e+000
2.489699e+003,8.709424e+000
2.490663e+003,8.698128e+000
2.491627e+003,8.839415e+000
2.492592e+003,9.983490e+000
2.493556e+003,1.049567e+001
2.494520e+003,8.982671e+000
2.495484e+003,7.831528e+000
2.496449e+003,9.307897e+000
2.497413e+003,1.140022e+001
2.498377e+003,1.111925e+001
2.499341e+003,9.533247e+000
2.500306e+003,9.462004e+000
2.501270e+003,1.057740e+001
2.502234e+003,1.163674e+001
2.503198e+003,1.243361e+001
2.504163e+003,1.186985e+001
2.505127e+003,1.044835e+001
2.506091e+003,9.516924e+000
2.507055e+003,9.410138e+000
2.508020e+003,1.065495e+001
2.508984e+003,1.290178e+001
2.509948e+003,1.474218e+001
2.510912e+003,1.570240e+001
2.511876e+003,1.596475e+001
2.512841e+003,1.540103e+001
2.513805e+003,1.499062e+001
2.514769e+003,1.520703e+001
2.515733e+003,1.534734e+001
2.516698e+003,1.449453e+001
2.517662e+003,1.467918e+001
2.518626e+003,1.747680e+001
2.519590e+003,1.974298e+001
2.520554e+003,1.947197e+001
2.521519e+003,1.909417e+001
2.522483e+003,2.085260e+001
2.523447e+003,2.300391e+001
2.524411e+003,2.290566e+001
2.525376e+003,2.184145e+001
2.526340e+003,2.323391e+001
2.527304e+003,2.605353e+001
2.528268e+003,2.697667e+001
2.529233e+003,2.674053e+001
2.530197e+003,2.675847e+001
2.531161e+003,2.726678e+001
2.532125e+003,2.863662e+001
2.533090e+003,3.053936e+001
2.534054e+003,3.224333e+001
2.535018e+003,3.369702e+001
2.535982e+003,3.555381e+001
2.536947e+003,3.784232e+001
2.537911e+003,3.828613e+001
2.538875e+003,3.505618e+001
2.539839e+003,3.379182e+001
2.540803e+003,3.658431e+001
2.541768e+003,3.909897e+001
2.542732e+003,4.113395e+001
2.543696e+003,4.235936e+001
2.544660e+003,4.257541e+001
2.545625e+003,4.277805e+001
2.546589e+003,4.345602e+001
2.547553e+003,4.382022e+001
2.548517e+003,4.320623e+001
2.549482e+003,4.259747e+001
2.550446e+003,4.321424e+001
2.551410e+003,4.435957e+001
2.552374e+003,4.509931e+001
2.553339e+003,4.547773e+001
2.554303e+003,4.589302e+001
2.555267e+003,4.574973e+001
2.556231e+003,4.358907e+001
2.557196e+003,4.092969e+001
2.558160e+003,3.977522e+001
2.559124e+003,3.966208e+001
2.560088e+003,4.006045e+001
2.561052e+003,4.040257e+001
2.562017e+003,3.873700e+001
2.562981e+003,3.509028e+001
2.563945e+003,3.334798e+001
2.564909e+003,3.412827e+001
2.565874e+003,3.302966e+001
2.566838e+003,2.956453e+001
2.567802e+003,2.886187e+001
2.568766e+003,3.136151e+001
2.569730e+003,3.171522e+001
2.570695e+003,2.900206e+001
2.571659e+003,2.580142e+001
2.572623e+003,2.323967e+001
2.573587e+003,2.218378e+001
2.574552e+003,2.302756e+001
2.575516e+003,2.368129e+001
2.576480e+003,2.268618e+001
2.577444e+003,2.123572e+001
2.578409e+003,1.992561e+001
2.579373e+003,1.852119e+001
2.580337e+003,1.657907e+001
2.581301e+003,1.504682e+001
2.582266e+003,1.467536e+001
2.583230e+003,1.470159e+001
2.584194e+003,1.465156e+001
2.585158e+003,1.460600e+001
2.586123e+003,1.485933e+001
2.587087e+003,1.467784e+001
2.588051e+003,1.250905e+001
2.589015e+003,9.561946e+000
2.589979e+003,1.014951e+001
2.590944e+003,1.300351e+001
2.591908e+003,1.315219e+001
2.592872e+003,1.141267e+001
2.593836e+003,9.210345e+000
2.594801e+003,7.247389e+000
2.595765e+003,7.033769e+000
2.596729e+003,7.785321e+000
2.597693e+003,7.284172e+000
2.598657e+003,5.608357e+000
2.599622e+003,4.451367e+000
2.600586e+003,4.138580e+000
2.601550e+003,4.183379e+000
2.602514e+003,4.900238e+000
2.603479e+003,4.694505e+000
2.604443e+003,2.890318e+000
2.605407e+003,2.289626e+000
2.606371e+003,3.354648e+000
2.607336e+003,4.495761e+000
2.608300e+003,5.373793e+000
2.609264e+003,5.023309e+000
2.610228e+003,3.199901e+000
2.611193e+003,1.828793e+000
2.612157e+003,2.011330e+000
2.613121e+003,2.455421e+000
2.614085e+003,2.158087e+000
2.615050e+003,1.728015e+000
2.616014e+003,1.651004e+000
2.616978e+003,1.635364e+000
2.617942e+003,1.446283e+000
2.618906e+003,1.362090e+000
2.619871e+003,1.990408e+000
2.620835e+003,2.236226e+000
2.621799e+003,6.670319e-001
2.622763e+003,-7.323624e-001
2.623728e+003,2.613831e-002
2.624692e+003,1.762491e+000
2.625656e+003,2.665617e+000
2.626620e+003,2.920126e+000
2.627584e+003,2.929918e+000
2.628549e+003,2.770425e+000
2.629513e+003,2.940042e+000
2.630477e+003,2.993188e+000
2.631441e+003,1.294049e+000
2.632406e+003,-8.786942e-001
2.633370e+003,-8.235718e-001
2.634334e+003,6.940872e-001
2.635298e+003,1.886621e+000
2.636263e+003,2.435057e+000
2.637227e+003,2.343155e+000
2.638191e+003,1.667648e+000
2.639155e+003,1.119109e+000
2.640120e+003,7.795181e-001
2.641084e+003,9.706268e-002
2.642048e+003,-1.235219e+000
2.643012e+003,-7.221009e-001
2.643977e+003,1.796844e+000
2.644941e+003,2.577173e+000
2.645905e+003,1.228030e+000
2.646869e+003,-1.645554e-001
2.647833e+003,-8.389267e-001
2.648798e+003,-2.104767e-001
2.649762e+003,1.728865e+000
2.650726e+003,2.709323e+000
2.651690e+003,1.396570e+000
2.652655e+003,-1.326035e-001
2.653619e+003,-1.614940e+000
2.654583e+003,-2.012625e+000
2.655547e+003,3.358917e-002
2.656511e+003,1.503516e+000
2.657476e+003,1.356421e+000
2.658440e+003,1.195174e+000
2.659404e+003,1.772752e+000
2.660368e+003,1.956253e+000
2.661333e+003,9.709824e-001
2.662297e+003,-3.702392e-002
2.663261e+003,5.182495e-002
2.664225e+003,5.444809e-001
2.665190e+003,6.662918e-001
2.666154e+003,5.556366e-001
2.667118e+003,1.813583e-001
2.668082e+003,-9.393616e-002
2.669047e+003,4.308167e-001
2.670011e+003,7.642716e-001
2.670975e+003,-6.187866e-001
2.671939e+003,-2.069516e+000
2.672904e+003,-1.430600e+000
2.673868e+003,-5.201874e-002
2.674832e+003,2.052765e-001
2.675796e+003,-3.481552e-001
2.676760e+003,-1.045261e+000
2.677725e+003,-1.692276e+000
2.678689e+003,-1.154196e+000
2.679653e+003,-2.139435e-002
2.680617e+003,-3.420517e-001
2.681582e+003,-1.290392e+000
2.682546e+003,-7.942597e-001
2.683510e+003,4.001358e-001
2.684474e+003,5.177155e-001
2.685438e+003,-2.746002e-001
2.686403e+003,-1.123767e+000
2.687367e+003,-1.810420e+000
2.688331e+003,-1.842661e+000
2.689295e+003,-1.198024e+000
2.690260e+003,-3.137680e-001
2.691224e+003,8.771240e-001
2.692188e+003,1.826906e+000
2.693152e+003,2.452827e+000
2.694117e+003,1.417503e+000
2.695081e+003,-9.016479e-001
2.696045e+003,-2.031708e+000
2.697009e+003,-1.723146e+000
2.697974e+003,-1.275575e+000
2.698938e+003,-1.031580e+000
2.699902e+003,-4.047394e-001
2.700866e+003,8.420639e-001
2.701831e+003,1.678479e+000
2.702795e+003,2.284561e+000
2.703759e+003,1.250400e+000
2.704723e+003,-2.863585e+000
2.705688e+003,-4.344611e+000
2.706652e+003,-2.060031e+000
2.707616e+003,-1.623108e-001
2.708580e+003,2.780197e-001
2.709544e+003,-6.799515e-001
2.710509e+003,-2.787001e+000
2.711473e+003,-4.167290e+000
2.712437e+003,-3.780980e+000
2.713401e+003,-2.112074e+000
2.714365e+003,1.522305e+000
2.715330e+003,3.609859e+000
2.716294e+003,1.030049e+000
2.717258e+003,-1.426323e+000
2.718222e+003,-1.806136e+000
2.719187e+003,-2.205959e+000
2.720151e+003,-3.501436e+000
2.721115e+003,-4.170816e+000
2.722079e+003,-3.416229e+000
2.723044e+003,-2.305963e+000
2.724008e+003,-1.632405e+000
2.724972e+003,-1.016687e+000
2.725936e+003,1.860199e-002
2.726901e+003,8.338516e-001
2.727865e+003,4.258285e-001
2.728829e+003,-1.140747e-001
2.729793e+003,5.101684e-001
2.730758e+003,8.056641e-001
2.731722e+003,-8.837525e-001
2.732686e+003,-2.571846e+000
2.733650e+003,-2.962006e+000
2.734615e+003,-2.453780e+000
2.735579e+003,-1.080611e+000
2.736543e+003,-1.747406e-001
2.737507e+003,-1.706421e+000
2.738471e+003,-4.052783e+000
2.739436e+003,-4.232933e+000
2.740400e+003,-3.113403e+000
2.741364e+003,-1.437488e+000
2.742328e+003,-6.000214e-002
2.743292e+003,-5.339798e-001
2.744257e+003,-1.303572e+000
2.745221e+003,-1.757645e-001
2.746185e+003,1.245367e+000
2.747149e+003,4.696991e-001
2.748114e+003,-1.064253e+000
2.749078e+003,-1.148578e+000
2.750042e+003,-4.437912e-001
2.751006e+003,-7.612045e-001
2.751971e+003,-1.706879e+000
2.752935e+003,-1.826793e+000
2.753899e+003,-1.559088e+000
2.754863e+003,-2.160905e+000
2.755828e+003,-2.796680e+000
2.756792e+003,-1.750404e+000
2.757756e+003,-1.711731e-002
2.758720e+003,8.078186e-001
2.759685e+003,8.794800e-001
2.760649e+003,9.347183e-001
2.761613e+003,8.908035e-001
2.762577e+003,2.162613e-001
2.763542e+003,-8.857971e-001
2.764506e+003,-3.111359e-001
2.765470e+003,1.312633e+000
2.766434e+003,5.813141e-002
2.767398e+003,-2.738730e+000
2.768363e+003,-3.417243e+000
2.769327e+003,-2.609103e+000
2.770291e+003,-2.143314e+000
2.771255e+003,-2.080527e+000
2.772219e+003,-1.990012e+000
2.773184e+003,-1.734818e+000
2.774148e+003,-7.840515e-001
2.775112e+003,7.102188e-001
2.776076e+003,2.705032e-001
2.777041e+003,-2.137067e+000
2.778005e+003,-3.261293e+000
2.778969e+003,-3.181320e+000
2.779933e+003,-1.835330e+000
2.780898e+003,-4.672851e-002
2.781862e+003,-3.757599e-001
2.782826e+003,-2.121008e+000
2.783790e+003,-2.661914e+000
2.784755e+003,-1.799718e+000
2.785719e+003,-6.080597e-001
2.786683e+003,7.175217e-001
2.787647e+003,1.014400e+000
2.788612e+003,1.541748e-001
2.789576e+003,-9.198974e-001
2.790540e+003,-2.151384e+000
2.791504e+003,-1.882732e+000
2.792469e+003,-4.743012e-001
2.793433e+003,-7.106476e-002
2.794397e+003,-6.560623e-001
2.795361e+003,-1.093919e+000
2.796325e+003,-1.226942e+000
2.797290e+003,-1.619394e+000
2.798254e+003,-2.307228e+000
2.799218e+003,-2.177054e+000
2.800182e+003,-9.791626e-001
2.801146e+003,-1.884613e-001
2.802111e+003,2.465027e-001
2.803075e+003,-3.202637e-001
2.804039e+003,-1.759018e+000
2.805003e+003,-2.439116e+000
2.805968e+003,-2.324141e+000
2.806932e+003,-1.985876e+000
2.807896e+003,-1.651862e+000
2.808860e+003,-1.742671e+000
2.809825e+003,-2.227046e+000
2.810789e+003,-2.029291e+000
2.811753e+003,-7.261963e-001
2.812717e+003,-4.994049e-001
2.813682e+003,-1.825140e+000
2.814646e+003,-1.525969e+000
2.815610e+003,3.890228e-001
2.816574e+003,8.921280e-001
2.817539e+003,-2.102661e-003
2.818503e+003,-2.727219e-001
2.819467e+003,8.025055e-002
2.820431e+003,-7.259842e-001
2.821396e+003,-2.709236e+000
2.822360e+003,-3.742111e+000
2.823324e+003,-3.327101e+000
2.824288e+003,-1.818074e+000
2.825252e+003,1.667866e+000
2.826217e+003,1.788361e+000
2.827181e+003,-1.598671e+000
2.828145e+003,-1.463998e+000
2.829109e+003,1.865172e+000
2.830073e+003,2.356673e+000
2.831038e+003,-3.413391e-003
2.832002e+003,-1.257883e+000
2.832966e+003,-6.572754e-001
2.833930e+003,4.540710e-001
2.834895e+003,1.746812e+000
2.835859e+003,2.890581e+000
2.836823e+003,4.172336e+000
2.837787e+003,3.461653e+000
2.838752e+003,5.982315e-001
2.839716e+003,-1.223441e+000
2.840680e+003,-1.878256e+000
2.841644e+003,-1.925772e+000
2.842609e+003,-1.682410e+000
2.843573e+003,-1.836443e+000
2.844537e+003,-2.296690e+000
2.845501e+003,-2.218460e+000
2.846466e+003,-1.483089e+000
2.847430e+003,-8.578827e-001
2.848394e+003,-3.971008e-001
2.849358e+003,-3.346542e-001
2.850323e+003,-7.115784e-001
2.851287e+003,-1.618515e-001
2.852251e+003,9.963318e-001
2.853215e+003,6.500244e-004
2.854179e+003,-2.384671e+000
2.855144e+003,-2.710567e+000
2.856108e+003,-1.180360e+000
2.857072e+003,-1.785873e-001
2.858036e+003,-1.626450e-001
2.859000e+003,-1.072723e+000
2.859965e+003,-2.882062e+000
2.860929e+003,-2.992516e+000
2.861893e+003,-1.350298e+000
2.862857e+003,-1.379755e+000
2.863822e+003,-2.650714e+000
2.864786e+003,-3.056204e+000
2.865750e+003,-2.517094e+000
2.866714e+003,-1.094728e+000
2.867679e+003,6.574723e-001
2.868643e+003,1.801324e+000
2.869607e+003,2.182555e+000
2.870571e+003,1.519104e+000
2.871536e+003,1.043991e-001
2.872500e+003,5.745605e-001
2.873464e+003,2.742531e+000
2.874428e+003,1.784628e+000
2.875393e+003,-1.119670e+000
2.876357e+003,-2.070400e+000
2.877321e+003,-1.452564e+000
2.878285e+003,-2.192276e-001
2.879250e+003,1.018512e+000
2.880214e+003,1.614037e+000
2.881178e+003,1.477661e+000
2.882142e+003,5.961167e-001
2.883106e+003,-8.218170e-001
2.884071e+003,-2.268930e+000
2.885035e+003,-3.453892e+000
2.885999e+003,-2.130736e+000
2.886963e+003,3.076599e-001
2.887927e+003,7.444916e-002
2.888892e+003,-1.147272e+000
2.889856e+003,-5.887680e-001
2.890820e+003,1.100755e+000
2.891784e+003,3.314728e+000
2.892749e+003,4.941736e+000
2.893713e+003,4.236725e+000
2.894677e+003,2.289937e+000
2.895641e+003,1.511801e+000
2.896606e+003,1.523834e+000
2.897570e+003,1.341383e+000
2.898534e+003,1.170293e+000
2.899498e+003,1.624118e+000
2.900463e+003,1.969344e+000
2.901427e+003,9.601456e-001
2.902391e+003,-1.771179e-001
2.903355e+003,1.199020e-001
2.904320e+003,6.637055e-001
2.905284e+003,1.987472e-001
2.906248e+003,-5.891739e-001
2.907212e+003,-6.701325e-001
2.908177e+003,-3.684204e-001
2.909141e+003,-1.016251e-001
2.910105e+003,8.051606e-002
2.911069e+003,1.978943e-001
2.912033e+003,1.150223e-001
2.912998e+003,-6.233414e-001
2.913962e+003,-1.067598e+000
2.914926e+003,-6.037827e-001
2.915890e+003,9.531403e-002
2.916854e+003,5.662674e-001
2.917819e+003,8.645554e-001
2.918783e+003,1.040883e+000
2.919747e+003,1.090953e+000
2.920711e+003,9.572342e-001
2.921676e+003,7.891952e-001
2.922640e+003,4.212723e-001
2.923604e+003,4.854309e-001
2.924568e+003,1.578861e+000
2.925533e+003,2.221936e+000
2.926497e+003,1.814819e+000
2.927461e+003,1.666635e+000
2.928425e+003,2.477054e+000
2.929390e+003,1.183545e+000
2.930354e+003,-4.935973e+000
2.931318e+003,-8.950800e+000
2.932282e+003,-4.420329e+000
2.933247e+003,-5.014206e-001
2.934211e+003,4.357437e-001
2.935175e+003,9.243515e-001
2.936139e+003,1.004807e+000
2.937104e+003,4.793777e-001
2.938068e+003,-5.573807e-001
2.939032e+003,-8.695205e-001
2.939996e+003,-2.005127e-001
2.940960e+003,3.105423e-001
2.941925e+003,2.082626e-001
2.942889e+003,-2.400223e-001
2.943853e+003,-1.276685e+000
2.944817e+003,-1.445537e+000
2.945781e+003,-4.919037e-001
2.946746e+003,-6.253204e-002
2.947710e+003,-1.948822e-001
2.948674e+003,2.181732e-001
2.949638e+003,1.078578e+000
2.950603e+003,1.291692e+000
2.951567e+003,8.753418e-001
2.952531e+003,7.349442e-001
2.953495e+003,1.005760e+000
2.954460e+003,1.185086e+000
2.955424e+003,1.258113e+000
2.956388e+003,1.121924e+000
2.957352e+003,7.689392e-001
2.958317e+003,-1.006577e-001
2.959281e+003,-1.031197e+000
2.960245e+003,-6.340286e-001
2.961209e+003,5.580093e-001
2.962174e+003,1.680864e+000
2.963138e+003,2.353693e+000
2.964102e+003,1.901802e+000
2.965066e+003,8.617004e-001
2.966031e+003,3.406845e-001
2.966995e+003,2.356171e-001
2.967959e+003,2.370804e-001
2.968923e+003,3.691177e-001
2.969887e+003,8.944351e-001
2.970852e+003,1.365205e+000
2.971816e+003,9.988800e-001
2.972780e+003,5.613357e-001
2.973744e+003,9.932572e-001
2.974708e+003,1.589679e+000
2.975673e+003,1.840944e+000
2.976637e+003,1.572385e+000
2.977601e+003,4.939011e-001
2.978565e+003,-8.269501e-001
2.979530e+003,-2.195158e+000
2.980494e+003,-2.614955e+000
2.981458e+003,-2.350647e-001
2.982422e+003,1.810582e+000
2.983387e+003,1.830843e+000
2.984351e+003,1.209071e+000
2.985315e+003,3.290207e-001
2.986279e+003,-4.299378e-001
2.987244e+003,-8.583587e-001
2.988208e+003,-5.745743e-001
2.989172e+003,7.295486e-001
2.990136e+003,1.554082e+000
2.991101e+003,6.129318e-001
2.992065e+003,-4.014893e-002
2.993029e+003,-9.474183e-003
2.993993e+003,3.884262e-001
2.994958e+003,1.134157e+000
2.995922e+003,1.714075e+000
2.996886e+003,2.065675e+000
2.997850e+003,2.581219e+000
2.998814e+003,3.222037e+000
2.999779e+003,3.090935e+000
3.000743e+003,1.965837e+000
3.001707e+003,1.947272e+000
3.002671e+003,3.576562e+000
3.003635e+003,2.584013e+000
3.004600e+003,-7.607986e-001
3.005564e+003,-1.576515e+000
3.006528e+003,-4.777130e-001
3.007492e+003,-1.889343e-001
3.008457e+003,-3.716782e-001
3.009421e+003,9.201416e-001
3.010385e+003,2.807599e+000
3.011349e+003,2.604918e+000
3.012314e+003,8.832382e-001
3.013278e+003,-1.028400e+000
3.014242e+003,-2.645767e+000
3.015206e+003,-1.987227e+000
3.016171e+003,-2.522919e-001
3.017135e+003,8.782761e-001
3.018099e+003,1.512534e+000
3.019063e+003,1.629408e+000
3.020028e+003,1.652393e+000
3.020992e+003,2.217850e+000
3.021956e+003,1.856924e+000
3.022920e+003,-9.179962e-001
3.023885e+003,-3.177034e+000
3.024849e+003,-1.308353e+000
3.025813e+003,1.048755e+000
3.026777e+003,1.634415e-001
3.027741e+003,-9.873047e-001
3.028706e+003,-1.025118e+000
3.029670e+003,-7.849671e-001
3.030634e+003,-3.702454e-001
3.031598e+003,-3.435379e-001
3.032563e+003,-8.358704e-001
3.033527e+003,-7.150406e-001
3.034491e+003,4.441391e-001
3.035455e+003,1.660223e+000
3.036420e+003,2.598865e+000
3.037384e+003,2.864874e+000
3.038348e+003,2.196779e+000
3.039312e+003,1.348109e+000
3.040277e+003,3.476608e-001
3.041241e+003,2.220917e-002
3.042205e+003,3.628067e-001
3.043169e+003,1.364308e+000
3.044134e+003,2.499147e+000
3.045098e+003,2.298427e+000
3.046062e+003,9.599854e-001
3.047026e+003,3.274322e-001
3.047990e+003,2.940903e-001
3.048955e+003,-2.003860e-001
3.049919e+003,-8.578842e-001
3.050883e+003,2.827911e-002
3.051847e+003,1.348038e+000
3.052812e+003,1.012486e+000
3.053776e+003,1.891235e-001
3.054740e+003,3.293900e-001
3.055704e+003,8.586441e-001
3.056668e+003,1.220636e+000
3.057633e+003,1.570827e+000
3.058597e+003,2.103509e+000
3.059561e+003,2.467571e+000
3.060525e+003,2.234515e+000
3.061490e+003,1.583818e+000
3.062454e+003,2.301956e-001
3.063418e+003,-8.014786e-001
3.064382e+003,-1.220656e+000
3.065347e+003,-9.394821e-001
3.066311e+003,1.001160e-001
3.067275e+003,5.776184e-001
3.068239e+003,1.258301e-001
3.069204e+003,3.979019e-001
3.070168e+003,2.116437e+000
3.071132e+003,2.945987e+000
3.072096e+003,1.515817e+000
3.073061e+003,1.029178e+000
3.074025e+003,1.589801e+000
3.074989e+003,2.622073e+000
3.075953e+003,3.816368e+000
3.076917e+003,4.129415e+000
3.077882e+003,3.536354e+000
3.078846e+003,2.184634e+000
3.079810e+003,4.086273e-001
3.080774e+003,-1.433383e+000
3.081739e+003,-2.836658e+000
3.082703e+003,-2.082323e+000
3.083667e+003,-2.058411e-002
3.084631e+003,6.452515e-001
3.085595e+003,5.072937e-001
3.086560e+003,2.890854e-001
3.087524e+003,5.831299e-002
3.088488e+003,-2.514908e-001
3.089452e+003,-4.270386e-001
3.090417e+003,-2.865295e-001
3.091381e+003,-1.967529e-001
3.092345e+003,-4.583359e-001
3.093309e+003,-4.956406e-001
3.094274e+003,3.733887e-001
3.095238e+003,1.056165e+000
3.096202e+003,5.675842e-001
3.097166e+003,3.995728e-001
3.098131e+003,1.029791e+000
3.099095e+003,9.394028e-001
3.100059e+003,-7.263947e-002
3.101023e+003,-9.011246e-001
3.101988e+003,-1.194090e+000
3.102952e+003,-7.989319e-001
3.103916e+003,2.122101e-001
3.104880e+003,9.908371e-001
3.105844e+003,1.438747e+000
3.106809e+003,1.659647e+000
3.107773e+003,1.622235e+000
3.108737e+003,5.290817e-001
3.109701e+003,-8.747177e-001
3.110666e+003,-5.267502e-001
3.111630e+003,6.424835e-001
3.112594e+003,1.020459e+000
3.113558e+003,1.012363e+000
3.114522e+003,1.439235e+000
3.115487e+003,1.608044e+000
3.116451e+003,4.052917e-001
3.117415e+003,-1.027418e+000
3.118379e+003,-9.415817e-001
3.119344e+003,-4.852570e-001
3.120308e+003,-2.764755e-001
3.121272e+003,-4.927704e-001
3.122236e+003,-1.392619e+000
3.123201e+003,-1.671970e+000
3.124165e+003,-9.404449e-001
3.125129e+003,-4.109558e-001
3.126093e+003,-5.543610e-001
3.127058e+003,-5.897323e-001
3.128022e+003,-1.676727e-001
3.128986e+003,2.181290e-001
3.129950e+003,5.255539e-001
3.130915e+003,6.583573e-001
3.131879e+003,6.346298e-001
3.132843e+003,5.325974e-001
3.133807e+003,4.135651e-001
3.134771e+003,4.204224e-001
3.135736e+003,5.326157e-001
3.136700e+003,7.283691e-001
3.137664e+003,9.415604e-001
3.138628e+003,1.093622e+000
3.139593e+003,1.045007e+000
3.140557e+003,1.262909e-001
3.141521e+003,-7.512070e-001
3.142485e+003,1.488525e-001
3.143449e+003,1.278691e+000
3.144414e+003,1.920848e+000
3.145378e+003,1.333871e+000
3.146342e+003,-1.139107e+000
3.147306e+003,-2.179055e+000
3.148271e+003,-3.156876e-001
3.149235e+003,1.389345e+000
3.150199e+003,1.215962e+000
3.151163e+003,7.246216e-001
3.152128e+003,6.762024e-001
3.153092e+003,2.646942e-002
3.154056e+003,-1.370698e+000
3.155020e+003,-2.048663e+000
3.155985e+003,-1.980769e+000
3.156949e+003,-1.220595e+000
3.157913e+003,-2.802582e-001
3.158877e+003,-4.951431e-001
3.159842e+003,-1.472727e+000
3.160806e+003,-1.687297e+000
3.161770e+003,-1.256357e+000
3.162734e+003,-2.908264e-001
3.163698e+003,6.450135e-001
3.164663e+003,-2.380081e-001
3.165627e+003,-1.146439e+000
3.166591e+003,2.284073e-001
3.167555e+003,1.703644e+000
3.168520e+003,2.214229e+000
3.169484e+003,1.629523e+000
3.170448e+003,-1.054260e-001
3.171412e+003,-9.986099e-001
3.172376e+003,1.116791e-001
3.173341e+003,1.241994e+000
3.174305e+003,1.561212e+000
3.175269e+003,1.009421e+000
3.176233e+003,-6.917877e-001
3.177198e+003,-1.026662e+000
3.178162e+003,-9.645386e-002
3.179126e+003,8.191605e-001
3.180090e+003,1.300151e+000
3.181055e+003,5.889923e-001
3.182019e+003,-8.612900e-001
3.182983e+003,-1.824486e+000
3.183947e+003,-2.162457e+000
3.184912e+003,-1.512377e+000
3.185876e+003,-3.384857e-001
3.186840e+003,6.701691e-001
3.187804e+003,1.159113e+000
3.188769e+003,3.716064e-001
3.189733e+003,-5.226563e-001
3.190697e+003,-1.040106e+000
3.191661e+003,-9.706680e-001
3.192625e+003,-2.282639e-001
3.193590e+003,4.680924e-001
3.194554e+003,7.421128e-001
3.195518e+003,8.124115e-001
3.196482e+003,7.043594e-001
3.197447e+003,7.896164e-001
3.198411e+003,1.182672e+000
3.199375e+003,8.357147e-001
3.200339e+003,2.431488e-002
3.201303e+003,7.935532e-001
3.202268e+003,2.344057e+000
3.203232e+003,2.620110e+000
3.204196e+003,1.609210e+000
3.205160e+003,-3.263840e-001
3.206125e+003,-2.186939e+000
3.207089e+003,-2.099511e+000
3.208053e+003,-1.134827e+000
3.209017e+003,-1.117525e+000
3.209982e+003,-1.164909e+000
3.210946e+003,-4.471802e-001
3.211910e+003,3.391800e-001
3.212874e+003,1.041336e+000
3.213839e+003,1.112157e+000
3.214803e+003,4.421799e-001
3.215767e+003,6.940766e-002
3.216731e+003,3.694107e-001
3.217696e+003,4.033554e-001
3.218660e+003,-2.281052e-001
3.219624e+003,-6.135712e-001
3.220588e+003,-7.246536e-001
3.221552e+003,-6.391083e-001
3.222517e+003,-3.899399e-001
3.223481e+003,2.246246e-002
3.224445e+003,4.145630e-001
3.225409e+003,5.488022e-001
3.226374e+003,4.682053e-001
3.227338e+003,2.036713e-001
3.228302e+003,-8.189545e-002
3.229266e+003,-1.921600e-001
3.230230e+003,-1.907150e-001
3.231195e+003,-4.139862e-002
3.232159e+003,5.066223e-002
3.233123e+003,-1.328644e-001
3.234087e+003,-7.413177e-002
3.235052e+003,3.095581e-001
3.236016e+003,3.093063e-001
3.236980e+003,-1.630539e-001
3.237944e+003,-7.999527e-001
3.238909e+003,-1.380386e+000
3.239873e+003,-9.626297e-001
3.240837e+003,2.622742e-001
3.241801e+003,4.865448e-001
3.242766e+003,5.253601e-003
3.243730e+003,-2.041855e-001
3.244694e+003,-2.984161e-002
3.245658e+003,1.408559e+000
3.246623e+003,2.260420e+000
3.247587e+003,7.321426e-001
3.248551e+003,-9.501465e-001
3.249515e+003,-1.393278e+000
3.250479e+003,-9.742325e-001
3.251444e+003,1.784622e-001
3.252408e+003,9.046921e-001
3.253372e+003,2.213593e-001
3.254336e+003,-2.958404e-001
3.255301e+003,-5.646942e-001
3.256265e+003,-3.679291e-001
3.257229e+003,1.788605e-001
3.258193e+003,8.116714e-001
3.259157e+003,1.151417e+000
3.260122e+003,-2.490936e-001
3.261086e+003,-1.870319e+000
3.262050e+003,-7.021332e-002
3.263014e+003,2.901917e+000
3.263979e+003,1.503606e+000
3.264943e+003,-1.174690e+000
3.265907e+003,-1.993273e+000
3.266871e+003,-1.577304e+000
3.267836e+003,3.993484e-001
3.268800e+003,1.428809e+000
3.269764e+003,8.297165e-001
3.270728e+003,2.829437e-002
3.271693e+003,-3.904037e-001
3.272657e+003,-4.852768e-001
3.273621e+003,-2.629410e-001
3.274585e+003,9.486389e-003
3.275550e+003,3.187485e-001
3.276514e+003,8.187454e-001
3.277478e+003,1.211842e+000
3.278442e+003,2.151672e-001
3.279406e+003,-1.099789e+000
3.280371e+003,-6.888153e-001
3.281335e+003,-3.430985e-001
3.282299e+003,-1.799152e+000
3.283263e+003,-3.141694e+000
3.284228e+003,-2.573222e+000
3.285192e+003,-1.414752e+000
3.286156e+003,-4.767517e-001
3.287120e+003,1.812714e-001
3.288084e+003,5.297775e-001
3.289049e+003,6.524323e-001
3.290013e+003,5.925812e-001
3.290977e+003,5.336227e-001
3.291941e+003,5.935715e-001
3.292906e+003,1.258598e+000
3.293870e+003,2.089015e+000
3.294834e+003,1.604541e+000
3.295798e+003,4.733856e-001
3.296763e+003,5.974365e-001
3.297727e+003,1.068933e+000
3.298691e+003,1.847061e-001
3.299655e+003,-7.346390e-001
3.300620e+003,-6.957825e-001
3.301584e+003,-3.842422e-001
3.302548e+003,2.942200e-002
3.303512e+003,1.370682e-001
3.304477e+003,-8.268738e-002
3.305441e+003,5.614105e-001
3.306405e+003,2.510239e+000
3.307369e+003,2.953880e+000
3.308333e+003,1.692242e+000
3.309298e+003,1.454149e+000
3.310262e+003,1.963083e+000
3.311226e+003,2.625217e+000
3.312190e+003,3.201181e+000
3.313155e+003,3.415393e+000
3.314119e+003,3.378970e+000
3.315083e+003,3.193144e+000
3.316047e+003,2.911687e+000
3.317011e+003,2.577089e+000
3.317976e+003,2.123924e+000
3.318940e+003,1.309319e+000
3.319904e+003,8.783722e-001
3.320868e+003,1.106015e+000
3.321833e+003,5.359009e-001
3.322797e+003,-5.718689e-001
3.323761e+003,1.743179e-001
3.324725e+003,2.178163e+000
3.325690e+003,3.377185e+000
3.326654e+003,3.576178e+000
3.327618e+003,3.055130e+000
3.328582e+003,2.221295e+000
3.329547e+003,1.985162e+000
3.330511e+003,1.698010e+000
3.331475e+003,6.362305e-002
3.332439e+003,-9.476669e-001
3.333404e+003,-4.440796e-001
3.334368e+003,6.691971e-001
3.335332e+003,2.025749e+000
3.336296e+003,1.374489e+000
3.337260e+003,-1.295943e+000
3.338225e+003,-2.443306e+000
3.339189e+003,-1.404950e+000
3.340153e+003,-6.402405e-001
3.341117e+003,-2.325073e-001
3.342082e+003,-1.207092e+000
3.343046e+003,-2.356903e+000
3.344010e+003,-1.202884e+000
3.344974e+003,-8.146667e-002
3.345938e+003,-1.073753e+000
3.346903e+003,-1.694971e+000
3.347867e+003,-7.872284e-001
3.348831e+003,-2.642380e-001
3.349795e+003,-1.188284e+000
3.350760e+003,-1.998341e+000
3.351724e+003,-2.128758e+000
3.352688e+003,-2.216881e+000
3.353652e+003,-2.184315e+000
3.354617e+003,-7.999023e-001
3.355581e+003,8.883743e-001
3.356545e+003,1.525467e-001
3.357509e+003,-1.332915e+000
3.358474e+003,-1.053749e+000
3.359438e+003,-6.334335e-001
3.360402e+003,-1.745949e+000
3.361366e+003,-2.056511e+000
3.362331e+003,2.209038e+000
3.363295e+003,3.791437e+000
3.364259e+003,-2.064320e+000
3.365223e+003,-3.932561e+000
3.366188e+003,-1.464006e+000
3.367152e+003,8.707123e-002
3.368116e+003,1.108887e-001
3.369080e+003,-7.597275e-001
3.370044e+003,-2.023000e+000
3.371009e+003,-2.910759e+000
3.371973e+003,-3.305592e+000
3.372937e+003,-2.845610e+000
3.373901e+003,-2.085300e+000
3.374865e+003,-1.476707e+000
3.375830e+003,-1.232404e+000
3.376794e+003,-1.582623e+000
3.377758e+003,-1.542026e+000
3.378722e+003,-9.863952e-001
3.379687e+003,-8.399734e-001
3.380651e+003,-1.165616e+000
3.381615e+003,-7.794312e-001
3.382579e+003,1.278290e-001
3.383544e+003,-7.131424e-001
3.384508e+003,-2.567177e+000
3.385472e+003,-2.998305e+000
3.386436e+003,-2.565501e+000
3.387401e+003,-1.282634e+000
3.388365e+003,-5.655304e-001
3.389329e+003,-1.146587e+000
3.390293e+003,-1.702183e+000
3.391258e+003,-1.672140e+000
3.392222e+003,-1.110214e+000
3.393186e+003,-3.329468e-002
3.394150e+003,5.386170e-001
3.395115e+003,4.778412e-001
3.396079e+003,7.168015e-001
3.397043e+003,1.047945e+000
3.398007e+003,-2.246094e-002
3.398971e+003,-5.161240e-001
3.399936e+003,3.830864e+000
3.400900e+003,7.491778e+000
3.401864e+003,7.016479e+000
3.402828e+003,5.242267e+000
3.403792e+003,4.068805e+000
3.404757e+003,3.363969e+000
3.405721e+003,2.885349e+000
3.406685e+003,3.836122e+000
3.407649e+003,6.178955e+000
3.408614e+003,6.783400e+000
3.409578e+003,6.344745e+000
3.410542e+003,6.856352e+000
3.411506e+003,8.172579e+000
3.412471e+003,9.888705e+000
3.413435e+003,1.147340e+001
3.414399e+003,1.247659e+001
3.415363e+003,1.293691e+001
3.416328e+003,1.268157e+001
3.417292e+003,1.235315e+001
3.418256e+003,1.207713e+001
3.419220e+003,1.220167e+001
3.420185e+003,1.265114e+001
3.421149e+003,1.229952e+001
3.422113e+003,1.158072e+001
3.423077e+003,1.239008e+001
3.424042e+003,1.358016e+001
3.425006e+003,1.281821e+001
3.425970e+003,1.146782e+001
3.426934e+003,1.175228e+001
