7.140112e+001,1.700094e+002
7.236536e+001,1.673157e+002
7.332959e+001,1.713318e+002
7.429382e+001,1.757554e+002
7.525806e+001,1.817739e+002
7.622229e+001,1.823556e+002
7.718652e+001,1.720114e+002
7.815076e+001,1.449282e+002
7.911499e+001,1.249623e+002
8.007922e+001,1.083093e+002
8.104346e+001,9.830827e+001
8.200769e+001,9.844630e+001
8.297192e+001,1.147029e+002
8.393616e+001,1.361161e+002
8.490039e+001,1.690606e+002
8.586462e+001,2.045450e+002
8.682886e+001,2.276508e+002
8.779310e+001,2.084550e+002
8.875733e+001,1.752688e+002
8.972157e+001,1.419942e+002
9.068580e+001,1.143318e+002
9.165003e+001,9.287620e+001
9.261427e+001,8.526482e+001
9.357850e+001,8.697953e+001
9.454273e+001,9.071159e+001
9.550697e+001,9.160527e+001
9.647120e+001,8.909408e+001
9.743543e+001,8.604588e+001
9.839967e+001,8.288953e+001
9.936390e+001,7.895947e+001
1.003281e+002,7.305135e+001
1.012924e+002,6.036079e+001
1.022566e+002,5.230458e+001
1.032208e+002,5.249972e+001
1.041851e+002,5.877248e+001
1.051493e+002,6.583553e+001
1.061135e+002,7.142250e+001
1.070778e+002,7.402451e+001
1.080420e+002,7.131016e+001
1.090062e+002,6.328439e+001
1.099705e+002,5.272803e+001
1.109347e+002,4.594073e+001
1.118989e+002,4.187731e+001
1.128632e+002,4.092918e+001
1.138274e+002,4.342373e+001
1.147916e+002,5.015951e+001
1.157559e+002,5.365925e+001
1.167201e+002,5.305370e+001
1.176843e+002,5.110128e+001
1.186486e+002,5.115517e+001
1.196128e+002,5.481767e+001
1.205770e+002,5.845655e+001
1.215413e+002,6.469942e+001
1.225055e+002,7.087804e+001
1.234697e+002,7.138235e+001
1.244340e+002,5.382244e+001
1.253982e+002,3.630192e+001
1.263624e+002,2.274554e+001
1.273267e+002,1.505203e+001
1.282909e+002,1.368357e+001
1.292551e+002,2.736128e+001
1.302194e+002,4.545160e+001
1.311836e+002,5.845426e+001
1.321478e+002,6.031637e+001
1.331121e+002,5.076029e+001
1.340763e+002,4.072075e+001
1.350405e+002,2.937185e+001
1.360048e+002,2.045349e+001
1.369690e+002,1.831898e+001
1.379332e+002,2.894952e+001
1.388975e+002,3.760221e+001
1.398617e+002,4.440776e+001
1.408259e+002,4.912871e+001
1.417902e+002,5.150989e+001
1.427544e+002,5.088671e+001
1.437186e+002,4.797594e+001
1.446829e+002,4.124993e+001
1.456471e+002,3.193606e+001
1.466113e+002,2.315751e+001
1.475756e+002,1.833121e+001
1.485398e+002,1.693474e+001
1.495040e+002,2.160602e+001
1.504683e+002,3.241210e+001
1.514325e+002,4.669653e+001
1.523967e+002,4.761169e+001
1.533610e+002,3.832359e+001
1.543252e+002,2.784436e+001
1.552894e+002,2.272311e+001
1.562537e+002,2.543694e+001
1.572179e+002,2.602731e+001
1.581821e+002,2.162649e+001
1.591464e+002,1.728252e+001
1.601106e+002,1.901078e+001
1.610748e+002,3.493772e+001
1.620391e+002,4.488947e+001
1.630033e+002,4.146218e+001
1.639676e+002,3.026298e+001
1.649318e+002,2.016676e+001
1.658960e+002,2.117059e+001
1.668603e+002,2.479585e+001
1.678245e+002,2.505920e+001
1.687887e+002,2.189194e+001
1.697530e+002,1.780964e+001
1.707172e+002,2.070565e+001
1.716814e+002,2.783583e+001
1.726457e+002,3.272772e+001
1.736099e+002,3.289558e+001
1.745741e+002,2.816334e+001
1.755384e+002,2.303384e+001
1.765026e+002,1.582806e+001
1.774668e+002,9.974609e+000
1.784311e+002,7.964807e+000
1.793953e+002,1.166605e+001
1.803595e+002,1.377333e+001
1.813238e+002,1.222989e+001
1.822880e+002,9.456701e+000
1.832522e+002,7.545337e+000
1.842165e+002,8.383142e+000
1.851807e+002,8.678174e+000
1.861449e+002,4.831030e+000
1.871092e+002,-8.427490e-001
1.880734e+002,-5.342383e+000
1.890376e+002,-4.343848e+000
1.900019e+002,9.313232e-001
1.909661e+002,6.418664e+000
1.919303e+002,1.176820e+001
1.928946e+002,1.654817e+001
1.938588e+002,1.907866e+001
1.948230e+002,1.778063e+001
1.957873e+002,1.770040e+001
1.967515e+002,1.978232e+001
1.977157e+002,2.405225e+001
1.986800e+002,2.933817e+001
1.996442e+002,3.508242e+001
2.006084e+002,4.173649e+001
2.015727e+002,5.147457e+001
2.025369e+002,6.476475e+001
2.035011e+002,7.395475e+001
2.044654e+002,7.277415e+001
2.054296e+002,6.676359e+001
2.063938e+002,5.728253e+001
2.073581e+002,4.541289e+001
2.083223e+002,3.397384e+001
2.092865e+002,2.838500e+001
2.102508e+002,2.772964e+001
2.112150e+002,3.269991e+001
2.121792e+002,4.427076e+001
2.131435e+002,6.523866e+001
2.141077e+002,7.478760e+001
2.150719e+002,6.792123e+001
2.160362e+002,5.416938e+001
2.170004e+002,4.784417e+001
2.179646e+002,5.661002e+001
2.189289e+002,6.291610e+001
2.198931e+002,6.235665e+001
2.208573e+002,5.841703e+001
2.218216e+002,5.809852e+001
2.227858e+002,6.997009e+001
2.237500e+002,8.260122e+001
2.247143e+002,9.482920e+001
2.256785e+002,1.042647e+002
2.266427e+002,1.072442e+002
2.276070e+002,9.089191e+001
2.285712e+002,6.540163e+001
2.295354e+002,4.362549e+001
2.304997e+002,2.936180e+001
2.314639e+002,2.170354e+001
2.324281e+002,1.517925e+001
2.333924e+002,9.403760e+000
2.343566e+002,5.488892e+000
2.353208e+002,4.611023e+000
2.362851e+002,7.460889e+000
2.372493e+002,8.819898e+000
2.382135e+002,7.485254e+000
2.391778e+002,5.773535e+000
2.401420e+002,5.053796e+000
2.411062e+002,6.017468e+000
2.420705e+002,6.105664e+000
2.430347e+002,2.840820e+000
2.439989e+002,-1.269092e+000
2.449632e+002,-4.197546e+000
2.459274e+002,-4.331458e+000
2.468916e+002,-3.028113e+000
2.478559e+002,-3.476929e+000
2.488201e+002,-5.158484e+000
2.497843e+002,-7.287292e+000
2.507486e+002,-8.972315e+000
2.517128e+002,-1.010822e+001
2.526770e+002,-9.553564e+000
2.536413e+002,-7.038916e+000
2.546055e+002,-3.408191e+000
2.555697e+002,1.544800e-001
2.565340e+002,4.375391e+000
2.574982e+002,7.358618e+000
2.584625e+002,8.987109e+000
2.594267e+002,9.553393e+000
2.603909e+002,9.469678e+000
2.613552e+002,8.424524e+000
2.623194e+002,6.926062e+000
2.632836e+002,5.000989e+000
2.642479e+002,2.886939e+000
2.652121e+002,8.968506e-001
2.661763e+002,-7.049805e-001
2.671406e+002,-1.602869e+000
2.681048e+002,-1.155298e+000
2.690690e+002,6.943482e-001
2.700333e+002,3.561584e+000
2.709975e+002,6.000318e+000
2.719617e+002,8.542273e+000
2.729260e+002,9.260473e+000
2.738902e+002,6.819190e+000
2.748544e+002,1.276770e+000
2.758187e+002,-3.037769e+000
2.767829e+002,-5.840600e+000
2.777471e+002,-7.711450e+000
2.787114e+002,-8.650024e+000
2.796756e+002,-8.629919e+000
2.806398e+002,-7.615308e+000
2.816041e+002,-5.131238e+000
2.825683e+002,-2.171301e+000
2.835325e+002,1.407202e+000
2.844968e+002,5.403870e+000
2.854610e+002,8.672815e+000
2.864252e+002,7.341858e+000
2.873895e+002,3.542334e+000
2.883537e+002,3.911255e-001
2.893179e+002,-1.143066e-001
2.902822e+002,2.287976e+000
2.912464e+002,2.841589e+000
2.922106e+002,1.479736e+000
2.931749e+002,-7.456299e-001
2.941391e+002,-3.513086e+000
2.951033e+002,-7.413843e+000
2.960676e+002,-1.013899e+001
2.970318e+002,-1.163105e+001
2.979960e+002,-1.198654e+001
2.989603e+002,-1.095125e+001
2.999245e+002,-8.114856e+000
3.008887e+002,-5.394238e+000
3.018530e+002,-4.390943e+000
3.028172e+002,-4.069385e+000
3.037814e+002,-3.413647e+000
3.047457e+002,-1.538953e+000
3.057099e+002,1.097376e+000
3.066741e+002,3.274133e+000
3.076384e+002,4.872485e+000
3.086026e+002,5.170056e+000
3.095668e+002,3.302869e+000
3.105311e+002,-1.724084e+000
3.114953e+002,-5.051636e+000
3.124595e+002,-5.994983e+000
3.134238e+002,-6.011755e+000
3.143880e+002,-6.940027e+000
3.153522e+002,-1.013075e+001
3.163165e+002,-1.195857e+001
3.172807e+002,-1.151255e+001
3.182449e+002,-9.578161e+000
3.192092e+002,-6.893897e+000
3.201734e+002,-3.502698e+000
3.211376e+002,-5.797729e-001
3.221019e+002,7.460938e-001
3.230661e+002,1.181433e+000
3.240303e+002,1.964844e+000
3.249946e+002,4.780530e+000
3.259588e+002,8.775305e+000
3.269230e+002,9.436243e+000
3.278873e+002,6.635986e+000
3.288515e+002,2.277673e+000
3.298157e+002,-2.900513e-001
3.307800e+002,1.621826e-001
3.317442e+002,1.032007e+000
3.327084e+002,1.975610e+000
3.336727e+002,3.240564e+000
3.346369e+002,5.523633e+000
3.356011e+002,1.098805e+001
3.365654e+002,1.455662e+001
3.375296e+002,1.407866e+001
3.384938e+002,1.126316e+001
3.394581e+002,8.647339e+000
3.404223e+002,8.029492e+000
3.413865e+002,9.085974e+000
3.423508e+002,1.166780e+001
3.433150e+002,1.546508e+001
3.442792e+002,1.988347e+001
3.452435e+002,2.400701e+001
3.462077e+002,2.786018e+001
3.471719e+002,3.180640e+001
3.481362e+002,3.505586e+001
3.491004e+002,3.946986e+001
3.500646e+002,4.925816e+001
3.510289e+002,6.584108e+001
3.519931e+002,8.825401e+001
3.529573e+002,1.182090e+002
3.539216e+002,1.534631e+002
3.548858e+002,1.918815e+002
3.558500e+002,2.457952e+002
3.568143e+002,2.823835e+002
3.577785e+002,2.887346e+002
3.587427e+002,2.709921e+002
3.597070e+002,2.394706e+002
3.606712e+002,1.989801e+002
3.616354e+002,1.565961e+002
3.625997e+002,1.196168e+002
3.635639e+002,8.911732e+001
3.645281e+002,6.617879e+001
3.654924e+002,5.256493e+001
3.664566e+002,5.141883e+001
3.674208e+002,4.788960e+001
3.683851e+002,4.070594e+001
3.693493e+002,3.151094e+001
3.703135e+002,2.387631e+001
3.712778e+002,1.869541e+001
3.722420e+002,1.464180e+001
3.732062e+002,1.119061e+001
3.741705e+002,8.792981e+000
3.751347e+002,8.437048e+000
3.760989e+002,1.220831e+001
3.770632e+002,1.588998e+001
3.780274e+002,1.711755e+001
3.789916e+002,1.652693e+001
3.799559e+002,1.541104e+001
3.809201e+002,1.532128e+001
3.818844e+002,1.554752e+001
3.828486e+002,1.375587e+001
3.838128e+002,1.017290e+001
3.847771e+002,6.501477e+000
3.857413e+002,5.299414e+000
3.867055e+002,7.875403e+000
3.876698e+002,1.008756e+001
3.886340e+002,1.117175e+001
3.895982e+002,1.210847e+001
3.905625e+002,1.462012e+001
3.915267e+002,2.103453e+001
3.924909e+002,2.495137e+001
3.934552e+002,2.442834e+001
3.944194e+002,2.164423e+001
3.953836e+002,1.867904e+001
3.963479e+002,1.638256e+001
3.973121e+002,1.526838e+001
3.982763e+002,1.616492e+001
3.992406e+002,1.807808e+001
4.002048e+002,1.952963e+001
4.011690e+002,1.905422e+001
4.021333e+002,1.699218e+001
4.030975e+002,1.641321e+001
4.040617e+002,1.729052e+001
4.050260e+002,1.903241e+001
4.059902e+002,2.105286e+001
4.069544e+002,2.326086e+001
4.079187e+002,2.606636e+001
4.088829e+002,2.942180e+001
4.098471e+002,3.314666e+001
4.108114e+002,3.679546e+001
4.117756e+002,3.985903e+001
4.127398e+002,4.489247e+001
4.137041e+002,5.584497e+001
4.146683e+002,6.681142e+001
4.156325e+002,7.353619e+001
4.165968e+002,7.376807e+001
4.175610e+002,6.956093e+001
4.185252e+002,6.287222e+001
4.194895e+002,5.528080e+001
4.204537e+002,4.856659e+001
4.214179e+002,4.389312e+001
4.223822e+002,4.126057e+001
4.233464e+002,4.103020e+001
4.243106e+002,4.326540e+001
4.252749e+002,4.556444e+001
4.262391e+002,4.556222e+001
4.272033e+002,4.266478e+001
4.281676e+002,4.571521e+001
4.291318e+002,5.928113e+001
4.300960e+002,7.423500e+001
4.310603e+002,8.600227e+001
4.320245e+002,9.455460e+001
4.329887e+002,1.065421e+002
4.339530e+002,1.318637e+002
4.349172e+002,1.600848e+002
4.358814e+002,1.894484e+002
4.368457e+002,2.174461e+002
4.378099e+002,2.405385e+002
4.387741e+002,2.502613e+002
4.397384e+002,2.484203e+002
4.407026e+002,2.399591e+002
4.416668e+002,2.252977e+002
4.426311e+002,2.059626e+002
4.435953e+002,1.870789e+002
4.445595e+002,1.667602e+002
4.455238e+002,1.498089e+002
4.464880e+002,1.366665e+002
4.474522e+002,1.269732e+002
4.484165e+002,1.205510e+002
4.493807e+002,1.212413e+002
4.503449e+002,1.203864e+002
4.513092e+002,1.151987e+002
4.522734e+002,1.067758e+002
4.532376e+002,9.668608e+001
4.542019e+002,8.564372e+001
4.551661e+002,7.484953e+001
4.561303e+002,6.561198e+001
4.570946e+002,5.775817e+001
4.580588e+002,5.067590e+001
4.590230e+002,4.364020e+001
4.599873e+002,3.679043e+001
4.609515e+002,3.291156e+001
4.619157e+002,3.201726e+001
4.628800e+002,3.299042e+001
4.638442e+002,3.504462e+001
4.648084e+002,3.849543e+001
4.657727e+002,4.219575e+001
4.667369e+002,4.634169e+001
4.677011e+002,5.061018e+001
4.686654e+002,5.523563e+001
4.696296e+002,6.033052e+001
4.705938e+002,6.381531e+001
4.715581e+002,6.390819e+001
4.725223e+002,6.206979e+001
4.734865e+002,5.870770e+001
4.744508e+002,5.423895e+001
4.754150e+002,4.917471e+001
4.763792e+002,4.436920e+001
4.773435e+002,3.988734e+001
4.783077e+002,3.630126e+001
4.792719e+002,3.389623e+001
4.802362e+002,3.251099e+001
4.812004e+002,3.112723e+001
4.821646e+002,2.988433e+001
4.831289e+002,2.830011e+001
4.840931e+002,2.573640e+001
4.850573e+002,2.265494e+001
4.860216e+002,2.042684e+001
4.869858e+002,2.062086e+001
4.879500e+002,2.076096e+001
4.889143e+002,1.986929e+001
4.898785e+002,1.834753e+001
4.908427e+002,1.688733e+001
4.918070e+002,1.598645e+001
4.927712e+002,1.552355e+001
4.937354e+002,1.541808e+001
4.946997e+002,1.552014e+001
4.956639e+002,1.533130e+001
4.966281e+002,1.430855e+001
4.975924e+002,1.234404e+001
4.985566e+002,1.187920e+001
4.995208e+002,1.266136e+001
5.004851e+002,1.467339e+001
5.014493e+002,1.830634e+001
5.024135e+002,2.405634e+001
5.033778e+002,2.913920e+001
5.043420e+002,3.383926e+001
5.053063e+002,3.770465e+001
5.062705e+002,4.080610e+001
5.072347e+002,4.291874e+001
5.081990e+002,4.285218e+001
5.091632e+002,3.678806e+001
5.101274e+002,2.965533e+001
5.110917e+002,2.447795e+001
5.120559e+002,2.178845e+001
5.130201e+002,2.025192e+001
5.139844e+002,1.712577e+001
5.149486e+002,1.253897e+001
5.159128e+002,8.964643e+000
5.168771e+002,6.881921e+000
5.178413e+002,5.765015e+000
5.188055e+002,4.464410e+000
5.197698e+002,2.879419e+000
5.207340e+002,1.170129e+000
5.216982e+002,-8.674133e-001
5.226625e+002,-2.935809e+000
5.236267e+002,-4.732648e+000
5.245909e+002,-6.210559e+000
5.255552e+002,-7.262781e+000
5.265194e+002,-7.853351e+000
5.274836e+002,-8.114362e+000
5.284479e+002,-8.087641e+000
5.294121e+002,-7.790906e+000
5.303763e+002,-7.286841e+000
5.313406e+002,-6.767047e+000
5.323048e+002,-6.286670e+000
5.332690e+002,-5.785376e+000
5.342333e+002,-5.195380e+000
5.351975e+002,-4.611365e+000
5.361617e+002,-4.931323e+000
5.371260e+002,-7.544147e+000
5.380902e+002,-8.865137e+000
5.390544e+002,-7.465723e+000
5.400187e+002,-4.267962e+000
5.409829e+002,-2.201337e+000
5.419471e+002,-2.885297e+000
5.429114e+002,-3.451349e+000
5.438756e+002,-2.506439e+000
5.448398e+002,-1.108917e+000
5.458041e+002,-1.216656e+000
5.467683e+002,-4.795447e+000
5.477325e+002,-8.817365e+000
5.486968e+002,-8.601740e+000
5.496610e+002,-5.633410e+000
5.506252e+002,-2.553076e+000
5.515895e+002,-1.531915e+000
5.525537e+002,-2.571588e+000
5.535179e+002,-4.084405e+000
5.544822e+002,-6.291131e+000
5.554464e+002,-8.112109e+000
5.564106e+002,-9.097333e+000
5.573749e+002,-9.281586e+000
5.583391e+002,-8.905462e+000
5.593033e+002,-6.684387e+000
5.602676e+002,-5.162274e+000
5.612318e+002,-5.827246e+000
5.621960e+002,-7.935950e+000
5.631603e+002,-9.039355e+000
5.641245e+002,-6.182330e+000
5.650887e+002,-3.049390e+000
5.660530e+002,-3.065521e+000
5.670172e+002,-5.398852e+000
5.679814e+002,-7.963562e+000
5.689457e+002,-8.528040e+000
5.699099e+002,-7.139746e+000
5.708741e+002,-5.633026e+000
5.718384e+002,-3.725250e+000
5.728026e+002,-2.587805e+000
5.737668e+002,-3.697229e+000
5.747311e+002,-7.890375e+000
5.756953e+002,-1.020551e+001
5.766595e+002,-9.125201e+000
5.776238e+002,-8.020533e+000
5.785880e+002,-8.291992e+000
5.795522e+002,-9.910986e+000
5.805165e+002,-1.153007e+001
5.814807e+002,-1.236733e+001
5.824449e+002,-1.273483e+001
5.834092e+002,-1.270718e+001
5.843734e+002,-1.238557e+001
5.853376e+002,-1.185281e+001
5.863019e+002,-1.112833e+001
5.872661e+002,-1.035550e+001
5.882303e+002,-1.030328e+001
5.891946e+002,-1.099883e+001
5.901588e+002,-1.146797e+001
5.911230e+002,-1.054373e+001
5.920873e+002,-7.561994e+000
5.930515e+002,-5.957922e+000
5.940157e+002,-5.645990e+000
5.949800e+002,-6.199396e+000
5.959442e+002,-8.091907e+000
5.969084e+002,-1.120340e+001
5.978727e+002,-1.327709e+001
5.988369e+002,-1.186015e+001
5.998011e+002,-9.982684e+000
6.007654e+002,-8.419428e+000
6.017296e+002,-7.490186e+000
6.026938e+002,-7.506738e+000
6.036581e+002,-9.266113e+000
6.046223e+002,-1.166710e+001
6.055865e+002,-1.115079e+001
6.065508e+002,-7.914453e+000
6.075150e+002,-4.715631e+000
6.084792e+002,-4.723450e+000
6.094435e+002,-9.074481e+000
6.104077e+002,-1.061802e+001
6.113719e+002,-8.188782e+000
6.123362e+002,-5.228314e+000
6.133004e+002,-3.176624e+000
6.142646e+002,-2.122205e+000
6.152289e+002,-1.804535e+000
6.161931e+002,-3.100989e+000
6.171573e+002,-4.331580e+000
6.181216e+002,-4.940277e+000
6.190858e+002,-4.859448e+000
6.200500e+002,-4.230933e+000
6.210143e+002,-3.098663e+000
6.219785e+002,-1.732446e+000
6.229427e+002,-7.850403e-001
6.239070e+002,-1.601501e-001
6.248712e+002,6.671509e-001
6.258354e+002,2.258234e+000
6.267997e+002,4.799506e+000
6.277639e+002,7.140662e+000
6.287281e+002,9.721405e+000
6.296924e+002,1.150663e+001
6.306566e+002,1.169809e+001
6.316208e+002,1.044573e+001
6.325851e+002,9.452807e+000
6.335493e+002,9.364893e+000
6.345135e+002,9.669019e+000
6.354778e+002,1.073482e+001
6.364420e+002,1.198505e+001
6.374063e+002,1.241339e+001
6.383705e+002,1.108469e+001
6.393347e+002,8.844091e+000
6.402990e+002,7.050836e+000
6.412632e+002,5.725915e+000
6.422274e+002,4.946881e+000
6.431917e+002,4.770081e+000
6.441559e+002,5.130713e+000
6.451201e+002,4.987781e+000
6.460844e+002,4.033338e+000
6.470486e+002,3.249225e+000
6.480128e+002,3.186334e+000
6.489771e+002,3.614600e+000
6.499413e+002,3.509674e+000
6.509055e+002,2.421564e+000
6.518698e+002,9.801331e-001
6.528340e+002,-1.453595e+000
6.537982e+002,-3.777673e+000
6.547625e+002,-4.335931e+000
6.557267e+002,-1.940649e+000
6.566909e+002,1.035028e+000
6.576552e+002,7.052673e-001
6.586194e+002,-1.375720e+000
6.595836e+002,-3.011792e+000
6.605479e+002,-3.079523e+000
6.615121e+002,-1.865149e+000
6.624763e+002,-6.598511e-001
6.634406e+002,8.613586e-001
6.644048e+002,1.423883e+000
6.653690e+002,3.626709e-002
6.663333e+002,-2.332202e+000
6.672975e+002,-3.773303e+000
6.682617e+002,-3.775317e+000
6.692260e+002,-3.185724e+000
6.701902e+002,-2.278284e+000
6.711544e+002,-9.998901e-001
6.721187e+002,1.156305e+000
6.730829e+002,4.200189e+000
6.740471e+002,6.556238e+000
6.750114e+002,4.734003e+000
6.759756e+002,1.613702e+000
6.769398e+002,1.406616e-001
6.779041e+002,8.930603e-001
6.788683e+002,2.759973e+000
6.798325e+002,3.737878e+000
6.807968e+002,3.471478e+000
6.817610e+002,3.608105e+000
6.827252e+002,4.881549e+000
6.836895e+002,5.965600e+000
6.846537e+002,5.364734e+000
6.856179e+002,2.617450e+000
6.865822e+002,6.444519e-001
6.875464e+002,4.709717e-001
6.885106e+002,8.365662e-001
6.894749e+002,1.421576e+000
6.904391e+002,2.079608e+000
6.914034e+002,2.743353e+000
6.923676e+002,3.378473e+000
6.933318e+002,3.981122e+000
6.942961e+002,4.569464e+000
6.952603e+002,5.117572e+000
6.962245e+002,5.464636e+000
6.971888e+002,5.427368e+000
6.981530e+002,4.955847e+000
6.991172e+002,5.381128e+000
7.000815e+002,6.708923e+000
7.010457e+002,8.474066e+000
7.020099e+002,1.114871e+001
7.029742e+002,1.439600e+001
7.039384e+002,1.637149e+001
7.049026e+002,1.554069e+001
7.058669e+002,1.477170e+001
7.068311e+002,1.481056e+001
7.077953e+002,1.534114e+001
7.087596e+002,1.616484e+001
7.097238e+002,1.726007e+001
7.106880e+002,1.800821e+001
7.116523e+002,1.643894e+001
7.126165e+002,1.397162e+001
7.135807e+002,1.312043e+001
7.145450e+002,1.481832e+001
7.155092e+002,1.779801e+001
7.164734e+002,1.852518e+001
7.174377e+002,1.536042e+001
7.184019e+002,1.324660e+001
7.193661e+002,1.295382e+001
7.203304e+002,1.309352e+001
7.212946e+002,1.204130e+001
7.222589e+002,9.327917e+000
7.232231e+002,7.331616e+000
7.241873e+002,7.058917e+000
7.251516e+002,7.400067e+000
7.261158e+002,8.099835e+000
7.270800e+002,8.857013e+000
7.280443e+002,9.213800e+000
7.290085e+002,8.551630e+000
7.299727e+002,7.430426e+000
7.309370e+002,7.200623e+000
7.319012e+002,7.718011e+000
7.328654e+002,7.911603e+000
7.338297e+002,6.708099e+000
7.347939e+002,3.976520e+000
7.357581e+002,2.647205e+000
7.367224e+002,3.733600e+000
7.376866e+002,4.652417e+000
7.386508e+002,4.396008e+000
7.396151e+002,3.464014e+000
7.405793e+002,3.389954e+000
7.415435e+002,5.385358e+000
7.425078e+002,6.976678e+000
7.434720e+002,6.659515e+000
7.444362e+002,5.593524e+000
7.454005e+002,4.928186e+000
7.463647e+002,5.221619e+000
7.473289e+002,6.185834e+000
7.482932e+002,7.860022e+000
7.492574e+002,9.807666e+000
7.502216e+002,1.047268e+001
7.511859e+002,9.344000e+000
7.521501e+002,7.471784e+000
7.531143e+002,6.900305e+000
7.540786e+002,8.673395e+000
7.550428e+002,9.367193e+000
7.560070e+002,7.902575e+000
7.569713e+002,6.595026e+000
7.579355e+002,6.960028e+000
7.588997e+002,8.990710e+000
7.598640e+002,1.117476e+001
7.608282e+002,1.315125e+001
7.617924e+002,1.465959e+001
7.627567e+002,1.525695e+001
7.637209e+002,1.529279e+001
7.646851e+002,1.525262e+001
7.656494e+002,1.550134e+001
7.666136e+002,1.624504e+001
7.675778e+002,1.920283e+001
7.685421e+002,2.402481e+001
7.695063e+002,2.689146e+001
7.704705e+002,2.552916e+001
7.714348e+002,2.109201e+001
7.723990e+002,1.824745e+001
7.733632e+002,1.839789e+001
7.743275e+002,1.802404e+001
7.752917e+002,1.626017e+001
7.762559e+002,1.438505e+001
7.772202e+002,1.339820e+001
7.781844e+002,1.354766e+001
7.791486e+002,1.458988e+001
7.801129e+002,1.759545e+001
7.810771e+002,2.060764e+001
7.820413e+002,2.224002e+001
7.830056e+002,2.247606e+001
7.839698e+002,2.202700e+001
7.849340e+002,2.166116e+001
7.858983e+002,2.138505e+001
7.868625e+002,2.117022e+001
7.878267e+002,2.074269e+001
7.887910e+002,2.099930e+001
7.897552e+002,2.302564e+001
7.907194e+002,2.651290e+001
7.916837e+002,2.868747e+001
7.926479e+002,2.790522e+001
7.936121e+002,2.750225e+001
7.945764e+002,2.834378e+001
7.955406e+002,2.971758e+001
7.965048e+002,3.086080e+001
7.974691e+002,3.151776e+001
7.984333e+002,3.211269e+001
7.993975e+002,3.283249e+001
8.003618e+002,3.376866e+001
8.013260e+002,3.528362e+001
8.022902e+002,3.737283e+001
8.032545e+002,3.952031e+001
8.042187e+002,4.093280e+001
8.051829e+002,4.132040e+001
8.061472e+002,4.312664e+001
8.071114e+002,4.725508e+001
8.080756e+002,5.135553e+001
8.090399e+002,5.404119e+001
8.100041e+002,5.559819e+001
8.109683e+002,5.781722e+001
8.119326e+002,6.113027e+001
8.128968e+002,6.528591e+001
8.138610e+002,7.014850e+001
8.148253e+002,7.571764e+001
8.157895e+002,8.234540e+001
8.167537e+002,9.016367e+001
8.177180e+002,9.796654e+001
8.186822e+002,1.032768e+002
8.196464e+002,1.069212e+002
8.206107e+002,1.104973e+002
8.215749e+002,1.142764e+002
8.225391e+002,1.180443e+002
8.235034e+002,1.218061e+002
8.244676e+002,1.266756e+002
8.254318e+002,1.274151e+002
8.263961e+002,1.224368e+002
8.273603e+002,1.167953e+002
8.283245e+002,1.129640e+002
8.292888e+002,1.104208e+002
8.302530e+002,1.065194e+002
8.312172e+002,9.907190e+001
8.321815e+002,9.163980e+001
8.331457e+002,8.649106e+001
8.341099e+002,8.305867e+001
8.350742e+002,8.079713e+001
8.360384e+002,7.927808e+001
8.370026e+002,7.793830e+001
8.379669e+002,7.531814e+001
8.389311e+002,7.131039e+001
8.398953e+002,6.770348e+001
8.408596e+002,6.474068e+001
8.418238e+002,6.213749e+001
8.427880e+002,5.968468e+001
8.437523e+002,5.746659e+001
8.447165e+002,5.506355e+001
8.456807e+002,5.210967e+001
8.466450e+002,4.934861e+001
8.476092e+002,4.701208e+001
8.485734e+002,4.499099e+001
8.495377e+002,4.302137e+001
8.505019e+002,4.092345e+001
8.514661e+002,3.918697e+001
8.524304e+002,3.876419e+001
8.533946e+002,3.897752e+001
8.543588e+002,3.877211e+001
8.553231e+002,3.774285e+001
8.562873e+002,3.623063e+001
8.572515e+002,3.496220e+001
8.582158e+002,3.384310e+001
8.591800e+002,3.344933e+001
8.601442e+002,3.428968e+001
8.611085e+002,3.516582e+001
8.620727e+002,3.523521e+001
8.630369e+002,3.460435e+001
8.640012e+002,3.428127e+001
8.649654e+002,3.497003e+001
8.659296e+002,3.549111e+001
8.668939e+002,3.489894e+001
8.678581e+002,3.398528e+001
8.688223e+002,3.403035e+001
8.697866e+002,3.561513e+001
8.707508e+002,3.774762e+001
8.717150e+002,3.834426e+001
8.726793e+002,3.763572e+001
8.736435e+002,3.667764e+001
8.746077e+002,3.563467e+001
8.755720e+002,3.443909e+001
8.765362e+002,3.283794e+001
8.775004e+002,3.056434e+001
8.784647e+002,2.915109e+001
8.794289e+002,2.935442e+001
8.803931e+002,2.943319e+001
8.813574e+002,2.876340e+001
8.823216e+002,2.756116e+001
8.832858e+002,2.636633e+001
8.842501e+002,2.546342e+001
8.852143e+002,2.472243e+001
8.861785e+002,2.392561e+001
8.871428e+002,2.308283e+001
8.881070e+002,2.233160e+001
8.890712e+002,2.166419e+001
8.900355e+002,2.079663e+001
8.909997e+002,1.925094e+001
8.919639e+002,1.687922e+001
8.929282e+002,1.529542e+001
8.938924e+002,1.458978e+001
8.948566e+002,1.435816e+001
8.958209e+002,1.471786e+001
8.967851e+002,1.546834e+001
8.977493e+002,1.570764e+001
8.987136e+002,1.500584e+001
8.996778e+002,1.401118e+001
9.006420e+002,1.286292e+001
9.016063e+002,1.171692e+001
9.025705e+002,1.063930e+001
9.035347e+002,9.717890e+000
9.044990e+002,9.147247e+000
9.054632e+002,9.258985e+000
9.064274e+002,9.778955e+000
9.073917e+002,9.831653e+000
9.083559e+002,9.443054e+000
9.093201e+002,8.780024e+000
9.102844e+002,7.886542e+000
9.112486e+002,6.768720e+000
9.122128e+002,5.727277e+000
9.131771e+002,4.370618e+000
9.141413e+002,3.699420e+000
9.151055e+002,4.495435e+000
9.160698e+002,5.593140e+000
9.170340e+002,5.716784e+000
9.179982e+002,4.586768e+000
9.189625e+002,3.335876e+000
9.199267e+002,3.180066e+000
9.208909e+002,3.149377e+000
9.218552e+002,2.077063e+000
9.228194e+002,2.564026e-001
9.237836e+002,-1.352441e+000
9.247479e+002,-1.993622e+000
9.257121e+002,-1.731708e+000
9.266763e+002,-8.546631e-001
9.276406e+002,1.489636e+000
9.286048e+002,2.427087e+000
9.295690e+002,5.216064e-001
9.305333e+002,-2.163940e+000
9.314975e+002,-3.274231e+000
9.324617e+002,-2.512146e+000
9.334260e+002,-1.516046e+000
9.343902e+002,-1.012201e+000
9.353545e+002,-3.686585e-001
9.363187e+002,9.587525e-001
9.372830e+002,2.587378e+000
9.382472e+002,3.924854e+000
9.392114e+002,4.616815e+000
9.401757e+002,4.675751e+000
9.411399e+002,3.488513e+000
9.421041e+002,1.307050e+000
9.430684e+002,6.357971e-001
9.440326e+002,2.380847e+000
9.449968e+002,4.703796e+000
9.459611e+002,5.253015e+000
9.469253e+002,3.786890e+000
9.478895e+002,2.640326e+000
9.488538e+002,1.972766e+000
9.498180e+002,1.566040e+000
9.507822e+002,1.487354e+000
9.517465e+002,1.549841e+000
9.527107e+002,1.431128e+000
9.536749e+002,1.011633e+000
9.546392e+002,8.381287e-001
9.556034e+002,1.846649e+000
9.565676e+002,3.337555e+000
9.575319e+002,4.503143e+000
9.584961e+002,5.287005e+000
9.594603e+002,6.008124e+000
9.604246e+002,6.951337e+000
9.613888e+002,8.086115e+000
9.623530e+002,9.346283e+000
9.633173e+002,1.041091e+001
9.642815e+002,1.199763e+001
9.652457e+002,1.422686e+001
9.662100e+002,1.714132e+001
9.671742e+002,2.006132e+001
9.681384e+002,2.267004e+001
9.691027e+002,2.812498e+001
9.700669e+002,4.026332e+001
9.710311e+002,5.478649e+001
9.719954e+002,7.291185e+001
9.729596e+002,9.103367e+001
9.739238e+002,1.019925e+002
9.748881e+002,1.009949e+002
9.758523e+002,9.068816e+001
9.768165e+002,7.916973e+001
9.777808e+002,6.593436e+001
9.787450e+002,5.456709e+001
9.797092e+002,4.528195e+001
9.806735e+002,3.812328e+001
9.816377e+002,3.375420e+001
9.826019e+002,3.225454e+001
9.835662e+002,3.061804e+001
9.845304e+002,2.785292e+001
9.854946e+002,2.519731e+001
9.864589e+002,2.260912e+001
9.874231e+002,2.059351e+001
9.883873e+002,1.961871e+001
9.893516e+002,1.983482e+001
9.903158e+002,2.117806e+001
9.912800e+002,2.402092e+001
9.922443e+002,2.803721e+001
9.932085e+002,3.069865e+001
9.941727e+002,3.171667e+001
9.951370e+002,3.407720e+001
9.961012e+002,4.000295e+001
9.970654e+002,4.901921e+001
9.980297e+002,5.842049e+001
9.989939e+002,6.465489e+001
9.999581e+002,7.815864e+001
1.000922e+003,9.585730e+001
1.001887e+003,1.239310e+002
1.002851e+003,1.715043e+002
1.003815e+003,2.355388e+002
1.004779e+003,3.044677e+002
1.005744e+003,3.808605e+002
1.006708e+003,4.369393e+002
1.007672e+003,4.281004e+002
1.008636e+003,3.728616e+002
1.009600e+003,3.070873e+002
1.010565e+003,2.457003e+002
1.011529e+003,1.907105e+002
1.012493e+003,1.473009e+002
1.013457e+003,1.179107e+002
1.014422e+003,9.456167e+001
1.015386e+003,7.782290e+001
1.016350e+003,6.467726e+001
1.017314e+003,5.468450e+001
1.018279e+003,4.713895e+001
1.019243e+003,4.111137e+001
1.020207e+003,3.643845e+001
1.021171e+003,3.287720e+001
1.022135e+003,3.098307e+001
1.023100e+003,2.964524e+001
1.024064e+003,2.805010e+001
1.025028e+003,2.598995e+001
1.025992e+003,2.333602e+001
1.026957e+003,1.994451e+001
1.027921e+003,1.625051e+001
1.028885e+003,1.491777e+001
1.029849e+003,1.744982e+001
1.030814e+003,1.890584e+001
1.031778e+003,1.793130e+001
1.032742e+003,1.618367e+001
1.033706e+003,1.528605e+001
1.034671e+003,1.538379e+001
1.035635e+003,1.563916e+001
1.036599e+003,1.575408e+001
1.037563e+003,1.594851e+001
1.038527e+003,1.639643e+001
1.039492e+003,1.691855e+001
1.040456e+003,1.735552e+001
1.041420e+003,1.762012e+001
1.042384e+003,1.761889e+001
1.043349e+003,1.713060e+001
1.044313e+003,1.618281e+001
1.045277e+003,1.616461e+001
1.046241e+003,1.767774e+001
1.047206e+003,1.830503e+001
1.048170e+003,1.568364e+001
1.049134e+003,1.159660e+001
1.050098e+003,1.087193e+001
1.051063e+003,1.530266e+001
1.052027e+003,1.872095e+001
1.052991e+003,1.834340e+001
1.053955e+003,1.706271e+001
1.054919e+003,1.616431e+001
1.055884e+003,1.573074e+001
1.056848e+003,1.539034e+001
1.057812e+003,1.495419e+001
1.058776e+003,1.465648e+001
1.059741e+003,1.494831e+001
1.060705e+003,1.568827e+001
1.061669e+003,1.629308e+001
1.062633e+003,1.677722e+001
1.063598e+003,1.677040e+001
1.064562e+003,1.544207e+001
1.065526e+003,1.303481e+001
1.066490e+003,1.250217e+001
1.067454e+003,1.564288e+001
1.068419e+003,1.811763e+001
1.069383e+003,1.846466e+001
1.070347e+003,1.809374e+001
1.071311e+003,1.829245e+001
1.072276e+003,1.909220e+001
1.073240e+003,1.944534e+001
1.074204e+003,1.840699e+001
1.075168e+003,1.681316e+001
1.076133e+003,1.687994e+001
1.077097e+003,1.809814e+001
1.078061e+003,1.855145e+001
1.079025e+003,1.747737e+001
1.079990e+003,1.594764e+001
1.080954e+003,1.551071e+001
1.081918e+003,1.632194e+001
1.082882e+003,1.720104e+001
1.083846e+003,1.838904e+001
1.084811e+003,1.923228e+001
1.085775e+003,1.929155e+001
1.086739e+003,1.911464e+001
1.087703e+003,1.953392e+001
1.088668e+003,2.064136e+001
1.089632e+003,2.133218e+001
1.090596e+003,2.023873e+001
1.091560e+003,1.853085e+001
1.092525e+003,1.878615e+001
1.093489e+003,2.050675e+001
1.094453e+003,2.180243e+001
1.095417e+003,2.179581e+001
1.096381e+003,2.114211e+001
1.097346e+003,2.118071e+001
1.098310e+003,2.226643e+001
1.099274e+003,2.276896e+001
1.100238e+003,2.223007e+001
1.101203e+003,2.178589e+001
1.102167e+003,2.195156e+001
1.103131e+003,2.225862e+001
1.104095e+003,2.181404e+001
1.105060e+003,2.043469e+001
1.106024e+003,1.943592e+001
1.106988e+003,2.040509e+001
1.107952e+003,2.221862e+001
1.108917e+003,2.293180e+001
1.109881e+003,2.271314e+001
1.110845e+003,2.242681e+001
1.111809e+003,2.249404e+001
1.112773e+003,2.281408e+001
1.113738e+003,2.331957e+001
1.114702e+003,2.444510e+001
1.115666e+003,2.469912e+001
1.116630e+003,2.295657e+001
1.117595e+003,2.172146e+001
1.118559e+003,2.227180e+001
1.119523e+003,2.368913e+001
1.120487e+003,2.456857e+001
1.121452e+003,2.453334e+001
1.122416e+003,2.424722e+001
1.123380e+003,2.406777e+001
1.124344e+003,2.403943e+001
1.125308e+003,2.424655e+001
1.126273e+003,2.473968e+001
1.127237e+003,2.571165e+001
1.128201e+003,2.733168e+001
1.129165e+003,2.898502e+001
1.130130e+003,2.898536e+001
1.131094e+003,2.607964e+001
1.132058e+003,2.527393e+001
1.133022e+003,2.855033e+001
1.133987e+003,3.114106e+001
1.134951e+003,3.109493e+001
1.135915e+003,2.971571e+001
1.136879e+003,2.887420e+001
1.137844e+003,2.905059e+001
1.138808e+003,2.954340e+001
1.139772e+003,2.971125e+001
1.140736e+003,2.981016e+001
1.141700e+003,3.040221e+001
1.142665e+003,3.138895e+001
1.143629e+003,3.241167e+001
1.144593e+003,3.333947e+001
1.145557e+003,3.397880e+001
1.146522e+003,3.381200e+001
1.147486e+003,3.247335e+001
1.148450e+003,3.125460e+001
1.149414e+003,2.950760e+001
1.150379e+003,2.890403e+001
1.151343e+003,3.080119e+001
1.152307e+003,3.357215e+001
1.153271e+003,3.524869e+001
1.154235e+003,3.540333e+001
1.155200e+003,3.493276e+001
1.156164e+003,3.422323e+001
1.157128e+003,3.383291e+001
1.158092e+003,3.459089e+001
1.159057e+003,3.610853e+001
1.160021e+003,3.741941e+001
1.160985e+003,3.813323e+001
1.161949e+003,3.858910e+001
1.162914e+003,3.923901e+001
1.163878e+003,4.008101e+001
1.164842e+003,4.168593e+001
1.165806e+003,4.542999e+001
1.166771e+003,4.806556e+001
1.167735e+003,4.827102e+001
1.168699e+003,4.792556e+001
1.169663e+003,4.891273e+001
1.170627e+003,5.116331e+001
1.171592e+003,5.311274e+001
1.172556e+003,5.389338e+001
1.173520e+003,5.383139e+001
1.174484e+003,5.254089e+001
1.175449e+003,5.088866e+001
1.176413e+003,5.095818e+001
1.177377e+003,5.320699e+001
1.178341e+003,5.588149e+001
1.179306e+003,5.730782e+001
1.180270e+003,5.761165e+001
1.181234e+003,5.771291e+001
1.182198e+003,5.692822e+001
1.183162e+003,5.706014e+001
1.184127e+003,5.943089e+001
1.185091e+003,6.148085e+001
1.186055e+003,6.163016e+001
1.187019e+003,6.029482e+001
1.187984e+003,5.849862e+001
1.188948e+003,5.664050e+001
1.189912e+003,5.501375e+001
1.190876e+003,5.410046e+001
1.191841e+003,5.377142e+001
1.192805e+003,5.381014e+001
1.193769e+003,5.420809e+001
1.194733e+003,5.408764e+001
1.195698e+003,5.243853e+001
1.196662e+003,5.022945e+001
1.197626e+003,5.043842e+001
1.198590e+003,5.421086e+001
1.199554e+003,5.610011e+001
1.200519e+003,5.339285e+001
1.201483e+003,5.130233e+001
1.202447e+003,5.217933e+001
1.203411e+003,5.425334e+001
1.204376e+003,5.522445e+001
1.205340e+003,5.443362e+001
1.206304e+003,5.264508e+001
1.207268e+003,5.045225e+001
1.208233e+003,4.846178e+001
1.209197e+003,4.833072e+001
1.210161e+003,4.973027e+001
1.211125e+003,5.107594e+001
1.212089e+003,5.200311e+001
1.213054e+003,5.238544e+001
1.214018e+003,5.202198e+001
1.214982e+003,5.109404e+001
1.215946e+003,5.044941e+001
1.216911e+003,4.985694e+001
1.217875e+003,4.998230e+001
1.218839e+003,5.147272e+001
1.219803e+003,5.305354e+001
1.220768e+003,5.422102e+001
1.221732e+003,5.476670e+001
1.222696e+003,5.412148e+001
1.223660e+003,5.203275e+001
1.224625e+003,4.979569e+001
1.225589e+003,4.987267e+001
1.226553e+003,5.228271e+001
1.227517e+003,5.375094e+001
1.228481e+003,5.417857e+001
1.229446e+003,5.417546e+001
1.230410e+003,5.368787e+001
1.231374e+003,5.304353e+001
1.232338e+003,5.281049e+001
1.233303e+003,5.307932e+001
1.234267e+003,5.375920e+001
1.235231e+003,5.552780e+001
1.236195e+003,5.664487e+001
1.237160e+003,5.523424e+001
1.238124e+003,5.309449e+001
1.239088e+003,5.280603e+001
1.240052e+003,5.461398e+001
1.241016e+003,5.647854e+001
1.241981e+003,5.641753e+001
1.242945e+003,5.487611e+001
1.243909e+003,5.395155e+001
1.244873e+003,5.376653e+001
1.245838e+003,5.424759e+001
1.246802e+003,5.607966e+001
1.247766e+003,5.776713e+001
1.248730e+003,5.825630e+001
1.249695e+003,5.802929e+001
1.250659e+003,5.830410e+001
1.251623e+003,5.942768e+001
1.252587e+003,6.030508e+001
1.253552e+003,6.011909e+001
1.254516e+003,5.934465e+001
1.255480e+003,5.803270e+001
1.256444e+003,5.662434e+001
1.257408e+003,5.629601e+001
1.258373e+003,5.747001e+001
1.259337e+003,5.898335e+001
1.260301e+003,5.914056e+001
1.261265e+003,5.797125e+001
1.262230e+003,5.766868e+001
1.263194e+003,5.864429e+001
1.264158e+003,5.965955e+001
1.265122e+003,6.100230e+001
1.266087e+003,6.207090e+001
1.267051e+003,6.217424e+001
1.268015e+003,6.179102e+001
1.268979e+003,6.216127e+001
1.269943e+003,6.377789e+001
1.270908e+003,6.555552e+001
1.271872e+003,6.631900e+001
1.272836e+003,6.641823e+001
1.273800e+003,6.676540e+001
1.274765e+003,6.735522e+001
1.275729e+003,6.788339e+001
1.276693e+003,6.835142e+001
1.277657e+003,6.841098e+001
1.278622e+003,6.723915e+001
1.279586e+003,6.469276e+001
1.280550e+003,6.273366e+001
1.281514e+003,6.147680e+001
1.282479e+003,6.133171e+001
1.283443e+003,6.330718e+001
1.284407e+003,6.540691e+001
1.285371e+003,6.560545e+001
1.286335e+003,6.449342e+001
1.287300e+003,6.421736e+001
1.288264e+003,6.595546e+001
1.289228e+003,6.876559e+001
1.290192e+003,7.132585e+001
1.291157e+003,7.349342e+001
1.292121e+003,7.333506e+001
1.293085e+003,6.959356e+001
1.294049e+003,6.719669e+001
1.295014e+003,6.915025e+001
1.295978e+003,7.248390e+001
1.296942e+003,7.325535e+001
1.297906e+003,7.174008e+001
1.298870e+003,7.192690e+001
1.299835e+003,7.600026e+001
1.300799e+003,7.919231e+001
1.301763e+003,7.722089e+001
1.302727e+003,7.386599e+001
1.303692e+003,7.242137e+001
1.304656e+003,7.306052e+001
1.305620e+003,7.458664e+001
1.306584e+003,7.623094e+001
1.307549e+003,7.786302e+001
1.308513e+003,7.932280e+001
1.309477e+003,8.063747e+001
1.310441e+003,8.106542e+001
1.311406e+003,7.975780e+001
1.312370e+003,7.897220e+001
1.313334e+003,7.918102e+001
1.314298e+003,7.992213e+001
1.315263e+003,8.115653e+001
1.316227e+003,8.257190e+001
1.317191e+003,8.328518e+001
1.318155e+003,8.285751e+001
1.319120e+003,8.224612e+001
1.320084e+003,8.252000e+001
1.321048e+003,8.330107e+001
1.322012e+003,8.386698e+001
1.322976e+003,8.418479e+001
1.323941e+003,8.420039e+001
1.324905e+003,8.384956e+001
1.325869e+003,8.348543e+001
1.326833e+003,8.376831e+001
1.327798e+003,8.465079e+001
1.328762e+003,8.447495e+001
1.329726e+003,8.206297e+001
1.330690e+003,8.047087e+001
1.331655e+003,8.126649e+001
1.332619e+003,8.237540e+001
1.333583e+003,8.180087e+001
1.334547e+003,8.057175e+001
1.335511e+003,8.131107e+001
1.336476e+003,8.484206e+001
1.337440e+003,8.878139e+001
1.338404e+003,9.017222e+001
1.339368e+003,8.935163e+001
1.340333e+003,8.868242e+001
1.341297e+003,8.816582e+001
1.342261e+003,8.750832e+001
1.343225e+003,8.683360e+001
1.344190e+003,8.590759e+001
1.345154e+003,8.409308e+001
1.346118e+003,8.200312e+001
1.347082e+003,8.122581e+001
1.348047e+003,8.214560e+001
1.349011e+003,8.308122e+001
1.349975e+003,8.266711e+001
1.350939e+003,8.236256e+001
1.351903e+003,8.431984e+001
1.352868e+003,8.732081e+001
1.353832e+003,8.865798e+001
1.354796e+003,8.767821e+001
1.355760e+003,8.608939e+001
1.356725e+003,8.526173e+001
1.357689e+003,8.534235e+001
1.358653e+003,8.745555e+001
1.359617e+003,9.336890e+001
1.360582e+003,9.616393e+001
1.361546e+003,9.202956e+001
1.362510e+003,8.866358e+001
1.363474e+003,8.924641e+001
1.364438e+003,9.157147e+001
1.365403e+003,9.320290e+001
1.366367e+003,9.366950e+001
1.367331e+003,9.382227e+001
1.368295e+003,9.424001e+001
1.369260e+003,9.445570e+001
1.370224e+003,9.344592e+001
1.371188e+003,9.144922e+001
1.372152e+003,9.162047e+001
1.373117e+003,9.492064e+001
1.374081e+003,9.705334e+001
1.375045e+003,9.532384e+001
1.376009e+003,9.271224e+001
1.376974e+003,9.305679e+001
1.377938e+003,9.587682e+001
1.378902e+003,9.717271e+001
1.379866e+003,9.522431e+001
1.380830e+003,9.365633e+001
1.381795e+003,9.591307e+001
1.382759e+003,9.905190e+001
1.383723e+003,1.005730e+002
1.384687e+003,1.007877e+002
1.385652e+003,1.006928e+002
1.386616e+003,1.006899e+002
1.387580e+003,1.012330e+002
1.388544e+003,1.032024e+002
1.389509e+003,1.061792e+002
1.390473e+003,1.064928e+002
1.391437e+003,1.025398e+002
1.392401e+003,9.985390e+001
1.393365e+003,9.869284e+001
1.394330e+003,9.874252e+001
1.395294e+003,1.008025e+002
1.396258e+003,1.033265e+002
1.397222e+003,1.046803e+002
1.398187e+003,1.047851e+002
1.399151e+003,1.046279e+002
1.400115e+003,1.047748e+002
1.401079e+003,1.047610e+002
1.402044e+003,1.036618e+002
1.403008e+003,1.015111e+002
1.403972e+003,1.010860e+002
1.404936e+003,1.035112e+002
1.405901e+003,1.050733e+002
1.406865e+003,1.032603e+002
1.407829e+003,1.010267e+002
1.408793e+003,1.016813e+002
1.409757e+003,1.048352e+002
1.410722e+003,1.083341e+002
1.411686e+003,1.118361e+002
1.412650e+003,1.136572e+002
1.413614e+003,1.115127e+002
1.414579e+003,1.083566e+002
1.415543e+003,1.073294e+002
1.416507e+003,1.080238e+002
1.417471e+003,1.092128e+002
1.418436e+003,1.104400e+002
1.419400e+003,1.115022e+002
1.420364e+003,1.123222e+002
1.421328e+003,1.129811e+002
1.422292e+003,1.132623e+002
1.423257e+003,1.126759e+002
1.424221e+003,1.130696e+002
1.425185e+003,1.160637e+002
1.426149e+003,1.182670e+002
1.427114e+003,1.184463e+002
1.428078e+003,1.180242e+002
1.429042e+003,1.184231e+002
1.430006e+003,1.192896e+002
1.430971e+003,1.188290e+002
1.431935e+003,1.163174e+002
1.432899e+003,1.141045e+002
1.433863e+003,1.158367e+002
1.434828e+003,1.211124e+002
1.435792e+003,1.233310e+002
1.436756e+003,1.198378e+002
1.437720e+003,1.182673e+002
1.438684e+003,1.208176e+002
1.439649e+003,1.237670e+002
1.440613e+003,1.250369e+002
1.441577e+003,1.253012e+002
1.442541e+003,1.259956e+002
1.443506e+003,1.271153e+002
1.444470e+003,1.267865e+002
1.445434e+003,1.235309e+002
1.446398e+003,1.202525e+002
1.447363e+003,1.212968e+002
1.448327e+003,1.252153e+002
1.449291e+003,1.286572e+002
1.450255e+003,1.314482e+002
1.451219e+003,1.335532e+002
1.452184e+003,1.350854e+002
1.453148e+003,1.356158e+002
1.454112e+003,1.338855e+002
1.455076e+003,1.304189e+002
1.456041e+003,1.286856e+002
1.457005e+003,1.294585e+002
1.457969e+003,1.310490e+002
1.458933e+003,1.338632e+002
1.459898e+003,1.360405e+002
1.460862e+003,1.358303e+002
1.461826e+003,1.343878e+002
1.462790e+003,1.332823e+002
1.463755e+003,1.329852e+002
1.464719e+003,1.336079e+002
1.465683e+003,1.353154e+002
1.466647e+003,1.374748e+002
1.467611e+003,1.383708e+002
1.468576e+003,1.375792e+002
1.469540e+003,1.382240e+002
1.470504e+003,1.422025e+002
1.471468e+003,1.449126e+002
1.472433e+003,1.450692e+002
1.473397e+003,1.444698e+002
1.474361e+003,1.445033e+002
1.475325e+003,1.444805e+002
1.476290e+003,1.424770e+002
1.477254e+003,1.385128e+002
1.478218e+003,1.352864e+002
1.479182e+003,1.350415e+002
1.480146e+003,1.367088e+002
1.481111e+003,1.378308e+002
1.482075e+003,1.383149e+002
1.483039e+003,1.383299e+002
1.484003e+003,1.378612e+002
1.484968e+003,1.369759e+002
1.485932e+003,1.344229e+002
1.486896e+003,1.329293e+002
1.487860e+003,1.360869e+002
1.488825e+003,1.416300e+002
1.489789e+003,1.439158e+002
1.490753e+003,1.417007e+002
1.491717e+003,1.388087e+002
1.492682e+003,1.374905e+002
1.493646e+003,1.373580e+002
1.494610e+003,1.382488e+002
1.495574e+003,1.397807e+002
1.496538e+003,1.409241e+002
1.497503e+003,1.416652e+002
1.498467e+003,1.417527e+002
1.499431e+003,1.401391e+002
1.500395e+003,1.384019e+002
1.501360e+003,1.392132e+002
1.502324e+003,1.419941e+002
1.503288e+003,1.433254e+002
1.504252e+003,1.423358e+002
1.505217e+003,1.409459e+002
1.506181e+003,1.399185e+002
1.507145e+003,1.390881e+002
1.508109e+003,1.384899e+002
1.509073e+003,1.379304e+002
1.510038e+003,1.367884e+002
1.511002e+003,1.351637e+002
1.511966e+003,1.343754e+002
1.512930e+003,1.354030e+002
1.513895e+003,1.372546e+002
1.514859e+003,1.379111e+002
1.515823e+003,1.372807e+002
1.516787e+003,1.377800e+002
1.517752e+003,1.403909e+002
1.518716e+003,1.422354e+002
1.519680e+003,1.425556e+002
1.520644e+003,1.417166e+002
1.521609e+003,1.391212e+002
1.522573e+003,1.359142e+002
1.523537e+003,1.332299e+002
1.524501e+003,1.314515e+002
1.525465e+003,1.306338e+002
1.526430e+003,1.306805e+002
1.527394e+003,1.308994e+002
1.528358e+003,1.302610e+002
1.529322e+003,1.288941e+002
1.530287e+003,1.288562e+002
1.531251e+003,1.313404e+002
1.532215e+003,1.330427e+002
1.533179e+003,1.334257e+002
1.534144e+003,1.335300e+002
1.535108e+003,1.342052e+002
1.536072e+003,1.344019e+002
1.537036e+003,1.323012e+002
1.538000e+003,1.287642e+002
1.538965e+003,1.266739e+002
1.539929e+003,1.271686e+002
1.540893e+003,1.282083e+002
1.541857e+003,1.275535e+002
1.542822e+003,1.256583e+002
1.543786e+003,1.238120e+002
1.544750e+003,1.214776e+002
1.545714e+003,1.208762e+002
1.546679e+003,1.235576e+002
1.547643e+003,1.256693e+002
1.548607e+003,1.259308e+002
1.549571e+003,1.253336e+002
1.550536e+003,1.245147e+002
1.551500e+003,1.235129e+002
1.552464e+003,1.222363e+002
1.553428e+003,1.208329e+002
1.554392e+003,1.201078e+002
1.555357e+003,1.207493e+002
1.556321e+003,1.218485e+002
1.557285e+003,1.218456e+002
1.558249e+003,1.207947e+002
1.559214e+003,1.190903e+002
1.560178e+003,1.163858e+002
1.561142e+003,1.141138e+002
1.562106e+003,1.122250e+002
1.563071e+003,1.111997e+002
1.564035e+003,1.125407e+002
1.564999e+003,1.150016e+002
1.565963e+003,1.150090e+002
1.566927e+003,1.121420e+002
1.567892e+003,1.105549e+002
1.568856e+003,1.129112e+002
1.569820e+003,1.153705e+002
1.570784e+003,1.129971e+002
1.571749e+003,1.076520e+002
1.572713e+003,1.036789e+002
1.573677e+003,1.012370e+002
1.574641e+003,1.001129e+002
1.575606e+003,1.007302e+002
1.576570e+003,1.014400e+002
1.577534e+003,1.008654e+002
1.578498e+003,9.966730e+001
1.579463e+003,9.902158e+001
1.580427e+003,9.891666e+001
1.581391e+003,9.877396e+001
1.582355e+003,9.842623e+001
1.583319e+003,9.816774e+001
1.584284e+003,9.839896e+001
1.585248e+003,9.879132e+001
1.586212e+003,9.855379e+001
1.587176e+003,9.784988e+001
1.588141e+003,9.777532e+001
1.589105e+003,9.868391e+001
1.590069e+003,9.894659e+001
1.591033e+003,9.723996e+001
1.591998e+003,9.454619e+001
1.592962e+003,9.194969e+001
1.593926e+003,8.957892e+001
1.594890e+003,8.849262e+001
1.595854e+003,8.916087e+001
1.596819e+003,8.908816e+001
1.597783e+003,8.663917e+001
1.598747e+003,8.408118e+001
1.599711e+003,8.357365e+001
1.600676e+003,8.362345e+001
1.601640e+003,8.242207e+001
1.602604e+003,8.013120e+001
1.603568e+003,7.784276e+001
1.604533e+003,7.587880e+001
1.605497e+003,7.441614e+001
1.606461e+003,7.400972e+001
1.607425e+003,7.412495e+001
1.608390e+003,7.305086e+001
1.609354e+003,7.081757e+001
1.610318e+003,6.939224e+001
1.611282e+003,6.896120e+001
1.612246e+003,6.918439e+001
1.613211e+003,7.135674e+001
1.614175e+003,7.270722e+001
1.615139e+003,7.051151e+001
1.616103e+003,6.670254e+001
1.617068e+003,6.441878e+001
1.618032e+003,6.402171e+001
1.618996e+003,6.381501e+001
1.619960e+003,6.278822e+001
1.620925e+003,6.147987e+001
1.621889e+003,6.088353e+001
1.622853e+003,6.082146e+001
1.623817e+003,5.976880e+001
1.624781e+003,5.749467e+001
1.625746e+003,5.616149e+001
1.626710e+003,5.687762e+001
1.627674e+003,5.725841e+001
1.628638e+003,5.559118e+001
1.629603e+003,5.349035e+001
1.630567e+003,5.221144e+001
1.631531e+003,5.168755e+001
1.632495e+003,5.184401e+001
1.633460e+003,5.250480e+001
1.634424e+003,5.240149e+001
1.635388e+003,5.039079e+001
1.636352e+003,4.765204e+001
1.637317e+003,4.659036e+001
1.638281e+003,4.702805e+001
1.639245e+003,4.619814e+001
1.640209e+003,4.353562e+001
1.641173e+003,4.150561e+001
1.642138e+003,4.125725e+001
1.643102e+003,4.111101e+001
1.644066e+003,4.011364e+001
1.645030e+003,3.886639e+001
1.645995e+003,3.792326e+001
1.646959e+003,3.723940e+001
1.647923e+003,3.641741e+001
1.648887e+003,3.539680e+001
1.649852e+003,3.496248e+001
1.650816e+003,3.596433e+001
1.651780e+003,3.749803e+001
1.652744e+003,3.765276e+001
1.653708e+003,3.646234e+001
1.654673e+003,3.494400e+001
1.655637e+003,3.297347e+001
1.656601e+003,3.128570e+001
1.657565e+003,3.006235e+001
1.658530e+003,2.929828e+001
1.659494e+003,2.937524e+001
1.660458e+003,2.953870e+001
1.661422e+003,2.872158e+001
1.662387e+003,2.728298e+001
1.663351e+003,2.652124e+001
1.664315e+003,2.686790e+001
1.665279e+003,2.759556e+001
1.666244e+003,2.835764e+001
1.667208e+003,2.875025e+001
1.668172e+003,2.754230e+001
1.669136e+003,2.485697e+001
1.670100e+003,2.295466e+001
1.671065e+003,2.198413e+001
1.672029e+003,2.195990e+001
1.672993e+003,2.417105e+001
1.673957e+003,2.561346e+001
1.674922e+003,2.328070e+001
1.675886e+003,1.990775e+001
1.676850e+003,1.874072e+001
1.677814e+003,1.936616e+001
1.678779e+003,1.942331e+001
1.679743e+003,1.817197e+001
1.680707e+003,1.697069e+001
1.681671e+003,1.698395e+001
1.682635e+003,1.754087e+001
1.683600e+003,1.749968e+001
1.684564e+003,1.697526e+001
1.685528e+003,1.658055e+001
1.686492e+003,1.637922e+001
1.687457e+003,1.570967e+001
1.688421e+003,1.423136e+001
1.689385e+003,1.257312e+001
1.690349e+003,1.048142e+001
1.691314e+003,9.054230e+000
1.692278e+003,1.046010e+001
1.693242e+003,1.369267e+001
1.694206e+003,1.471503e+001
1.695171e+003,1.237710e+001
1.696135e+003,1.003893e+001
1.697099e+003,1.012597e+001
1.698063e+003,1.099738e+001
1.699027e+003,1.052545e+001
1.699992e+003,9.144574e+000
1.700956e+003,8.008875e+000
1.701920e+003,7.232312e+000
1.702884e+003,7.005078e+000
1.703849e+003,7.587207e+000
1.704813e+003,7.917432e+000
1.705777e+003,6.820642e+000
1.706741e+003,5.368994e+000
1.707706e+003,5.778882e+000
1.708670e+003,7.423242e+000
1.709634e+003,7.551282e+000
1.710598e+003,5.514252e+000
1.711563e+003,3.858002e+000
1.712527e+003,4.102594e+000
1.713491e+003,4.619727e+000
1.714455e+003,4.011640e+000
1.715419e+003,2.850931e+000
1.716384e+003,2.161618e+000
1.717348e+003,1.897934e+000
1.718312e+003,1.210959e+000
1.719276e+003,-1.744476e-001
1.720241e+003,-1.010300e+000
1.721205e+003,-1.879059e-001
1.722169e+003,1.044513e+000
1.723133e+003,4.684997e-001
1.724098e+003,-1.541327e+000
1.725062e+003,-2.168952e+000
1.726026e+003,-1.119357e+000
1.726990e+003,-2.685272e-001
1.727954e+003,-1.387634e-001
1.728919e+003,2.747192e-002
1.729883e+003,1.253653e+000
1.730847e+003,2.106744e+000
1.731811e+003,4.041016e-001
1.732776e+003,-2.620312e+000
1.733740e+003,-3.836786e+000
1.734704e+003,-2.864545e+000
1.735668e+003,-2.148087e+000
1.736633e+003,-3.113297e+000
1.737597e+003,-4.615970e+000
1.738561e+003,-5.160901e+000
1.739525e+003,-4.873541e+000
1.740490e+003,-4.438919e+000
1.741454e+003,-3.806222e+000
1.742418e+003,-3.326569e+000
1.743382e+003,-2.672861e+000
1.744346e+003,-2.668875e+000
1.745311e+003,-4.106509e+000
1.746275e+003,-5.487918e+000
1.747239e+003,-5.675940e+000
1.748203e+003,-5.437347e+000
1.749168e+003,-5.948178e+000
1.750132e+003,-7.023703e+000
1.751096e+003,-7.708282e+000
1.752060e+003,-7.616425e+000
1.753025e+003,-6.952157e+000
1.753989e+003,-5.859024e+000
1.754953e+003,-4.577909e+000
1.755917e+003,-3.588806e+000
1.756881e+003,-2.886017e+000
1.757846e+003,-3.228656e+000
1.758810e+003,-5.161832e+000
1.759774e+003,-6.476764e+000
1.760738e+003,-6.732208e+000
1.761703e+003,-6.585742e+000
1.762667e+003,-5.785318e+000
1.763631e+003,-5.139646e+000
1.764595e+003,-5.488489e+000
1.765560e+003,-6.330597e+000
1.766524e+003,-6.701913e+000
1.767488e+003,-6.533118e+000
1.768452e+003,-6.505536e+000
1.769417e+003,-6.959878e+000
1.770381e+003,-7.552808e+000
1.771345e+003,-8.071218e+000
1.772309e+003,-8.403131e+000
1.773273e+003,-8.016647e+000
1.774238e+003,-7.047357e+000
1.775202e+003,-7.022922e+000
1.776166e+003,-8.315283e+000
1.777130e+003,-9.077039e+000
1.778095e+003,-8.349469e+000
1.779059e+003,-7.355371e+000
1.780023e+003,-7.150601e+000
1.780987e+003,-7.343170e+000
1.781952e+003,-7.066449e+000
1.782916e+003,-6.574463e+000
1.783880e+003,-7.302216e+000
1.784844e+003,-9.904028e+000
1.785808e+003,-1.137184e+001
1.786773e+003,-9.293195e+000
1.787737e+003,-6.979449e+000
1.788701e+003,-7.427237e+000
1.789665e+003,-8.972458e+000
1.790630e+003,-8.829880e+000
1.791594e+003,-7.465539e+000
1.792558e+003,-7.526492e+000
1.793522e+003,-9.533285e+000
1.794487e+003,-1.108021e+001
1.795451e+003,-1.065074e+001
1.796415e+003,-9.092420e+000
1.797379e+003,-7.409592e+000
1.798344e+003,-5.824103e+000
1.799308e+003,-5.343011e+000
1.800272e+003,-6.362863e+000
1.801236e+003,-7.086175e+000
1.802201e+003,-7.214059e+000
1.803165e+003,-7.421631e+000
1.804129e+003,-7.981814e+000
1.805093e+003,-8.432501e+000
1.806057e+003,-8.533157e+000
1.807022e+003,-8.415817e+000
1.807986e+003,-8.154327e+000
1.808950e+003,-7.825772e+000
1.809914e+003,-7.493835e+000
1.810879e+003,-7.223733e+000
1.811843e+003,-7.156421e+000
1.812807e+003,-7.405530e+000
1.813771e+003,-7.954413e+000
1.814736e+003,-8.896518e+000
1.815700e+003,-1.003919e+001
1.816664e+003,-1.025602e+001
1.817628e+003,-9.445135e+000
1.818593e+003,-8.879791e+000
1.819557e+003,-8.685455e+000
1.820521e+003,-8.670654e+000
1.821485e+003,-8.915934e+000
1.822449e+003,-9.155194e+000
1.823414e+003,-9.416812e+000
1.824378e+003,-9.488363e+000
1.825342e+003,-8.744110e+000
1.826306e+003,-7.471872e+000
1.827271e+003,-6.991324e+000
1.828235e+003,-7.679269e+000
1.829199e+003,-8.231112e+000
1.830163e+003,-7.668836e+000
1.831128e+003,-7.077283e+000
1.832092e+003,-7.752469e+000
1.833056e+003,-8.782419e+000
1.834020e+003,-8.567148e+000
1.834984e+003,-7.414783e+000
1.835949e+003,-6.468677e+000
1.836913e+003,-6.024814e+000
1.837877e+003,-6.411011e+000
1.838841e+003,-7.880487e+000
1.839806e+003,-9.291840e+000
1.840770e+003,-9.356997e+000
1.841734e+003,-8.408981e+000
1.842698e+003,-7.344559e+000
1.843663e+003,-6.072464e+000
1.844627e+003,-5.137305e+000
1.845591e+003,-4.013547e+000
1.846555e+003,-4.157193e+000
1.847520e+003,-7.217972e+000
1.848484e+003,-9.538172e+000
1.849448e+003,-9.137976e+000
1.850412e+003,-7.949744e+000
1.851376e+003,-7.636887e+000
1.852341e+003,-7.762216e+000
1.853305e+003,-7.169235e+000
1.854269e+003,-5.922198e+000
1.855233e+003,-5.118915e+000
1.856198e+003,-5.241956e+000
1.857162e+003,-5.773163e+000
1.858126e+003,-6.350137e+000
1.859090e+003,-6.742242e+000
1.860055e+003,-6.275461e+000
1.861019e+003,-5.211874e+000
1.861983e+003,-5.177899e+000
1.862947e+003,-6.290225e+000
1.863911e+003,-6.376004e+000
1.864876e+003,-4.654569e+000
1.865840e+003,-2.883179e+000
1.866804e+003,-1.792072e+000
1.867768e+003,-1.568005e+000
1.868733e+003,-3.225000e+000
1.869697e+003,-5.659958e+000
1.870661e+003,-5.154312e+000
1.871625e+003,-1.691510e+000
1.872590e+003,1.507416e-001
1.873554e+003,-8.901428e-001
1.874518e+003,-1.952188e+000
1.875482e+003,-2.246710e+000
1.876447e+003,-2.312152e+000
1.877411e+003,-2.452368e+000
1.878375e+003,-2.526208e+000
1.879339e+003,-2.162585e+000
1.880303e+003,-1.736359e+000
1.881268e+003,-2.124381e+000
1.882232e+003,-3.314969e+000
1.883196e+003,-4.347003e+000
1.884160e+003,-4.700498e+000
1.885125e+003,-4.872507e+000
1.886089e+003,-5.506228e+000
1.887053e+003,-6.210663e+000
1.888017e+003,-5.569913e+000
1.888982e+003,-3.540228e+000
1.889946e+003,-2.797983e+000
1.890910e+003,-3.666131e+000
1.891874e+003,-4.151312e+000
1.892839e+003,-3.763406e+000
1.893803e+003,-3.358517e+000
1.894767e+003,-3.649789e+000
1.895731e+003,-3.634579e+000
1.896695e+003,-1.807394e+000
1.897660e+003,6.073883e-001
1.898624e+003,1.457422e+000
1.899588e+003,8.297821e-001
1.900552e+003,1.385498e-001
1.901517e+003,-5.524170e-001
1.902481e+003,-6.588562e-001
1.903445e+003,9.149323e-001
1.904409e+003,2.159338e+000
1.905374e+003,1.458194e+000
1.906338e+003,1.092224e-002
1.907302e+003,-1.083572e+000
1.908266e+003,-1.747528e+000
1.909230e+003,-1.875305e+000
1.910195e+003,-1.640784e+000
1.911159e+003,-1.806702e+000
1.912123e+003,-2.622629e+000
1.913087e+003,-3.074280e+000
1.914052e+003,-2.172800e+000
1.915016e+003,-8.187866e-001
1.915980e+003,-9.458923e-001
1.916944e+003,-2.405441e+000
1.917909e+003,-3.323386e+000
1.918873e+003,-3.710959e+000
1.919837e+003,-3.244324e+000
1.920801e+003,-1.411832e+000
1.921766e+003,-9.225769e-002
1.922730e+003,-1.129730e-001
1.923694e+003,-6.324615e-001
1.924658e+003,-1.457019e+000
1.925622e+003,-2.103448e+000
1.926587e+003,-1.595630e+000
1.927551e+003,-4.048737e-001
1.928515e+003,-3.816284e-001
1.929479e+003,-1.840308e+000
1.930444e+003,-2.956473e+000
1.931408e+003,-3.267703e+000
1.932372e+003,-3.115918e+000
1.933336e+003,-2.228921e+000
1.934301e+003,-1.382816e+000
1.935265e+003,-1.607861e+000
1.936229e+003,-1.993729e+000
1.937193e+003,-7.867645e-001
1.938157e+003,1.330038e+000
1.939122e+003,2.189932e+000
1.940086e+003,1.320364e+000
1.941050e+003,-3.492462e-001
1.942014e+003,-2.217288e+000
1.942979e+003,-3.394794e+000
1.943943e+003,-2.619449e+000
1.944907e+003,-7.126617e-001
1.945871e+003,-1.455231e-001
1.946836e+003,-7.992493e-001
1.947800e+003,-3.837982e-001
1.948764e+003,1.354977e+000
1.949728e+003,1.548053e+000
1.950693e+003,-9.464966e-001
1.951657e+003,-2.930087e+000
1.952621e+003,-2.677878e+000
1.953585e+003,-1.578436e+000
1.954549e+003,-6.101685e-001
1.955514e+003,3.052979e-002
1.956478e+003,-4.103699e-001
1.957442e+003,-1.810281e+000
1.958406e+003,-2.080762e+000
1.959371e+003,-5.426544e-001
1.960335e+003,2.928863e-001
1.961299e+003,-7.724029e-001
1.962263e+003,-1.333643e+000
1.963228e+003,5.114441e-002
1.964192e+003,1.509631e+000
1.965156e+003,1.499426e+000
1.966120e+003,9.388397e-001
1.967084e+003,1.070633e+000
1.968049e+003,1.838364e+000
1.969013e+003,2.707489e+000
1.969977e+003,3.425433e+000
1.970941e+003,3.830469e+000
1.971906e+003,3.851160e+000
1.972870e+003,3.423541e+000
1.973834e+003,2.200134e+000
1.974798e+003,7.750122e-001
1.975763e+003,9.145202e-002
1.976727e+003,2.309876e-002
1.977691e+003,4.260773e-001
1.978655e+003,1.167020e+000
1.979620e+003,1.603113e+000
1.980584e+003,1.626749e+000
1.981548e+003,1.604764e+000
1.982512e+003,1.696271e+000
1.983476e+003,1.751801e+000
1.984441e+003,1.600208e+000
1.985405e+003,1.490372e+000
1.986369e+003,2.159720e+000
1.987333e+003,3.595831e+000
1.988298e+003,3.297186e+000
1.989262e+003,-3.170776e-003
1.990226e+003,-1.518631e+000
1.991190e+003,-4.241547e-001
1.992155e+003,1.299222e+000
1.993119e+003,4.308722e+000
1.994083e+003,6.464166e+000
1.995047e+003,6.015943e+000
1.996011e+003,4.675409e+000
1.996976e+003,3.959674e+000
1.997940e+003,3.871918e+000
1.998904e+003,4.387000e+000
1.999868e+003,5.450238e+000
2.000833e+003,6.127179e+000
2.001797e+003,6.011041e+000
2.002761e+003,5.849646e+000
2.003725e+003,5.935297e+000
2.004690e+003,6.098706e+000
2.005654e+003,6.366272e+000
2.006618e+003,6.533099e+000
2.007582e+003,6.272729e+000
2.008547e+003,5.842157e+000
2.009511e+003,5.967029e+000
2.010475e+003,6.366370e+000
2.011439e+003,5.533063e+000
2.012403e+003,3.193112e+000
2.013368e+003,1.479746e+000
2.014332e+003,1.976978e+000
2.015296e+003,3.341101e+000
2.016260e+003,3.806915e+000
2.017225e+003,3.831872e+000
2.018189e+003,4.696496e+000
2.019153e+003,6.028949e+000
2.020117e+003,6.259521e+000
2.021082e+003,5.359100e+000
2.022046e+003,4.329846e+000
2.023010e+003,3.475537e+000
2.023974e+003,3.485107e+000
2.024938e+003,4.812903e+000
2.025903e+003,5.820422e+000
2.026867e+003,4.712280e+000
2.027831e+003,2.428030e+000
2.028795e+003,1.152304e+000
2.029760e+003,9.058899e-001
2.030724e+003,1.352759e+000
2.031688e+003,2.802826e+000
2.032652e+003,3.540002e+000
2.033617e+003,3.219302e+000
2.034581e+003,2.872333e+000
2.035545e+003,2.550205e+000
2.036509e+003,2.685727e+000
2.037474e+003,3.699695e+000
2.038438e+003,4.962293e+000
2.039402e+003,6.137958e+000
2.040366e+003,7.022986e+000
2.041330e+003,7.055072e+000
2.042295e+003,6.272931e+000
2.043259e+003,5.407819e+000
2.044223e+003,4.259717e+000
2.045187e+003,3.734814e+000
2.046152e+003,4.223413e+000
2.047116e+003,5.029767e+000
2.048080e+003,6.842810e+000
2.049044e+003,7.780725e+000
2.050009e+003,5.432288e+000
2.050973e+003,2.406216e+000
2.051937e+003,1.950134e+000
2.052901e+003,3.412952e+000
2.053865e+003,4.809979e+000
2.054830e+003,5.550952e+000
2.055794e+003,5.546661e+000
2.056758e+003,4.709656e+000
2.057722e+003,3.669141e+000
2.058687e+003,2.394290e+000
2.059651e+003,1.755295e+000
2.060615e+003,3.497272e+000
2.061579e+003,5.609656e+000
2.062544e+003,4.885767e+000
2.063508e+003,2.648657e+000
2.064472e+003,2.055368e+000
2.065436e+003,3.056232e+000
2.066401e+003,3.527582e+000
2.067365e+003,2.878723e+000
2.068329e+003,2.433395e+000
2.069293e+003,3.035458e+000
2.070258e+003,3.734692e+000
2.071222e+003,3.265433e+000
2.072186e+003,2.495410e+000
2.073150e+003,3.679230e+000
2.074115e+003,6.178144e+000
2.075079e+003,7.043170e+000
2.076043e+003,6.365594e+000
2.077007e+003,5.922418e+000
2.077971e+003,6.021399e+000
2.078936e+003,6.090881e+000
2.079900e+003,5.901550e+000
2.080864e+003,5.571759e+000
2.081828e+003,5.152600e+000
2.082792e+003,5.059387e+000
2.083757e+003,5.982794e+000
2.084721e+003,7.396960e+000
2.085685e+003,7.374664e+000
2.086649e+003,5.863330e+000
2.087614e+003,4.855261e+000
2.088578e+003,4.401581e+000
2.089542e+003,4.285596e+000
2.090506e+003,4.585779e+000
2.091471e+003,4.677905e+000
2.092435e+003,4.270569e+000
2.093399e+003,3.929480e+000
2.094363e+003,4.042426e+000
2.095328e+003,4.390649e+000
2.096292e+003,4.685431e+000
2.097256e+003,4.928107e+000
2.098220e+003,5.289350e+000
2.099185e+003,5.879102e+000
2.100149e+003,6.023730e+000
2.101113e+003,5.477362e+000
2.102077e+003,4.844134e+000
2.103042e+003,3.899225e+000
2.104006e+003,3.210873e+000
2.104970e+003,2.631219e+000
2.105934e+003,2.695587e+000
2.106898e+003,4.232080e+000
2.107863e+003,6.060242e+000
2.108827e+003,7.349518e+000
2.109791e+003,7.918457e+000
2.110755e+003,6.934155e+000
2.111719e+003,4.520325e+000
2.112684e+003,3.630231e+000
2.113648e+003,5.468622e+000
2.114612e+003,6.653211e+000
2.115576e+003,6.100085e+000
2.116541e+003,5.237378e+000
2.117505e+003,3.947205e+000
2.118469e+003,3.276190e+000
2.119433e+003,4.590009e+000
2.120398e+003,6.242163e+000
2.121362e+003,6.382349e+000
2.122326e+003,5.546350e+000
2.123290e+003,4.666156e+000
2.124255e+003,4.171869e+000
2.125219e+003,5.368512e+000
2.126183e+003,8.858673e+000
2.127147e+003,1.048196e+001
2.128112e+003,6.592993e+000
2.129076e+003,3.175061e+000
2.130040e+003,4.054944e+000
2.131004e+003,5.980023e+000
2.131969e+003,6.971320e+000
2.132933e+003,7.005866e+000
2.133897e+003,5.688531e+000
2.134861e+003,3.922223e+000
2.135825e+003,3.094800e+000
2.136790e+003,3.267929e+000
2.137754e+003,3.846851e+000
2.138718e+003,4.591003e+000
2.139682e+003,5.207782e+000
2.140646e+003,5.472363e+000
2.141611e+003,5.801080e+000
2.142575e+003,6.799512e+000
2.143539e+003,7.661822e+000
2.144503e+003,7.267316e+000
2.145468e+003,6.580401e+000
2.146432e+003,7.124621e+000
2.147396e+003,8.259771e+000
2.148360e+003,8.433954e+000
2.149325e+003,7.759491e+000
2.150289e+003,7.625098e+000
2.151253e+003,8.248260e+000
2.152217e+003,7.992279e+000
2.153182e+003,5.918836e+000
2.154146e+003,4.274078e+000
2.155110e+003,5.677002e+000
2.156074e+003,7.840320e+000
2.157039e+003,7.569342e+000
2.158003e+003,6.190362e+000
2.158967e+003,5.850928e+000
2.159931e+003,6.276459e+000
2.160896e+003,6.661914e+000
2.161860e+003,6.874939e+000
2.162824e+003,6.965210e+000
2.163788e+003,6.962305e+000
2.164752e+003,7.011847e+000
2.165717e+003,7.142438e+000
2.166681e+003,6.743945e+000
2.167645e+003,5.112048e+000
2.168609e+003,3.464319e+000
2.169573e+003,3.648865e+000
2.170538e+003,4.948352e+000
2.171502e+003,6.283850e+000
2.172466e+003,7.396265e+000
2.173430e+003,7.552673e+000
2.174395e+003,7.053406e+000
2.175359e+003,7.030042e+000
2.176323e+003,7.566718e+000
2.177287e+003,7.825690e+000
2.178252e+003,7.479761e+000
2.179216e+003,6.946027e+000
2.180180e+003,6.544543e+000
2.181144e+003,6.101709e+000
2.182109e+003,5.159045e+000
2.183073e+003,4.333801e+000
2.184037e+003,5.301776e+000
2.185001e+003,7.176867e+000
2.185966e+003,7.744494e+000
2.186930e+003,7.255591e+000
2.187894e+003,6.645538e+000
2.188858e+003,6.083502e+000
2.189823e+003,5.471045e+000
2.190787e+003,4.783380e+000
2.191751e+003,4.398401e+000
2.192715e+003,4.520325e+000
2.193679e+003,4.255328e+000
2.194644e+003,2.518924e+000
2.195608e+003,1.018246e+000
2.196572e+003,3.381314e+000
2.197536e+003,7.617676e+000
2.198500e+003,8.779882e+000
2.199465e+003,7.732684e+000
2.200429e+003,6.565576e+000
2.201393e+003,5.674262e+000
2.202357e+003,5.859674e+000
2.203322e+003,7.008752e+000
2.204286e+003,7.784381e+000
2.205250e+003,7.701599e+000
2.206214e+003,7.329547e+000
2.207179e+003,7.060419e+000
2.208143e+003,7.150177e+000
2.209107e+003,8.088885e+000
2.210071e+003,9.144549e+000
2.211036e+003,8.709692e+000
2.212000e+003,7.489007e+000
2.212964e+003,7.308642e+000
2.213928e+003,7.797302e+000
2.214893e+003,7.455225e+000
2.215857e+003,6.581152e+000
2.216821e+003,7.144183e+000
2.217785e+003,9.264893e+000
2.218750e+003,1.061985e+001
2.219714e+003,1.025576e+001
2.220678e+003,1.026678e+001
2.221642e+003,1.244224e+001
2.222606e+003,1.517731e+001
2.223571e+003,1.624737e+001
2.224535e+003,1.650045e+001
2.225499e+003,1.769319e+001
2.226463e+003,1.912603e+001
2.227427e+003,1.870901e+001
2.228392e+003,1.744965e+001
2.229356e+003,1.870651e+001
2.230320e+003,2.205208e+001
2.231284e+003,2.402881e+001
2.232249e+003,2.385374e+001
2.233213e+003,2.384860e+001
2.234177e+003,2.518845e+001
2.235141e+003,2.605065e+001
2.236106e+003,2.443596e+001
2.237070e+003,2.294879e+001
2.238034e+003,2.513558e+001
2.238998e+003,2.895865e+001
2.239963e+003,3.176127e+001
2.240927e+003,3.408884e+001
2.241891e+003,3.692300e+001
2.242855e+003,4.023826e+001
2.243820e+003,4.416328e+001
2.244784e+003,4.813593e+001
2.245748e+003,5.032789e+001
2.246712e+003,5.053955e+001
2.247677e+003,5.105592e+001
2.248641e+003,5.311619e+001
2.249605e+003,5.555712e+001
2.250569e+003,5.795208e+001
2.251533e+003,5.947429e+001
2.252498e+003,5.868350e+001
2.253462e+003,5.728358e+001
2.254426e+003,5.713889e+001
2.255390e+003,5.753693e+001
2.256354e+003,5.770734e+001
2.257319e+003,5.733735e+001
2.258283e+003,5.619601e+001
2.259247e+003,5.429760e+001
2.260211e+003,5.167756e+001
2.261176e+003,4.840431e+001
2.262140e+003,4.486712e+001
2.263104e+003,4.110445e+001
2.264068e+003,3.745982e+001
2.265033e+003,3.388281e+001
2.265997e+003,3.081905e+001
2.266961e+003,2.861360e+001
2.267925e+003,2.691210e+001
2.268890e+003,2.562324e+001
2.269854e+003,2.452222e+001
2.270818e+003,2.381746e+001
2.271782e+003,2.293727e+001
2.272747e+003,2.048561e+001
2.273711e+003,1.701900e+001
2.274675e+003,1.506122e+001
2.275639e+003,1.511221e+001
2.276604e+003,1.494092e+001
2.277568e+003,1.389287e+001
2.278532e+003,1.277928e+001
2.279496e+003,1.167411e+001
2.280460e+003,1.060353e+001
2.281425e+003,9.709900e+000
2.282389e+003,8.706439e+000
2.283353e+003,6.958185e+000
2.284317e+003,5.571320e+000
2.285281e+003,5.916003e+000
2.286246e+003,7.118299e+000
2.287210e+003,7.829431e+000
2.288174e+003,7.979883e+000
2.289138e+003,7.471344e+000
2.290103e+003,6.146973e+000
2.291067e+003,4.985705e+000
2.292031e+003,3.704422e+000
2.292995e+003,3.187698e+000
2.293960e+003,4.121732e+000
2.294924e+003,4.511346e+000
2.295888e+003,3.775192e+000
2.296852e+003,2.590613e+000
2.297817e+003,7.853821e-001
2.298781e+003,-3.585297e-001
2.299745e+003,7.222534e-001
2.300709e+003,2.594367e+000
2.301674e+003,2.705447e+000
2.302638e+003,1.415714e+000
2.303602e+003,6.263000e-001
2.304566e+003,3.325104e-001
2.305531e+003,2.399170e-001
2.306495e+003,4.366974e-001
2.307459e+003,5.697418e-001
2.308423e+003,6.007996e-001
2.309387e+003,2.345581e-001
2.310352e+003,-6.771637e-001
2.311316e+003,-1.001251e+000
2.312280e+003,-1.153625e-001
2.313244e+003,7.282807e-001
2.314208e+003,4.142486e-001
2.315173e+003,-1.732971e-001
2.316137e+003,4.485748e-001
2.317101e+003,1.433484e+000
2.318065e+003,-8.583069e-002
2.319030e+003,-3.104758e+000
2.319994e+003,-3.272708e+000
2.320958e+003,-1.291617e+000
2.321922e+003,1.187134e-002
2.322887e+003,3.406219e-001
2.323851e+003,-3.177185e-002
2.324815e+003,-9.768555e-001
2.325779e+003,-2.540814e+000
2.326744e+003,-4.536111e+000
2.327708e+003,-5.804334e+000
2.328672e+003,-5.600986e+000
2.329636e+003,-4.952533e+000
2.330601e+003,-4.573148e+000
2.331565e+003,-4.643686e+000
2.332529e+003,-5.824014e+000
2.333493e+003,-7.115241e+000
2.334458e+003,-7.220218e+000
2.335422e+003,-6.779947e+000
2.336386e+003,-6.771576e+000
2.337350e+003,-6.885211e+000
2.338314e+003,-6.031980e+000
2.339279e+003,-4.727930e+000
2.340243e+003,-5.056961e+000
2.341207e+003,-7.139169e+000
2.342171e+003,-8.068622e+000
2.343135e+003,-6.544208e+000
2.344100e+003,-5.721216e+000
2.345064e+003,-7.719543e+000
2.346028e+003,-9.181274e+000
2.346992e+003,-8.440695e+000
2.347957e+003,-7.542773e+000
2.348921e+003,-7.388577e+000
2.349885e+003,-7.559619e+000
2.350849e+003,-7.936944e+000
2.351814e+003,-8.332418e+000
2.352778e+003,-8.727130e+000
2.353742e+003,-8.870468e+000
2.354706e+003,-7.883560e+000
2.355671e+003,-5.902978e+000
2.356635e+003,-5.294339e+000
2.357599e+003,-6.533225e+000
2.358563e+003,-7.130658e+000
2.359528e+003,-6.739801e+000
2.360492e+003,-7.004086e+000
2.361456e+003,-8.393023e+000
2.362420e+003,-9.042865e+000
2.363385e+003,-8.186267e+000
2.364349e+003,-7.809030e+000
2.365313e+003,-9.087512e+000
2.366277e+003,-1.029085e+001
2.367241e+003,-9.764148e+000
2.368206e+003,-8.679812e+000
2.369170e+003,-8.988256e+000
2.370134e+003,-1.010427e+001
2.371098e+003,-1.036467e+001
2.372063e+003,-9.921976e+000
2.373027e+003,-9.098569e+000
2.373991e+003,-8.134262e+000
2.374955e+003,-8.156958e+000
2.375919e+003,-8.978201e+000
2.376884e+003,-9.603473e+000
2.377848e+003,-9.756964e+000
2.378812e+003,-9.113050e+000
2.379776e+003,-7.807752e+000
2.380741e+003,-7.483572e+000
2.381705e+003,-9.090137e+000
2.382669e+003,-1.043722e+001
2.383633e+003,-9.665207e+000
2.384598e+003,-8.393255e+000
2.385562e+003,-7.741574e+000
2.386526e+003,-7.378034e+000
2.387490e+003,-6.875656e+000
2.388455e+003,-6.594531e+000
2.389419e+003,-7.095828e+000
2.390383e+003,-7.883063e+000
2.391347e+003,-8.264496e+000
2.392312e+003,-8.426974e+000
2.393276e+003,-9.001401e+000
2.394240e+003,-9.945392e+000
2.395204e+003,-1.054860e+001
2.396168e+003,-1.083878e+001
2.397133e+003,-1.016481e+001
2.398097e+003,-7.503961e+000
2.399061e+003,-5.848493e+000
2.400025e+003,-5.704611e+000
2.400990e+003,-5.809927e+000
2.401954e+003,-5.971509e+000
2.402918e+003,-6.071600e+000
2.403882e+003,-5.980512e+000
2.404846e+003,-6.129745e+000
2.405811e+003,-6.994711e+000
2.406775e+003,-7.659863e+000
2.407739e+003,-6.724750e+000
2.408703e+003,-5.036066e+000
2.409668e+003,-4.959943e+000
2.410632e+003,-6.121533e+000
2.411596e+003,-6.845788e+000
2.412560e+003,-7.090213e+000
2.413525e+003,-6.243863e+000
2.414489e+003,-4.671631e+000
2.415453e+003,-3.773392e+000
2.416417e+003,-3.752795e+000
2.417382e+003,-4.683334e+000
2.418346e+003,-6.284757e+000
2.419310e+003,-7.369592e+000
2.420274e+003,-7.393802e+000
2.421239e+003,-6.468585e+000
2.422203e+003,-4.192529e+000
2.423167e+003,-2.620386e+000
2.424131e+003,-3.930768e+000
2.425095e+003,-5.476596e+000
2.426060e+003,-5.620084e+000
2.427024e+003,-5.232932e+000
2.427988e+003,-4.818713e+000
2.428952e+003,-4.389563e+000
2.429917e+003,-3.911685e+000
2.430881e+003,-3.364362e+000
2.431845e+003,-2.392819e+000
2.432809e+003,-1.420776e+000
2.433773e+003,-2.183582e+000
2.434738e+003,-4.653750e+000
2.435702e+003,-5.346881e+000
2.436666e+003,-3.488763e+000
2.437630e+003,-2.774326e+000
2.438595e+003,-3.748437e+000
2.439559e+003,-3.354871e+000
2.440523e+003,-8.820282e-001
2.441487e+003,7.516266e-001
2.442452e+003,6.197998e-001
2.443416e+003,6.109314e-002
2.444380e+003,-2.293823e-001
2.445344e+003,-1.117188e-001
2.446309e+003,5.549622e-001
2.447273e+003,1.189563e+000
2.448237e+003,6.899597e-001
2.449201e+003,4.064697e-001
2.450166e+003,3.965662e+000
2.451130e+003,8.167066e+000
2.452094e+003,7.297870e+000
2.453058e+003,3.809491e+000
2.454022e+003,7.576294e-001
2.454987e+003,-1.166141e+000
2.455951e+003,-1.098538e+000
2.456915e+003,3.063690e-001
2.457879e+003,1.625912e+000
2.458844e+003,2.514657e+000
2.459808e+003,2.773956e+000
2.460772e+003,2.222232e+000
2.461736e+003,1.990155e+000
2.462700e+003,2.511969e+000
2.463665e+003,2.935104e+000
2.464629e+003,3.116870e+000
2.465593e+003,3.502780e+000
2.466557e+003,4.526459e+000
2.467522e+003,4.854083e+000
2.468486e+003,3.678635e+000
2.469450e+003,2.407294e+000
2.470414e+003,1.941321e+000
2.471379e+003,2.373318e+000
2.472343e+003,3.942981e+000
2.473307e+003,5.770227e+000
2.474271e+003,6.057324e+000
2.475236e+003,5.146884e+000
2.476200e+003,3.560559e+000
2.477164e+003,1.968018e+000
2.478128e+003,3.087704e+000
2.479093e+003,5.661087e+000
2.480057e+003,6.055548e+000
2.481021e+003,4.669336e+000
2.481985e+003,3.579501e+000
2.482949e+003,3.236063e+000
2.483914e+003,3.259256e+000
2.484878e+003,3.530908e+000
2.485842e+003,4.256934e+000
2.486806e+003,5.660398e+000
2.487771e+003,6.746936e+000
2.488735e+003,7.317090e+000
2.489699e+003,7.272467e+000
2.490663e+003,5.425348e+000
2.491627e+003,4.588006e+000
2.492592e+003,6.767322e+000
2.493556e+003,8.655176e+000
2.494520e+003,8.567469e+000
2.495484e+003,7.827563e+000
2.496449e+003,7.331842e+000
2.497413e+003,7.168982e+000
2.498377e+003,7.523981e+000
2.499341e+003,8.273462e+000
2.500306e+003,9.264124e+000
2.501270e+003,1.028383e+001
2.502234e+003,9.663574e+000
2.503198e+003,8.279139e+000
2.504163e+003,1.004838e+001
2.505127e+003,1.361595e+001
2.506091e+003,1.411789e+001
2.507055e+003,1.216479e+001
2.508020e+003,1.149647e+001
2.508984e+003,1.256549e+001
2.509948e+003,1.333666e+001
2.510912e+003,1.323320e+001
2.511876e+003,1.370436e+001
2.512841e+003,1.562258e+001
2.513805e+003,1.689637e+001
2.514769e+003,1.614910e+001
2.515733e+003,1.571881e+001
2.516698e+003,1.663493e+001
2.517662e+003,1.721659e+001
2.518626e+003,1.648986e+001
2.519590e+003,1.637226e+001
2.520554e+003,1.796936e+001
2.521519e+003,2.010684e+001
2.522483e+003,2.185146e+001
2.523447e+003,2.327132e+001
2.524411e+003,2.449981e+001
2.525376e+003,2.559649e+001
2.526340e+003,2.652839e+001
2.527304e+003,2.737329e+001
2.528268e+003,2.877877e+001
2.529233e+003,3.028000e+001
2.530197e+003,3.024474e+001
2.531161e+003,2.958379e+001
2.532125e+003,3.028226e+001
2.533090e+003,3.227043e+001
2.534054e+003,3.511942e+001
2.535018e+003,3.835572e+001
2.535982e+003,4.101769e+001
2.536947e+003,4.284374e+001
2.537911e+003,4.350099e+001
2.538875e+003,4.207211e+001
2.539839e+003,4.193255e+001
2.540803e+003,4.442105e+001
2.541768e+003,4.666820e+001
2.542732e+003,4.835372e+001
2.543696e+003,4.997547e+001
2.544660e+003,5.194054e+001
2.545625e+003,5.298458e+001
2.546589e+003,5.239016e+001
2.547553e+003,5.196957e+001
2.548517e+003,5.310955e+001
2.549482e+003,5.413350e+001
2.550446e+003,5.296852e+001
2.551410e+003,5.128682e+001
2.552374e+003,5.197243e+001
2.553339e+003,5.345345e+001
2.554303e+003,5.359823e+001
2.555267e+003,5.305870e+001
2.556231e+003,5.259074e+001
2.557196e+003,5.202642e+001
2.558160e+003,5.137883e+001
2.559124e+003,5.019201e+001
2.560088e+003,4.700785e+001
2.561052e+003,4.287717e+001
2.562017e+003,4.164896e+001
2.562981e+003,4.328782e+001
2.563945e+003,4.290200e+001
2.564909e+003,3.990285e+001
2.565874e+003,3.815705e+001
2.566838e+003,3.793576e+001
2.567802e+003,3.703657e+001
2.568766e+003,3.528802e+001
2.569730e+003,3.404745e+001
2.570695e+003,3.347645e+001
2.571659e+003,3.213424e+001
2.572623e+003,2.968439e+001
2.573587e+003,2.787748e+001
2.574552e+003,2.760553e+001
2.575516e+003,2.671078e+001
2.576480e+003,2.326134e+001
2.577444e+003,2.044019e+001
2.578409e+003,2.139180e+001
2.579373e+003,2.193373e+001
2.580337e+003,1.893670e+001
2.581301e+003,1.616574e+001
2.582266e+003,1.599598e+001
2.583230e+003,1.662870e+001
2.584194e+003,1.685756e+001
2.585158e+003,1.704414e+001
2.586123e+003,1.771082e+001
2.587087e+003,1.828246e+001
2.588051e+003,1.768248e+001
2.589015e+003,1.638108e+001
2.589979e+003,1.599472e+001
2.590944e+003,1.610479e+001
2.591908e+003,1.505472e+001
2.592872e+003,1.316176e+001
2.593836e+003,1.087773e+001
2.594801e+003,8.686414e+000
2.595765e+003,7.393741e+000
2.596729e+003,6.914545e+000
2.597693e+003,7.140579e+000
2.598657e+003,7.659110e+000
2.599622e+003,7.308423e+000
2.600586e+003,5.884653e+000
2.601550e+003,4.290381e+000
2.602514e+003,2.238412e+000
2.603479e+003,1.305899e+000
2.604443e+003,1.642041e+000
2.605407e+003,2.896771e+000
2.606371e+003,5.506040e+000
2.607336e+003,6.048227e+000
2.608300e+003,3.721979e+000
2.609264e+003,1.886899e+000
2.610228e+003,1.780453e+000
2.611193e+003,2.234439e+000
2.612157e+003,2.549783e+000
2.613121e+003,2.435895e+000
2.614085e+003,1.518344e+000
2.615050e+003,6.771210e-001
2.616014e+003,6.586822e-001
2.616978e+003,9.323273e-001
2.617942e+003,1.610263e+000
2.618906e+003,1.961203e+000
2.619871e+003,1.712451e+000
2.620835e+003,6.853882e-001
2.621799e+003,-2.567621e+000
2.622763e+003,-4.674719e+000
2.623728e+003,-1.807104e+000
2.624692e+003,2.581348e+000
2.625656e+003,2.967334e+000
2.626620e+003,7.182465e-001
2.627584e+003,-8.930572e-001
2.628549e+003,-1.812860e+000
2.629513e+003,-1.382053e+000
2.630477e+003,-3.779205e-001
2.631441e+003,-7.785248e-001
2.632406e+003,-1.802231e+000
2.633370e+003,-1.685492e+000
2.634334e+003,-8.289032e-001
2.635298e+003,-5.722564e-001
2.636263e+003,-7.671936e-001
2.637227e+003,-1.688843e-002
2.638191e+003,1.720541e+000
2.639155e+003,1.840735e+000
2.640120e+003,-6.627502e-002
2.641084e+003,-1.382870e+000
2.642048e+003,-2.235074e+000
2.643012e+003,-1.721097e+000
2.643977e+003,2.451141e-001
2.644941e+003,1.362570e+000
2.645905e+003,1.305725e+000
2.646869e+003,8.001312e-001
2.647833e+003,1.473968e-001
2.648798e+003,-3.683411e-001
2.649762e+003,-6.114563e-001
2.650726e+003,-5.432984e-001
2.651690e+003,-3.296509e-002
2.652655e+003,1.108643e-001
2.653619e+003,-1.001486e+000
2.654583e+003,-1.644742e+000
2.655547e+003,-7.430938e-001
2.656511e+003,-2.845062e-001
2.657476e+003,-1.204340e+000
2.658440e+003,-1.575394e+000
2.659404e+003,-3.802857e-001
2.660368e+003,3.558350e-001
2.661333e+003,-7.357056e-001
2.662297e+003,-1.842740e+000
2.663261e+003,-1.133740e+000
2.664225e+003,-2.956024e-001
2.665190e+003,-1.890860e+000
2.666154e+003,-3.933044e+000
2.667118e+003,-4.186975e+000
2.668082e+003,-3.663602e+000
2.669047e+003,-3.073163e+000
2.670011e+003,-2.437540e+000
2.670975e+003,-1.525702e+000
2.671939e+003,-7.810639e-001
2.672904e+003,-7.752960e-001
2.673868e+003,-9.812958e-001
2.674832e+003,-5.977631e-001
2.675796e+003,-9.829712e-002
2.676760e+003,-7.963928e-001
2.677725e+003,-2.316986e+000
2.678689e+003,-3.391254e+000
2.679653e+003,-3.806537e+000
2.680617e+003,-2.244568e+000
2.681582e+003,-5.747681e-002
2.682546e+003,-1.042969e-001
2.683510e+003,-1.571597e+000
2.684474e+003,-2.979623e+000
2.685438e+003,-3.804986e+000
2.686403e+003,-3.115735e+000
2.687367e+003,-1.251556e+000
2.688331e+003,-8.611603e-001
2.689295e+003,-2.023230e+000
2.690260e+003,-2.190909e+000
2.691224e+003,-1.226959e+000
2.692188e+003,-6.923615e-001
2.693152e+003,-6.125580e-001
2.694117e+003,-1.434937e-001
2.695081e+003,6.333649e-001
2.696045e+003,5.845276e-001
2.697009e+003,-2.047180e-001
2.697974e+003,-4.483154e-001
2.698938e+003,7.297058e-002
2.699902e+003,3.338318e-001
2.700866e+003,-2.672424e-002
2.701831e+003,-1.390442e-001
2.702795e+003,5.396606e-001
2.703759e+003,7.762665e-001
2.704723e+003,3.936859e-001
2.705688e+003,1.883545e-002
2.706652e+003,-2.770844e-001
2.707616e+003,-7.607208e-001
2.708580e+003,-1.482022e+000
2.709544e+003,-2.506751e+000
2.710509e+003,-3.798361e+000
2.711473e+003,-4.835992e+000
2.712437e+003,-5.341568e+000
2.713401e+003,-5.233356e+000
2.714365e+003,-4.222949e+000
2.715330e+003,-3.157254e+000
2.716294e+003,-2.393075e+000
2.717258e+003,-1.791794e+000
2.718222e+003,-9.894531e-001
2.719187e+003,-9.550903e-001
2.720151e+003,-2.434940e+000
2.721115e+003,-3.327554e+000
2.722079e+003,-2.506146e+000
2.723044e+003,-1.828070e+000
2.724008e+003,-2.700195e+000
2.724972e+003,-3.446289e+000
2.725936e+003,-2.204266e+000
2.726901e+003,-6.310852e-001
2.727865e+003,-6.189667e-001
2.728829e+003,-1.000656e+000
2.729793e+003,-1.076648e+000
2.730758e+003,-8.927490e-001
2.731722e+003,-1.745026e-001
2.732686e+003,3.651794e-001
2.733650e+003,2.396789e-001
2.734615e+003,-1.744415e-001
2.735579e+003,-5.424744e-001
2.736543e+003,-1.191330e+000
2.737507e+003,-2.652371e+000
2.738471e+003,-4.199396e+000
2.739436e+003,-4.490210e+000
2.740400e+003,-3.931409e+000
2.741364e+003,-2.797904e+000
2.742328e+003,-1.634061e+000
2.743292e+003,-1.149957e+000
2.744257e+003,-9.114319e-001
2.745221e+003,1.049896e-001
2.746185e+003,6.942444e-001
2.747149e+003,-1.447134e+000
2.748114e+003,-4.230658e+000
2.749078e+003,-4.606613e+000
2.750042e+003,-3.144003e+000
2.751006e+003,-9.007508e-001
2.751971e+003,1.329071e+000
2.752935e+003,1.473724e-001
2.753899e+003,-2.718835e+000
2.754863e+003,-3.673309e+000
2.755828e+003,-3.373435e+000
2.756792e+003,-2.793250e+000
2.757756e+003,-2.214282e+000
2.758720e+003,-2.018399e+000
2.759685e+003,-1.876312e+000
2.760649e+003,-6.821625e-001
2.761613e+003,9.466705e-001
2.762577e+003,8.418945e-001
2.763542e+003,-6.306793e-001
2.764506e+003,-1.545380e-001
2.765470e+003,1.622754e+000
2.766434e+003,7.642059e-001
2.767398e+003,-1.528793e+000
2.768363e+003,-1.846527e+000
2.769327e+003,-9.513916e-001
2.770291e+003,-8.824036e-001
2.771255e+003,-1.568204e+000
2.772219e+003,-2.346780e+000
2.773184e+003,-3.023004e+000
2.774148e+003,-3.125568e+000
2.775112e+003,-2.716943e+000
2.776076e+003,-2.525284e+000
2.777041e+003,-2.538821e+000
2.778005e+003,-3.409662e+000
2.778969e+003,-4.710721e+000
2.779933e+003,-3.600110e+000
2.780898e+003,-1.045062e+000
2.781862e+003,-4.549530e-001
2.782826e+003,-1.545096e+000
2.783790e+003,-2.421405e+000
2.784755e+003,-2.654828e+000
2.785719e+003,-2.012824e+000
2.786683e+003,-5.036255e-001
2.787647e+003,-2.714233e-001
2.788612e+003,-1.563486e+000
2.789576e+003,-2.320428e+000
2.790540e+003,-2.510361e+000
2.791504e+003,-9.393311e-001
2.792469e+003,1.677618e+000
2.793433e+003,1.265604e+000
2.794397e+003,-1.421301e+000
2.795361e+003,-1.928995e+000
2.796325e+003,-2.799774e-001
2.797290e+003,-2.851440e-001
2.798254e+003,-2.495694e+000
2.799218e+003,-3.315088e+000
2.800182e+003,-2.305847e+000
2.801146e+003,-9.471710e-001
2.802111e+003,8.392242e-001
2.803075e+003,2.835416e+000
2.804039e+003,4.809146e+000
2.805003e+003,5.123172e+000
2.805968e+003,3.852622e+000
2.806932e+003,1.992828e+000
2.807896e+003,1.725616e-001
2.808860e+003,-8.185180e-001
2.809825e+003,-8.801575e-001
2.810789e+003,-5.487854e-001
2.811753e+003,1.793335e-001
2.812717e+003,4.107086e-001
2.813682e+003,8.148193e-002
2.814646e+003,-4.853882e-001
2.815610e+003,-1.260605e+000
2.816574e+003,-2.396002e+000
2.817539e+003,-3.637195e+000
2.818503e+003,-3.722049e+000
2.819467e+003,-2.708853e+000
2.820431e+003,-1.562207e+000
2.821396e+003,-5.069885e-001
2.822360e+003,7.855042e-001
2.823324e+003,2.456741e+000
2.824288e+003,3.075949e+000
2.825252e+003,2.555615e+000
2.826217e+003,7.007111e-001
2.827181e+003,-2.554688e+000
2.828145e+003,-2.839593e+000
2.829109e+003,-4.812347e-001
2.830073e+003,4.824768e-001
2.831038e+003,-2.956879e-001
2.832002e+003,-1.513757e+000
2.832966e+003,-2.489310e+000
2.833930e+003,-1.981888e+000
2.834895e+003,2.700500e-001
2.835859e+003,1.882553e+000
2.836823e+003,2.677560e+000
2.837787e+003,2.718970e+000
2.838752e+003,1.965631e+000
2.839716e+003,1.318573e+000
2.840680e+003,8.619995e-001
2.841644e+003,8.548859e-001
2.842609e+003,1.053619e+000
2.843573e+003,4.743927e-001
2.844537e+003,-7.242737e-001
2.845501e+003,-1.351651e+000
2.846466e+003,-1.212765e+000
2.847430e+003,-1.031952e+000
2.848394e+003,-8.883179e-001
2.849358e+003,-6.510315e-001
2.850323e+003,-3.014557e-001
2.851287e+003,2.861816e-001
2.852251e+003,9.266357e-001
2.853215e+003,1.681213e-002
2.854179e+003,-1.689279e+000
2.855144e+003,-9.601135e-001
2.856108e+003,1.561322e+000
2.857072e+003,2.060818e+000
2.858036e+003,3.282349e-001
2.859000e+003,5.651550e-002
2.859965e+003,1.500134e+000
2.860929e+003,1.672296e+000
2.861893e+003,5.024811e-001
2.862857e+003,-8.817139e-002
2.863822e+003,-1.565430e-001
2.864786e+003,-4.555481e-001
2.865750e+003,-8.023041e-001
2.866714e+003,-2.931244e-001
2.867679e+003,6.634064e-001
2.868643e+003,9.304627e-001
2.869607e+003,4.756653e-001
2.870571e+003,-4.239227e-001
2.871536e+003,-1.528772e+000
2.872500e+003,-7.749237e-001
2.873464e+003,1.676822e+000
2.874428e+003,2.445984e+000
2.875393e+003,2.057992e+000
2.876357e+003,2.385135e+000
2.877321e+003,3.033606e+000
2.878285e+003,2.634723e+000
2.879250e+003,1.706195e+000
2.880214e+003,1.762772e+000
2.881178e+003,2.371078e+000
2.882142e+003,1.886881e+000
2.883106e+003,5.936829e-001
2.884071e+003,-5.951813e-001
2.885035e+003,-1.470163e+000
2.885999e+003,-2.963318e-001
2.886963e+003,1.725464e+000
2.887927e+003,1.365500e+000
2.888892e+003,8.673401e-002
2.889856e+003,2.358337e-001
2.890820e+003,1.305069e+000
2.891784e+003,2.785828e+000
2.892749e+003,3.794196e+000
2.893713e+003,2.892773e+000
2.894677e+003,1.136337e+000
2.895641e+003,9.315216e-001
2.896606e+003,1.688696e+000
2.897570e+003,1.944272e+000
2.898534e+003,1.911557e+000
2.899498e+003,2.027496e+000
2.900463e+003,1.914685e+000
2.901427e+003,3.168762e-001
2.902391e+003,-8.271942e-001
2.903355e+003,1.401486e+000
2.904320e+003,3.864981e+000
2.905284e+003,3.270322e+000
2.906248e+003,1.360843e+000
2.907212e+003,6.662567e-001
2.908177e+003,7.300568e-001
2.909141e+003,1.134866e+000
2.910105e+003,1.405408e+000
2.911069e+003,9.483063e-001
2.912033e+003,2.385223e-001
2.912998e+003,-7.327636e-001
2.913962e+003,-1.193002e+000
2.914926e+003,-5.168549e-001
2.915890e+003,6.237488e-002
2.916854e+003,-3.796112e-001
2.917819e+003,-9.729370e-001
2.918783e+003,-9.305237e-001
2.919747e+003,-1.599213e-001
2.920711e+003,2.567245e+000
2.921676e+003,4.385095e+000
2.922640e+003,2.334937e+000
2.923604e+003,7.267029e-001
2.924568e+003,1.740372e+000
2.925533e+003,2.208978e+000
2.926497e+003,8.923981e-001
2.927461e+003,2.726807e-001
2.928425e+003,1.656989e+000
2.929390e+003,-1.284003e+000
2.930354e+003,-1.415620e+001
2.931318e+003,-2.182621e+001
2.932282e+003,-9.557866e+000
2.933247e+003,3.421539e-001
2.934211e+003,1.253006e+000
2.935175e+003,1.604095e+000
2.936139e+003,1.814648e+000
2.937104e+003,1.311929e+000
2.938068e+003,1.703308e-001
2.939032e+003,1.485870e-001
2.939996e+003,1.524246e+000
2.940960e+003,2.028085e+000
2.941925e+003,7.946503e-001
2.942889e+003,4.588928e-002
2.943853e+003,8.180908e-001
2.944817e+003,1.135187e+000
2.945781e+003,9.449250e-001
2.946746e+003,-3.352051e-002
2.947710e+003,-1.655560e+000
2.948674e+003,-1.593875e+000
2.949638e+003,-1.005066e-001
2.950603e+003,4.408325e-001
2.951567e+003,-6.594849e-003
2.952531e+003,3.550781e-001
2.953495e+003,1.776718e+000
2.954460e+003,3.228638e+000
2.955424e+003,4.675537e+000
2.956388e+003,3.883646e+000
2.957352e+003,1.194028e+000
2.958317e+003,-1.335968e-001
2.959281e+003,-1.762543e-001
2.960245e+003,1.242990e+000
2.961209e+003,2.962387e+000
2.962174e+003,2.599640e+000
2.963138e+003,1.079074e+000
2.964102e+003,9.883972e-001
2.965066e+003,1.703149e+000
2.966031e+003,1.605936e+000
2.966995e+003,1.113492e+000
2.967959e+003,1.735446e+000
2.968923e+003,2.808838e+000
2.969887e+003,3.007178e+000
2.970852e+003,2.754220e+000
2.971816e+003,2.458200e+000
2.972780e+003,2.163476e+000
2.973744e+003,1.786972e+000
2.974708e+003,1.574381e+000
2.975673e+003,1.786765e+000
2.976637e+003,2.002499e+000
2.977601e+003,1.680740e+000
2.978565e+003,1.218478e+000
2.979530e+003,1.154373e+000
2.980494e+003,1.238196e+000
2.981458e+003,1.056192e+000
2.982422e+003,1.322977e+000
2.983387e+003,3.140143e+000
2.984351e+003,3.797464e+000
2.985315e+003,2.227527e+000
2.986279e+003,4.327606e-001
2.987244e+003,-5.328277e-001
2.988208e+003,-4.767853e-001
2.989172e+003,7.814087e-001
2.990136e+003,1.866150e+000
2.991101e+003,2.141895e+000
2.992065e+003,1.773587e+000
2.993029e+003,6.468506e-002
2.993993e+003,-1.030060e-001
2.994958e+003,1.630551e+000
2.995922e+003,3.427405e+000
2.996886e+003,4.658526e+000
2.997850e+003,3.626895e+000
2.998814e+003,6.542206e-001
2.999779e+003,-3.246490e-001
3.000743e+003,1.716888e+000
3.001707e+003,2.037949e+000
3.002671e+003,-5.998535e-002
3.003635e+003,-7.121612e-001
3.004600e+003,-5.429687e-002
3.005564e+003,-3.123627e-001
3.006528e+003,-1.110376e+000
3.007492e+003,-8.422638e-001
3.008457e+003,1.861450e-001
3.009421e+003,1.023810e+000
3.010385e+003,1.612942e+000
3.011349e+003,2.422980e+000
3.012314e+003,3.010843e+000
3.013278e+003,1.798950e+000
3.014242e+003,-2.382690e-001
3.015206e+003,5.886658e-001
3.016171e+003,2.401242e+000
3.017135e+003,1.810684e+000
3.018099e+003,6.005585e-001
3.019063e+003,8.982056e-001
3.020028e+003,1.423679e+000
3.020992e+003,9.281982e-001
3.021956e+003,4.334442e-001
3.022920e+003,8.477570e-001
3.023885e+003,1.292905e+000
3.024849e+003,8.571930e-001
3.025813e+003,-1.055511e-001
3.026777e+003,-1.855560e+000
3.027741e+003,-3.096777e+000
3.028706e+003,-3.257514e+000
3.029670e+003,-2.381201e+000
3.030634e+003,-1.411926e-001
3.031598e+003,9.876190e-001
3.032563e+003,2.903442e-001
3.033527e+003,3.408813e-001
3.034491e+003,2.134674e+000
3.035455e+003,3.486807e+000
3.036420e+003,3.384717e+000
3.037384e+003,3.207629e+000
3.038348e+003,3.599271e+000
3.039312e+003,2.235739e+000
3.040277e+003,-8.859619e-001
3.041241e+003,-2.195331e+000
3.042205e+003,-1.710184e+000
3.043169e+003,-7.715179e-001
3.044134e+003,1.651550e-001
3.045098e+003,6.341736e-001
3.046062e+003,7.319519e-001
3.047026e+003,1.359671e+000
3.047990e+003,2.287381e+000
3.048955e+003,1.937170e+000
3.049919e+003,6.750885e-001
3.050883e+003,-4.286194e-002
3.051847e+003,-3.633240e-001
3.052812e+003,-8.439911e-001
3.053776e+003,-7.423309e-001
3.054740e+003,1.879694e+000
3.055704e+003,4.197388e+000
3.056668e+003,3.572201e+000
3.057633e+003,1.879535e+000
3.058597e+003,1.085348e+000
3.059561e+003,7.610657e-001
3.060525e+003,5.433258e-001
3.061490e+003,2.366272e-001
3.062454e+003,-5.553131e-001
3.063418e+003,-1.040921e+000
3.064382e+003,-9.707489e-001
3.065347e+003,-4.389191e-001
3.066311e+003,5.620056e-001
3.067275e+003,1.158728e+000
3.068239e+003,1.100601e+000
3.069204e+003,1.337000e+000
3.070168e+003,2.256915e+000
3.071132e+003,2.571869e+000
3.072096e+003,1.393317e+000
3.073061e+003,1.237457e+000
3.074025e+003,2.292905e+000
3.074989e+003,2.513364e+000
3.075953e+003,1.897659e+000
3.076917e+003,8.935425e-001
3.077882e+003,4.263306e-003
3.078846e+003,4.506470e-001
3.079810e+003,1.845035e+000
3.080774e+003,2.607816e+000
3.081739e+003,2.780975e+000
3.082703e+003,2.759296e+000
3.083667e+003,2.330994e+000
3.084631e+003,6.892700e-002
3.085595e+003,-2.262320e+000
3.086560e+003,-1.107608e+000
3.087524e+003,7.074463e-001
3.088488e+003,1.213287e-001
3.089452e+003,-9.724701e-001
3.090417e+003,-1.392734e+000
3.091381e+003,-1.058801e+000
3.092345e+003,1.363586e-001
3.093309e+003,1.006848e+000
3.094274e+003,3.037048e-001
3.095238e+003,-5.237915e-001
3.096202e+003,-8.963593e-001
3.097166e+003,-3.807312e-001
3.098131e+003,1.530643e+000
3.099095e+003,2.009778e+000
3.100059e+003,6.735290e-001
3.101023e+003,-3.091187e-001
3.101988e+003,-4.788635e-001
3.102952e+003,-8.245910e-001
3.103916e+003,-1.553549e+000
3.104880e+003,-1.570715e+000
3.105844e+003,-7.133850e-001
3.106809e+003,-6.118683e-001
3.107773e+003,-1.169186e+000
3.108737e+003,-1.179916e+000
3.109701e+003,-9.620087e-001
3.110666e+003,-1.511740e+000
3.111630e+003,-2.180118e+000
3.112594e+003,-1.544864e+000
3.113558e+003,-6.578156e-001
3.114522e+003,-1.054846e+000
3.115487e+003,-1.836389e+000
3.116451e+003,-1.735733e+000
3.117415e+003,-1.099875e+000
3.118379e+003,1.220795e-001
3.119344e+003,8.409912e-001
3.120308e+003,-1.291595e-001
3.121272e+003,-1.484079e+000
3.122236e+003,-3.030548e+000
3.123201e+003,-3.563858e+000
3.124165e+003,-2.715652e+000
3.125129e+003,-9.231140e-001
3.126093e+003,1.340555e+000
3.127058e+003,1.625449e+000
3.128022e+003,-1.489453e+000
3.128986e+003,-2.698883e+000
3.129950e+003,-6.808716e-001
3.130915e+003,7.612457e-001
3.131879e+003,1.598318e+000
3.132843e+003,1.039444e+000
3.133807e+003,-1.024628e-001
3.134771e+003,1.024451e+000
3.135736e+003,3.093805e+000
3.136700e+003,2.283267e+000
3.137664e+003,-1.443268e-001
3.138628e+003,-1.494302e+000
3.139593e+003,-2.078891e+000
3.140557e+003,-2.789639e+000
3.141521e+003,-2.957611e+000
3.142485e+003,-6.779968e-001
3.143449e+003,1.450693e+000
3.144414e+003,1.512100e+000
3.145378e+003,2.762237e-001
3.146342e+003,-2.286456e+000
3.147306e+003,-3.475589e+000
3.148271e+003,-2.094824e+000
3.149235e+003,-4.415680e-001
3.150199e+003,2.256165e-001
3.151163e+003,2.429657e-001
3.152128e+003,-5.257171e-001
3.153092e+003,-1.174130e+000
3.154056e+003,-1.688220e+000
3.155020e+003,-2.144339e+000
3.155985e+003,-2.488242e+000
3.156949e+003,-2.395050e+000
3.157913e+003,-1.864493e+000
3.158877e+003,-7.417389e-001
3.159842e+003,4.259247e-001
3.160806e+003,2.131744e-001
3.161770e+003,-6.927735e-001
3.162734e+003,-4.050323e-001
3.163698e+003,4.846741e-001
3.164663e+003,1.020639e+000
3.165627e+003,9.835602e-001
3.166591e+003,-4.804443e-001
3.167555e+003,-1.625473e+000
3.168520e+003,-1.401465e+000
3.169484e+003,-1.121014e+000
3.170448e+003,-1.393277e+000
3.171412e+003,-1.191583e+000
3.172376e+003,8.009949e-002
3.173341e+003,1.087360e+000
3.174305e+003,1.141284e+000
3.175269e+003,8.052887e-001
3.176233e+003,1.346741e-001
3.177198e+003,-7.984009e-001
3.178162e+003,-1.849844e+000
3.179126e+003,-1.935693e+000
3.180090e+003,-1.357779e+000
3.181055e+003,-1.371957e+000
3.182019e+003,-1.758966e+000
3.182983e+003,-1.356439e+000
3.183947e+003,-5.347992e-001
3.184912e+003,-2.202179e-001
3.185876e+003,-2.066681e-001
3.186840e+003,2.094727e-002
3.187804e+003,1.108246e-001
3.188769e+003,-6.624390e-001
3.189733e+003,-1.109155e+000
3.190697e+003,-4.420166e-001
3.191661e+003,6.337585e-002
3.192625e+003,-1.116516e-001
3.193590e+003,-1.214661e-001
3.194554e+003,4.416321e-001
3.195518e+003,3.841095e-001
3.196482e+003,-1.322296e+000
3.197447e+003,-1.466278e+000
3.198411e+003,4.782532e-001
3.199375e+003,1.567163e+000
3.200339e+003,1.790997e+000
3.201303e+003,1.653183e+000
3.202268e+003,1.382483e+000
3.203232e+003,1.468921e+000
3.204196e+003,1.457211e+000
3.205160e+003,1.163147e-001
3.206125e+003,-1.372446e+000
3.207089e+003,-6.233856e-001
3.208053e+003,7.342834e-001
3.209017e+003,-5.657196e-001
3.209982e+003,-2.006792e+000
3.210946e+003,-1.223199e+000
3.211910e+003,-3.403412e-001
3.212874e+003,-1.948578e-001
3.213839e+003,2.441315e-001
3.214803e+003,1.230188e+000
3.215767e+003,1.508646e+000
3.216731e+003,6.546203e-001
3.217696e+003,-2.763519e-001
3.218660e+003,-1.018857e+000
3.219624e+003,-1.313989e+000
3.220588e+003,-1.139215e+000
3.221552e+003,-7.822357e-001
3.222517e+003,-3.806976e-001
3.223481e+003,-4.677795e-001
3.224445e+003,-7.412750e-001
3.225409e+003,-4.978333e-001
3.226374e+003,-1.140381e-001
3.227338e+003,-5.565185e-002
3.228302e+003,-3.509979e-001
3.229266e+003,-1.143713e+000
3.230230e+003,-1.770320e+000
3.231195e+003,-1.419148e+000
3.232159e+003,-7.191254e-001
3.233123e+003,7.293335e-001
3.234087e+003,6.035827e-001
3.235052e+003,-1.469049e+000
3.236016e+003,-2.692413e+000
3.236980e+003,-2.487643e+000
3.237944e+003,-1.655267e+000
3.238909e+003,-4.841980e-001
3.239873e+003,1.076880e+000
3.240837e+003,2.775592e+000
3.241801e+003,2.652246e+000
3.242766e+003,1.135840e+000
3.243730e+003,-5.081390e-001
3.244694e+003,-1.822775e+000
3.245658e+003,-1.917484e+000
3.246623e+003,-1.716383e+000
3.247587e+003,-1.959935e+000
3.248551e+003,-2.439630e+000
3.249515e+003,-3.036566e+000
3.250479e+003,-3.307808e+000
3.251444e+003,-2.885437e+000
3.252408e+003,-2.398636e+000
3.253372e+003,-1.818256e+000
3.254336e+003,-2.286896e+000
3.255301e+003,-3.987883e+000
3.256265e+003,-3.763867e+000
3.257229e+003,-2.143100e+000
3.258193e+003,-2.904922e+000
3.259157e+003,-5.262433e+000
3.260122e+003,-6.028909e+000
3.261086e+003,-4.943170e+000
3.262050e+003,-1.888654e+000
3.263014e+003,1.159717e+000
3.263979e+003,-1.592488e+000
3.264943e+003,-5.291280e+000
3.265907e+003,-3.537141e+000
3.266871e+003,-1.113863e+000
3.267836e+003,-5.036621e-001
3.268800e+003,-2.175598e-001
3.269764e+003,1.943024e-001
3.270728e+003,1.921387e-002
3.271693e+003,-9.247208e-001
3.272657e+003,-1.936894e+000
3.273621e+003,-2.796332e+000
3.274585e+003,-2.575742e+000
3.275550e+003,-1.211798e+000
3.276514e+003,-4.133759e-001
3.277478e+003,-1.737122e-001
3.278442e+003,-8.460953e-001
3.279406e+003,-1.758987e+000
3.280371e+003,-2.062233e+000
3.281335e+003,-1.870165e+000
3.282299e+003,-1.286516e+000
3.283263e+003,-5.915924e-001
3.284228e+003,-3.290405e-002
3.285192e+003,2.955505e-001
3.286156e+003,-1.432922e-001
3.287120e+003,2.449066e-001
3.288084e+003,2.318814e+000
3.289049e+003,3.125961e+000
3.290013e+003,2.471484e+000
3.290977e+003,7.362518e-001
3.291941e+003,-1.328389e+000
3.292906e+003,-1.642879e+000
3.293870e+003,-6.694489e-001
3.294834e+003,-8.426880e-001
3.295798e+003,-1.873358e+000
3.296763e+003,-3.388999e+000
3.297727e+003,-4.612216e+000
3.298691e+003,-3.788837e+000
3.299655e+003,-2.639252e+000
3.300620e+003,-2.827675e+000
3.301584e+003,-2.188098e+000
3.302548e+003,-5.387573e-002
3.303512e+003,1.208994e+000
3.304477e+003,8.800384e-001
3.305441e+003,8.870117e-001
3.306405e+003,1.915897e+000
3.307369e+003,1.167566e+000
3.308333e+003,-1.620317e+000
3.309298e+003,-1.511963e-001
3.310262e+003,3.573205e+000
3.311226e+003,3.160144e+000
3.312190e+003,1.079068e+000
3.313155e+003,1.107849e+000
3.314119e+003,1.792389e+000
3.315083e+003,1.831604e+000
3.316047e+003,1.688303e+000
3.317011e+003,1.725049e+000
3.317976e+003,1.923319e+000
3.318940e+003,2.422659e+000
3.319904e+003,2.603467e+000
3.320868e+003,2.259732e+000
3.321833e+003,2.544760e+000
3.322797e+003,3.357639e+000
3.323761e+003,3.692395e+000
3.324725e+003,3.445493e+000
3.325690e+003,2.382202e+000
3.326654e+003,1.312054e+000
3.327618e+003,1.830725e+000
3.328582e+003,2.999710e+000
3.329547e+003,3.330453e+000
3.330511e+003,2.765619e+000
3.331475e+003,8.977661e-002
3.332439e+003,-1.587953e+000
3.333404e+003,-8.376053e-001
3.334368e+003,5.485565e-001
3.335332e+003,2.079343e+000
3.336296e+003,2.726669e+000
3.337260e+003,2.309967e+000
3.338225e+003,1.563992e+000
3.339189e+003,7.230530e-001
3.340153e+003,2.678925e-001
3.341117e+003,1.080048e-001
3.342082e+003,-2.963058e-001
3.343046e+003,-8.062881e-001
3.344010e+003,-1.458913e+000
3.344974e+003,-1.612349e+000
3.345938e+003,-4.970276e-001
3.346903e+003,9.176636e-002
3.347867e+003,-6.841858e-001
3.348831e+003,-1.101143e+000
3.349795e+003,-1.914642e-001
3.350760e+003,3.476807e-001
3.351724e+003,-4.701721e-001
3.352688e+003,1.828369e-001
3.353652e+003,2.024869e+000
3.354617e+003,1.509930e+000
3.355581e+003,-1.779755e-001
3.356545e+003,-1.094421e-001
3.357509e+003,6.817597e-001
3.358474e+003,6.659943e-001
3.359438e+003,-4.677735e-002
3.360402e+003,-1.449980e+000
3.361366e+003,-2.295223e+000
3.362331e+003,-8.398361e-001
3.363295e+003,-1.103821e-002
3.364259e+003,-1.408110e+000
3.365223e+003,-1.738373e+000
3.366188e+003,-8.987045e-001
3.367152e+003,-8.358536e-001
3.368116e+003,-1.484071e+000
3.369080e+003,-1.605278e+000
3.370044e+003,-1.575458e+000
3.371009e+003,-2.915359e+000
3.371973e+003,-4.098401e+000
3.372937e+003,-1.573473e+000
3.373901e+003,1.498618e+000
3.374865e+003,1.024277e+000
3.375830e+003,1.572388e-001
3.376794e+003,3.022736e-001
3.377758e+003,-3.670608e-001
3.378722e+003,-2.039247e+000
3.379687e+003,-2.751338e+000
3.380651e+003,-2.068732e+000
3.381615e+003,-4.658646e-001
3.382579e+003,1.603720e+000
3.383544e+003,2.431821e+000
3.384508e+003,2.189059e+000
3.385472e+003,1.089630e+000
3.386436e+003,-1.982452e-001
3.387401e+003,-1.402013e+000
3.388365e+003,-1.514711e+000
3.389329e+003,-2.484131e-003
3.390293e+003,1.584613e+000
3.391258e+003,2.582440e+000
3.392222e+003,3.006482e+000
3.393186e+003,2.888260e+000
3.394150e+003,3.169376e+000
3.395115e+003,3.959466e+000
3.396079e+003,3.293668e+000
3.397043e+003,1.893997e+000
3.398007e+003,1.812793e+000
3.398971e+003,2.789844e+000
3.399936e+003,5.447934e+000
3.400900e+003,6.843970e+000
3.401864e+003,5.051004e+000
3.402828e+003,3.949420e+000
3.403792e+003,6.265427e+000
3.404757e+003,7.790918e+000
3.405721e+003,5.141489e+000
3.406685e+003,5.335464e+000
3.407649e+003,8.550394e+000
3.408614e+003,1.102121e+001
3.409578e+003,1.274547e+001
3.410542e+003,1.447409e+001
3.411506e+003,1.574170e+001
3.412471e+003,1.553838e+001
3.413435e+003,1.525136e+001
3.414399e+003,1.630046e+001
3.415363e+003,1.720019e+001
3.416328e+003,1.603377e+001
3.417292e+003,1.546333e+001
3.418256e+003,1.664107e+001
3.419220e+003,1.745222e+001
3.420185e+003,1.784811e+001
3.421149e+003,1.874794e+001
3.422113e+003,1.969213e+001
3.423077e+003,1.863805e+001
3.424042e+003,1.712383e+001
3.425006e+003,1.834919e+001
3.425970e+003,2.000891e+001
3.426934e+003,1.803553e+001
