7.140112e+001,9.409808e+001
7.236536e+001,9.212227e+001
7.332959e+001,9.330812e+001
7.429382e+001,9.576723e+001
7.525806e+001,1.001801e+002
7.622229e+001,1.012680e+002
7.718652e+001,9.473716e+001
7.815076e+001,7.580266e+001
7.911499e+001,6.463646e+001
8.007922e+001,6.002225e+001
8.104346e+001,6.105111e+001
8.200769e+001,6.772018e+001
8.297192e+001,8.472618e+001
8.393616e+001,1.007194e+002
8.490039e+001,1.159259e+002
8.586462e+001,1.280273e+002
8.682886e+001,1.335607e+002
8.779310e+001,1.227720e+002
8.875733e+001,1.064992e+002
8.972157e+001,8.988417e+001
9.068580e+001,7.514520e+001
9.165003e+001,6.267943e+001
9.261427e+001,5.570649e+001
9.357850e+001,5.257731e+001
9.454273e+001,5.220925e+001
9.550697e+001,5.429787e+001
9.647120e+001,6.064250e+001
9.743543e+001,6.273796e+001
9.839967e+001,5.929377e+001
9.936390e+001,5.315083e+001
1.003281e+002,4.743851e+001
1.012924e+002,4.169051e+001
1.022566e+002,3.764321e+001
1.032208e+002,3.617305e+001
1.041851e+002,3.667282e+001
1.051493e+002,3.770562e+001
1.061135e+002,3.864851e+001
1.070778e+002,3.913306e+001
1.080420e+002,3.886556e+001
1.090062e+002,3.779770e+001
1.099705e+002,3.615726e+001
1.109347e+002,3.351886e+001
1.118989e+002,3.070070e+001
1.128632e+002,2.956927e+001
1.138274e+002,3.153812e+001
1.147916e+002,3.733017e+001
1.157559e+002,4.014859e+001
1.167201e+002,3.950761e+001
1.176843e+002,3.733894e+001
1.186486e+002,3.590783e+001
1.196128e+002,3.547075e+001
1.205770e+002,3.554638e+001
1.215413e+002,3.765229e+001
1.225055e+002,4.029346e+001
1.234697e+002,4.028961e+001
1.244340e+002,3.128826e+001
1.253982e+002,2.242329e+001
1.263624e+002,1.564972e+001
1.273267e+002,1.194138e+001
1.282909e+002,1.159686e+001
1.292551e+002,1.921151e+001
1.302194e+002,2.929161e+001
1.311836e+002,3.715596e+001
1.321478e+002,3.976956e+001
1.331121e+002,3.685751e+001
1.340763e+002,3.204510e+001
1.350405e+002,2.494049e+001
1.360048e+002,1.857116e+001
1.369690e+002,1.630756e+001
1.379332e+002,2.174246e+001
1.388975e+002,2.605449e+001
1.398617e+002,2.925621e+001
1.408259e+002,3.125937e+001
1.417902e+002,3.196487e+001
1.427544e+002,3.058194e+001
1.437186e+002,2.855111e+001
1.446829e+002,2.576474e+001
1.456471e+002,2.255538e+001
1.466113e+002,1.956983e+001
1.475756e+002,1.681643e+001
1.485398e+002,1.530866e+001
1.495040e+002,1.702012e+001
1.504683e+002,2.229959e+001
1.514325e+002,2.982343e+001
1.523967e+002,3.162807e+001
1.533610e+002,2.904210e+001
1.543252e+002,2.513464e+001
1.552894e+002,2.200041e+001
1.562537e+002,1.993094e+001
1.572179e+002,1.791538e+001
1.581821e+002,1.414987e+001
1.591464e+002,1.139644e+001
1.601106e+002,1.315870e+001
1.610748e+002,2.510770e+001
1.620391e+002,3.310517e+001
1.630033e+002,3.296187e+001
1.639676e+002,2.747813e+001
1.649318e+002,2.101061e+001
1.658960e+002,1.665209e+001
1.668603e+002,1.396457e+001
1.678245e+002,1.292075e+001
1.687887e+002,1.328556e+001
1.697530e+002,1.466439e+001
1.707172e+002,1.657383e+001
1.716814e+002,1.865845e+001
1.726457e+002,2.000930e+001
1.736099e+002,2.027275e+001
1.745741e+002,1.943051e+001
1.755384e+002,1.734734e+001
1.765026e+002,1.214333e+001
1.774668e+002,8.001007e+000
1.784311e+002,7.800025e+000
1.793953e+002,1.357026e+001
1.803595e+002,1.714615e+001
1.813238e+002,1.674531e+001
1.822880e+002,1.458283e+001
1.832522e+002,1.223050e+001
1.842165e+002,1.055869e+001
1.851807e+002,9.093701e+000
1.861449e+002,6.618103e+000
1.871092e+002,4.097357e+000
1.880734e+002,2.943536e+000
1.890376e+002,5.532196e+000
1.900019e+002,1.048433e+001
1.909661e+002,1.375123e+001
1.919303e+002,1.505621e+001
1.928946e+002,1.490396e+001
1.938588e+002,1.479422e+001
1.948230e+002,1.439949e+001
1.957873e+002,1.480161e+001
1.967515e+002,1.560420e+001
1.977157e+002,1.692842e+001
1.986800e+002,2.145260e+001
1.996442e+002,3.030039e+001
2.006084e+002,4.097518e+001
2.015727e+002,5.605483e+001
2.025369e+002,7.596889e+001
2.035011e+002,8.900420e+001
2.044654e+002,8.314129e+001
2.054296e+002,7.072734e+001
2.063938e+002,5.729014e+001
2.073581e+002,4.664813e+001
2.083223e+002,3.984719e+001
2.092865e+002,3.855994e+001
2.102508e+002,4.144670e+001
2.112150e+002,4.733184e+001
2.121792e+002,5.513671e+001
2.131435e+002,6.581853e+001
2.141077e+002,7.116836e+001
2.150719e+002,6.939884e+001
2.160362e+002,6.417582e+001
2.170004e+002,6.083513e+001
2.179646e+002,6.070763e+001
2.189289e+002,6.093279e+001
2.198931e+002,5.863943e+001
2.208573e+002,5.652443e+001
2.218216e+002,5.998318e+001
2.227858e+002,7.951760e+001
2.237500e+002,9.842070e+001
2.247143e+002,1.125567e+002
2.256785e+002,1.201478e+002
2.266427e+002,1.200428e+002
2.276070e+002,1.041411e+002
2.285712e+002,8.050398e+001
2.295354e+002,5.882140e+001
2.304997e+002,4.207175e+001
2.314639e+002,2.999255e+001
2.324281e+002,2.206700e+001
2.333924e+002,1.881594e+001
2.343566e+002,1.635090e+001
2.353208e+002,1.309371e+001
2.362851e+002,8.715589e+000
2.372493e+002,5.726636e+000
2.382135e+002,4.540430e+000
2.391778e+002,4.039746e+000
2.401420e+002,3.981525e+000
2.411062e+002,4.416504e+000
2.420705e+002,4.405707e+000
2.430347e+002,2.908588e+000
2.439989e+002,1.058954e+000
2.449632e+002,-2.286499e-001
2.459274e+002,-2.243530e-001
2.468916e+002,5.120117e-001
2.478559e+002,5.796326e-001
2.488201e+002,2.006164e-001
2.497843e+002,-2.244568e-001
2.507486e+002,-2.247131e-001
2.517128e+002,3.738953e-001
2.526770e+002,1.003052e+000
2.536413e+002,1.112933e+000
2.546055e+002,1.423859e+000
2.555697e+002,3.270636e+000
2.565340e+002,9.194501e+000
2.574982e+002,1.306456e+001
2.584625e+002,1.377322e+001
2.594267e+002,1.247451e+001
2.603909e+002,1.113219e+001
2.613552e+002,1.082838e+001
2.623194e+002,1.045624e+001
2.632836e+002,9.324896e+000
2.642479e+002,7.706787e+000
2.652121e+002,6.286456e+000
2.661763e+002,6.343719e+000
2.671406e+002,7.159930e+000
2.681048e+002,7.612750e+000
2.690690e+002,7.499182e+000
2.700333e+002,6.991229e+000
2.709975e+002,6.826935e+000
2.719617e+002,7.240003e+000
2.729260e+002,7.341974e+000
2.738902e+002,6.703650e+000
2.748544e+002,5.340729e+000
2.758187e+002,4.490588e+000
2.767829e+002,4.995795e+000
2.777471e+002,5.092639e+000
2.787114e+002,3.988904e+000
2.796756e+002,1.665137e+000
2.806398e+002,-3.129089e-001
2.816041e+002,-1.260761e+000
2.825683e+002,-1.331915e+000
2.835325e+002,9.240112e-002
2.844968e+002,3.032031e+000
2.854610e+002,6.204328e+000
2.864252e+002,5.807861e+000
2.873895e+002,3.525946e+000
2.883537e+002,1.903912e+000
2.893179e+002,2.582507e+000
2.902822e+002,5.794977e+000
2.912464e+002,6.774896e+000
2.922106e+002,5.144782e+000
2.931749e+002,2.861218e+000
2.941391e+002,1.096948e+000
2.951033e+002,-3.548584e-002
2.960676e+002,-1.196143e+000
2.970318e+002,-2.910455e+000
2.979960e+002,-4.205847e+000
2.989603e+002,-4.263153e+000
2.999245e+002,-2.529926e+000
3.008887e+002,-5.267884e-001
3.018530e+002,8.705322e-001
3.028172e+002,1.806751e+000
3.037814e+002,2.291931e+000
3.047457e+002,2.317871e+000
3.057099e+002,2.167627e+000
3.066741e+002,2.998084e+000
3.076384e+002,4.470813e+000
3.086026e+002,5.247186e+000
3.095668e+002,3.745758e+000
3.105311e+002,-1.292456e+000
3.114953e+002,-3.638287e+000
3.124595e+002,-1.977820e+000
3.134238e+002,1.160522e+000
3.143880e+002,2.715344e+000
3.153522e+002,1.057031e+000
3.163165e+002,3.756226e-001
3.172807e+002,1.984534e+000
3.182449e+002,4.691247e+000
3.192092e+002,7.331628e+000
3.201734e+002,9.567963e+000
3.211376e+002,1.027560e+001
3.221019e+002,7.873242e+000
3.230661e+002,3.881696e+000
3.240303e+002,5.702149e-001
3.249946e+002,7.599670e-001
3.259588e+002,4.058209e+000
3.269230e+002,5.897467e+000
3.278873e+002,6.220337e+000
3.288515e+002,5.844757e+000
3.298157e+002,6.211835e+000
3.307800e+002,8.056025e+000
3.317442e+002,9.699780e+000
3.327084e+002,1.112584e+001
3.336727e+002,1.226945e+001
3.346369e+002,1.306156e+001
3.356011e+002,1.333398e+001
3.365654e+002,1.346986e+001
3.375296e+002,1.325299e+001
3.384938e+002,1.305260e+001
3.394581e+002,1.335591e+001
3.404223e+002,1.457984e+001
3.413865e+002,1.653456e+001
3.423508e+002,1.874113e+001
3.433150e+002,2.139693e+001
3.442792e+002,2.489665e+001
3.452435e+002,2.993193e+001
3.462077e+002,3.670147e+001
3.471719e+002,4.365511e+001
3.481362e+002,5.009520e+001
3.491004e+002,5.754414e+001
3.500646e+002,6.946056e+001
3.510289e+002,8.614645e+001
3.519931e+002,1.090368e+002
3.529573e+002,1.386952e+002
3.539216e+002,1.741713e+002
3.548858e+002,2.160294e+002
3.558500e+002,2.809437e+002
3.568143e+002,3.277038e+002
3.577785e+002,3.422262e+002
3.587427e+002,3.296277e+002
3.597070e+002,2.986776e+002
3.606712e+002,2.503603e+002
3.616354e+002,1.970732e+002
3.625997e+002,1.539878e+002
3.635639e+002,1.217344e+002
3.645281e+002,9.824011e+001
3.654924e+002,7.977558e+001
3.664566e+002,6.770057e+001
3.674208e+002,5.673395e+001
3.683851e+002,4.647580e+001
3.693493e+002,3.745599e+001
3.703135e+002,3.097667e+001
3.712778e+002,2.931359e+001
3.722420e+002,2.781238e+001
3.732062e+002,2.592333e+001
3.741705e+002,2.399195e+001
3.751347e+002,2.267142e+001
3.760989e+002,2.266765e+001
3.770632e+002,2.283967e+001
3.780274e+002,2.266339e+001
3.789916e+002,2.207830e+001
3.799559e+002,2.101577e+001
3.809201e+002,1.925749e+001
3.818844e+002,1.736454e+001
3.828486e+002,1.666904e+001
3.838128e+002,1.709971e+001
3.847771e+002,1.797404e+001
3.857413e+002,1.823589e+001
3.867055e+002,1.729288e+001
3.876698e+002,1.773861e+001
3.886340e+002,2.024094e+001
3.895982e+002,2.361309e+001
3.905625e+002,2.647139e+001
3.915267e+002,2.920385e+001
3.924909e+002,3.029297e+001
3.934552e+002,2.875739e+001
3.944194e+002,2.607123e+001
3.953836e+002,2.369230e+001
3.963479e+002,2.239329e+001
3.973121e+002,2.190374e+001
3.982763e+002,2.217048e+001
3.992406e+002,2.278209e+001
4.002048e+002,2.295491e+001
4.011690e+002,2.187438e+001
4.021333e+002,2.000535e+001
4.030975e+002,2.077655e+001
4.040617e+002,2.419843e+001
4.050260e+002,2.801545e+001
4.059902e+002,2.961814e+001
4.069544e+002,2.711292e+001
4.079187e+002,2.801401e+001
4.088829e+002,3.330126e+001
4.098471e+002,4.019270e+001
4.108114e+002,4.652229e+001
4.117756e+002,5.148375e+001
4.127398e+002,5.776092e+001
4.137041e+002,6.930865e+001
4.146683e+002,8.048831e+001
4.156325e+002,8.705284e+001
4.165968e+002,8.677090e+001
4.175610e+002,8.213499e+001
4.185252e+002,7.641977e+001
4.194895e+002,7.021294e+001
4.204537e+002,6.379609e+001
4.214179e+002,5.742453e+001
4.223822e+002,5.127491e+001
4.233464e+002,4.897781e+001
4.243106e+002,5.039329e+001
4.252749e+002,5.280972e+001
4.262391e+002,5.437950e+001
4.272033e+002,5.480251e+001
4.281676e+002,5.913232e+001
4.291318e+002,6.798248e+001
4.300960e+002,8.002637e+001
4.310603e+002,9.489027e+001
4.320245e+002,1.123753e+002
4.329887e+002,1.328557e+002
4.339530e+002,1.588915e+002
4.349172e+002,1.867814e+002
4.358814e+002,2.181834e+002
4.368457e+002,2.511804e+002
4.378099e+002,2.807653e+002
4.387741e+002,2.968929e+002
4.397384e+002,3.002772e+002
4.407026e+002,2.913034e+002
4.416668e+002,2.687844e+002
4.426311e+002,2.371605e+002
4.435953e+002,2.113542e+002
4.445595e+002,1.955081e+002
4.455238e+002,1.811022e+002
4.464880e+002,1.674696e+002
4.474522e+002,1.551325e+002
4.484165e+002,1.456806e+002
4.493807e+002,1.422894e+002
4.503449e+002,1.386087e+002
4.513092e+002,1.332164e+002
4.522734e+002,1.260449e+002
4.532376e+002,1.170258e+002
4.542019e+002,1.055824e+002
4.551661e+002,9.341930e+001
4.561303e+002,8.210934e+001
4.570946e+002,7.202235e+001
4.580588e+002,6.386819e+001
4.590230e+002,5.843739e+001
4.599873e+002,5.609089e+001
4.609515e+002,5.434774e+001
4.619157e+002,5.295394e+001
4.628800e+002,5.224024e+001
4.638442e+002,5.247681e+001
4.648084e+002,5.369485e+001
4.657727e+002,5.601408e+001
4.667369e+002,5.987585e+001
4.677011e+002,6.425959e+001
4.686654e+002,6.897916e+001
4.696296e+002,7.402254e+001
4.705938e+002,7.770911e+001
4.715581e+002,7.893584e+001
4.725223e+002,7.834373e+001
4.734865e+002,7.579841e+001
4.744508e+002,7.150472e+001
4.754150e+002,6.618520e+001
4.763792e+002,6.120494e+001
4.773435e+002,5.654733e+001
4.783077e+002,5.245248e+001
4.792719e+002,4.906208e+001
4.802362e+002,4.630096e+001
4.812004e+002,4.364571e+001
4.821646e+002,4.103123e+001
4.831289e+002,3.847256e+001
4.840931e+002,3.574514e+001
4.850573e+002,3.296896e+001
4.860216e+002,3.052327e+001
4.869858e+002,2.895371e+001
4.879500e+002,2.764573e+001
4.889143e+002,2.641418e+001
4.898785e+002,2.522808e+001
4.908427e+002,2.404047e+001
4.918070e+002,2.269960e+001
4.927712e+002,2.152790e+001
4.937354e+002,2.110596e+001
4.946997e+002,2.123883e+001
4.956639e+002,2.133158e+001
4.966281e+002,2.075095e+001
4.975924e+002,1.940458e+001
4.985566e+002,1.964241e+001
4.995208e+002,2.135135e+001
5.004851e+002,2.417079e+001
5.014493e+002,2.817045e+001
5.024135e+002,3.370768e+001
5.033778e+002,3.878780e+001
5.043420e+002,4.370380e+001
5.053063e+002,4.800104e+001
5.062705e+002,5.184244e+001
5.072347e+002,5.500580e+001
5.081990e+002,5.608743e+001
5.091632e+002,5.138945e+001
5.101274e+002,4.539504e+001
5.110917e+002,4.077543e+001
5.120559e+002,3.801952e+001
5.130201e+002,3.598532e+001
5.139844e+002,3.228199e+001
5.149486e+002,2.700693e+001
5.159128e+002,2.236596e+001
5.168771e+002,1.871537e+001
5.178413e+002,1.575119e+001
5.188055e+002,1.275768e+001
5.197698e+002,8.971143e+000
5.207340e+002,6.480719e+000
5.216982e+002,6.362671e+000
5.226625e+002,6.923383e+000
5.236267e+002,5.850336e+000
5.245909e+002,1.388397e+000
5.255552e+002,-1.419238e+000
5.265194e+002,1.288959e+000
5.274836e+002,5.642316e+000
5.284479e+002,8.175318e+000
5.294121e+002,7.016400e+000
5.303763e+002,4.012268e+000
5.313406e+002,3.064966e+000
5.323048e+002,3.462830e+000
5.332690e+002,4.442694e+000
5.342333e+002,5.713361e+000
5.351975e+002,7.114606e+000
5.361617e+002,7.235968e+000
5.371260e+002,4.692889e+000
5.380902e+002,3.070105e+000
5.390544e+002,3.489831e+000
5.400187e+002,5.299487e+000
5.409829e+002,6.480927e+000
5.419471e+002,6.325128e+000
5.429114e+002,5.870008e+000
5.438756e+002,5.183423e+000
5.448398e+002,4.414734e+000
5.458041e+002,3.743799e+000
5.467683e+002,3.332147e+000
5.477325e+002,3.058008e+000
5.486968e+002,2.553680e+000
5.496610e+002,1.983209e+000
5.506252e+002,1.711841e+000
5.515895e+002,2.041565e+000
5.525537e+002,2.953290e+000
5.535179e+002,3.565051e+000
5.544822e+002,3.958783e+000
5.554464e+002,4.200073e+000
5.564106e+002,4.243903e+000
5.573749e+002,4.053076e+000
5.583391e+002,3.821539e+000
5.593033e+002,4.035199e+000
5.602676e+002,3.806305e+000
5.612318e+002,2.269128e+000
5.621960e+002,-3.286133e-002
5.631603e+002,-1.444769e+000
5.641245e+002,-1.152954e-002
5.650887e+002,1.943219e+000
5.660530e+002,2.301776e+000
5.670172e+002,1.495776e+000
5.679814e+002,7.949951e-001
5.689457e+002,1.606360e+000
5.699099e+002,3.696613e+000
5.708741e+002,4.048547e+000
5.718384e+002,2.600238e+000
5.728026e+002,6.266724e-001
5.737668e+002,-1.141162e+000
5.747311e+002,-2.920966e+000
5.756953e+002,-3.343268e+000
5.766595e+002,-1.211548e+000
5.776238e+002,8.010498e-001
5.785880e+002,1.712976e+000
5.795522e+002,1.479742e+000
5.805165e+002,7.849548e-001
5.814807e+002,-3.478027e-001
5.824449e+002,-1.418591e+000
5.834092e+002,-2.383472e+000
5.843734e+002,-3.097180e+000
5.853376e+002,-3.225903e+000
5.863019e+002,-2.222528e+000
5.872661e+002,-4.498230e-001
5.882303e+002,-6.591187e-002
5.891946e+002,-1.112610e+000
5.901588e+002,-2.167072e+000
5.911230e+002,-1.629578e+000
5.920873e+002,1.178937e+000
5.930515e+002,2.808984e+000
5.940157e+002,3.273248e+000
5.949800e+002,3.055707e+000
5.959442e+002,2.004224e+000
5.969084e+002,1.916565e-001
5.978727e+002,-1.203534e+000
5.988369e+002,-1.156677e+000
5.998011e+002,-7.884216e-001
6.007654e+002,-5.908203e-001
6.017296e+002,-5.003540e-001
6.026938e+002,-6.620483e-002
6.036581e+002,1.388708e+000
6.046223e+002,3.320795e+000
6.055865e+002,4.294458e+000
6.065508e+002,4.352984e+000
6.075150e+002,3.839447e+000
6.084792e+002,3.030133e+000
6.094435e+002,1.706152e+000
6.104077e+002,1.428601e+000
6.113719e+002,2.803375e+000
6.123362e+002,4.167609e+000
6.133004e+002,4.478876e+000
6.142646e+002,3.725976e+000
6.152289e+002,3.416052e+000
6.161931e+002,5.068793e+000
6.171573e+002,6.444739e+000
6.181216e+002,6.244360e+000
6.190858e+002,5.053571e+000
6.200500e+002,4.544373e+000
6.210143e+002,6.534589e+000
6.219785e+002,9.836334e+000
6.229427e+002,1.164344e+001
6.239070e+002,1.222908e+001
6.248712e+002,1.300130e+001
6.258354e+002,1.542389e+001
6.267997e+002,1.989155e+001
6.277639e+002,2.267772e+001
6.287281e+002,2.332796e+001
6.296924e+002,2.330247e+001
6.306566e+002,2.317768e+001
6.316208e+002,2.293024e+001
6.325851e+002,2.223668e+001
6.335493e+002,2.036257e+001
6.345135e+002,1.877818e+001
6.354778e+002,1.782733e+001
6.364420e+002,1.744613e+001
6.374063e+002,1.748815e+001
6.383705e+002,1.797956e+001
6.393347e+002,1.853890e+001
6.402990e+002,1.869175e+001
6.412632e+002,1.849772e+001
6.422274e+002,1.794372e+001
6.431917e+002,1.699031e+001
6.441559e+002,1.564800e+001
6.451201e+002,1.481405e+001
6.460844e+002,1.485648e+001
6.470486e+002,1.460059e+001
6.480128e+002,1.352414e+001
6.489771e+002,1.183572e+001
6.499413e+002,1.038586e+001
6.509055e+002,9.222486e+000
6.518698e+002,8.467090e+000
6.528340e+002,8.478076e+000
6.537982e+002,8.813715e+000
6.547625e+002,8.845319e+000
6.557267e+002,8.148046e+000
6.566909e+002,7.322876e+000
6.576552e+002,7.268659e+000
6.586194e+002,7.672327e+000
6.595836e+002,8.208692e+000
6.605479e+002,8.728101e+000
6.615121e+002,9.223999e+000
6.624763e+002,9.514338e+000
6.634406e+002,9.437525e+000
6.644048e+002,9.534961e+000
6.653690e+002,9.966657e+000
6.663333e+002,1.048076e+001
6.672975e+002,1.063481e+001
6.682617e+002,1.022250e+001
6.692260e+002,1.005406e+001
6.701902e+002,1.064525e+001
6.711544e+002,1.128102e+001
6.721187e+002,1.120146e+001
6.730829e+002,1.016593e+001
6.740471e+002,8.971313e+000
6.750114e+002,8.691467e+000
6.759756e+002,9.017224e+000
6.769398e+002,9.880468e+000
6.779041e+002,1.118279e+001
6.788683e+002,1.262850e+001
6.798325e+002,1.369995e+001
6.807968e+002,1.431960e+001
6.817610e+002,1.464945e+001
6.827252e+002,1.437828e+001
6.836895e+002,1.408817e+001
6.846537e+002,1.445789e+001
6.856179e+002,1.569659e+001
6.865822e+002,1.623027e+001
6.875464e+002,1.505245e+001
6.885106e+002,1.379581e+001
6.894749e+002,1.309879e+001
6.904391e+002,1.301587e+001
6.914034e+002,1.320339e+001
6.923676e+002,1.331440e+001
6.933318e+002,1.370345e+001
6.942961e+002,1.502401e+001
6.952603e+002,1.700779e+001
6.962245e+002,1.876138e+001
6.971888e+002,1.944362e+001
6.981530e+002,1.899775e+001
6.991172e+002,1.906798e+001
7.000815e+002,1.973146e+001
7.010457e+002,2.051315e+001
7.020099e+002,2.111097e+001
7.029742e+002,2.171173e+001
7.039384e+002,2.316553e+001
7.049026e+002,2.714388e+001
7.058669e+002,2.975146e+001
7.068311e+002,2.865312e+001
7.077953e+002,2.615933e+001
7.087596e+002,2.540306e+001
7.097238e+002,2.816493e+001
7.106880e+002,3.185149e+001
7.116523e+002,3.203080e+001
7.126165e+002,3.027330e+001
7.135807e+002,2.867849e+001
7.145450e+002,2.808442e+001
7.155092e+002,2.814058e+001
7.164734e+002,2.782600e+001
7.174377e+002,2.700631e+001
7.184019e+002,2.594727e+001
7.193661e+002,2.415696e+001
7.203304e+002,2.235148e+001
7.212946e+002,2.138010e+001
7.222589e+002,2.150658e+001
7.232231e+002,2.178693e+001
7.241873e+002,2.200180e+001
7.251516e+002,2.216359e+001
7.261158e+002,2.225998e+001
7.270800e+002,2.224951e+001
7.280443e+002,2.210729e+001
7.290085e+002,2.192184e+001
7.299727e+002,2.150881e+001
7.309370e+002,2.030214e+001
7.319012e+002,1.847416e+001
7.328654e+002,1.698118e+001
7.338297e+002,1.673221e+001
7.347939e+002,1.779313e+001
7.357581e+002,1.829814e+001
7.367224e+002,1.748939e+001
7.376866e+002,1.717133e+001
7.386508e+002,1.825041e+001
7.396151e+002,2.018198e+001
7.405793e+002,2.142643e+001
7.415435e+002,2.129489e+001
7.425078e+002,2.094449e+001
7.434720e+002,2.058899e+001
7.444362e+002,2.037753e+001
7.454005e+002,2.056250e+001
7.463647e+002,2.122678e+001
7.473289e+002,2.203367e+001
7.482932e+002,2.242406e+001
7.492574e+002,2.250445e+001
7.502216e+002,2.222454e+001
7.511859e+002,2.147985e+001
7.521501e+002,2.061623e+001
7.531143e+002,2.037934e+001
7.540786e+002,2.136145e+001
7.550428e+002,2.165126e+001
7.560070e+002,2.047517e+001
7.569713e+002,1.946708e+001
7.579355e+002,2.001278e+001
7.588997e+002,2.200419e+001
7.598640e+002,2.319955e+001
7.608282e+002,2.121052e+001
7.617924e+002,1.932090e+001
7.627567e+002,1.930128e+001
7.637209e+002,2.072474e+001
7.646851e+002,2.255829e+001
7.656494e+002,2.397324e+001
7.666136e+002,2.507862e+001
7.675778e+002,2.667160e+001
7.685421e+002,2.868387e+001
7.695063e+002,2.957405e+001
7.704705e+002,2.823919e+001
7.714348e+002,2.537880e+001
7.723990e+002,2.383545e+001
7.733632e+002,2.465326e+001
7.743275e+002,2.524336e+001
7.752917e+002,2.527333e+001
7.762559e+002,2.516875e+001
7.772202e+002,2.503354e+001
7.781844e+002,2.489077e+001
7.791486e+002,2.554962e+001
7.801129e+002,2.950837e+001
7.810771e+002,3.342387e+001
7.820413e+002,3.445275e+001
7.830056e+002,3.287469e+001
7.839698e+002,3.095377e+001
7.849340e+002,3.127840e+001
7.858983e+002,3.378837e+001
7.868625e+002,3.575923e+001
7.878267e+002,3.715571e+001
7.887910e+002,3.823911e+001
7.897552e+002,3.919778e+001
7.907194e+002,4.002611e+001
7.916837e+002,4.046091e+001
7.926479e+002,3.966338e+001
7.936121e+002,3.949591e+001
7.945764e+002,4.065800e+001
7.955406e+002,4.238384e+001
7.965048e+002,4.383759e+001
7.974691e+002,4.472765e+001
7.984333e+002,4.566328e+001
7.993975e+002,4.756121e+001
8.003618e+002,4.973998e+001
8.013260e+002,5.135552e+001
8.022902e+002,5.232429e+001
8.032545e+002,5.333382e+001
8.042187e+002,5.549340e+001
8.051829e+002,5.920760e+001
8.061472e+002,6.185717e+001
8.071114e+002,6.221405e+001
8.080756e+002,6.296626e+001
8.090399e+002,6.562401e+001
8.100041e+002,7.001576e+001
8.109683e+002,7.468131e+001
8.119326e+002,7.890950e+001
8.128968e+002,8.383807e+001
8.138610e+002,9.009709e+001
8.148253e+002,9.711962e+001
8.157895e+002,1.042776e+002
8.167537e+002,1.112832e+002
8.177180e+002,1.179895e+002
8.186822e+002,1.239897e+002
8.196464e+002,1.295717e+002
8.206107e+002,1.356098e+002
8.215749e+002,1.423247e+002
8.225391e+002,1.486050e+002
8.235034e+002,1.528489e+002
8.244676e+002,1.551774e+002
8.254318e+002,1.544027e+002
8.263961e+002,1.502482e+002
8.273603e+002,1.447395e+002
8.283245e+002,1.375987e+002
8.292888e+002,1.295508e+002
8.302530e+002,1.231932e+002
8.312172e+002,1.208150e+002
8.321815e+002,1.187241e+002
8.331457e+002,1.141034e+002
8.341099e+002,1.084370e+002
8.350742e+002,1.036096e+002
8.360384e+002,1.005617e+002
8.370026e+002,9.871376e+001
8.379669e+002,9.695751e+001
8.389311e+002,9.524488e+001
8.398953e+002,9.204533e+001
8.408596e+002,8.668985e+001
8.418238e+002,8.049352e+001
8.427880e+002,7.461153e+001
8.437523e+002,6.869933e+001
8.447165e+002,6.505925e+001
8.456807e+002,6.585818e+001
8.466450e+002,6.683592e+001
8.476092e+002,6.691245e+001
8.485734e+002,6.588734e+001
8.495377e+002,6.358828e+001
8.505019e+002,5.960637e+001
8.514661e+002,5.563779e+001
8.524304e+002,5.428197e+001
8.533946e+002,5.433439e+001
8.543588e+002,5.391438e+001
8.553231e+002,5.231923e+001
8.562873e+002,5.042029e+001
8.572515e+002,5.019346e+001
8.582158e+002,5.260631e+001
8.591800e+002,5.363924e+001
8.601442e+002,5.213540e+001
8.611085e+002,5.042307e+001
8.620727e+002,5.027525e+001
8.630369e+002,5.163712e+001
8.640012e+002,5.265709e+001
8.649654e+002,5.285574e+001
8.659296e+002,5.221517e+001
8.668939e+002,4.973721e+001
8.678581e+002,4.683985e+001
8.688223e+002,4.555018e+001
8.697866e+002,4.683076e+001
8.707508e+002,4.935264e+001
8.717150e+002,5.050856e+001
8.726793e+002,5.049215e+001
8.736435e+002,5.019490e+001
8.746077e+002,4.978112e+001
8.755720e+002,4.909142e+001
8.765362e+002,4.775190e+001
8.775004e+002,4.547507e+001
8.784647e+002,4.387693e+001
8.794289e+002,4.324001e+001
8.803931e+002,4.286037e+001
8.813574e+002,4.293467e+001
8.823216e+002,4.301768e+001
8.832858e+002,4.229154e+001
8.842501e+002,4.031674e+001
8.852143e+002,3.796005e+001
8.861785e+002,3.568226e+001
8.871428e+002,3.363845e+001
8.881070e+002,3.209508e+001
8.890712e+002,3.112780e+001
8.900355e+002,3.065867e+001
8.909997e+002,3.061822e+001
8.919639e+002,3.115589e+001
8.929282e+002,3.104842e+001
8.938924e+002,2.971349e+001
8.948566e+002,2.858014e+001
8.958209e+002,2.880997e+001
8.967851e+002,2.994027e+001
8.977493e+002,2.984148e+001
8.987136e+002,2.705780e+001
8.996778e+002,2.458807e+001
9.006420e+002,2.358408e+001
9.016063e+002,2.339001e+001
9.025705e+002,2.377661e+001
9.035347e+002,2.445001e+001
9.044990e+002,2.466733e+001
9.054632e+002,2.321598e+001
9.064274e+002,2.046644e+001
9.073917e+002,1.850044e+001
9.083559e+002,1.741457e+001
9.093201e+002,1.660145e+001
9.102844e+002,1.546264e+001
9.112486e+002,1.405119e+001
9.122128e+002,1.355048e+001
9.131771e+002,1.522886e+001
9.141413e+002,1.619231e+001
9.151055e+002,1.596493e+001
9.160698e+002,1.508464e+001
9.170340e+002,1.379276e+001
9.179982e+002,1.219360e+001
9.189625e+002,1.103032e+001
9.199267e+002,1.147601e+001
9.208909e+002,1.225275e+001
9.218552e+002,1.202985e+001
9.228194e+002,1.099463e+001
9.237836e+002,9.965693e+000
9.247479e+002,9.587912e+000
9.257121e+002,9.731833e+000
9.266763e+002,9.632428e+000
9.276406e+002,9.081119e+000
9.286048e+002,8.724859e+000
9.295690e+002,8.640177e+000
9.305333e+002,8.775213e+000
9.314975e+002,9.373941e+000
9.324617e+002,1.058148e+001
9.334260e+002,1.078508e+001
9.343902e+002,7.085681e+000
9.353545e+002,4.224542e+000
9.363187e+002,4.980130e+000
9.372830e+002,8.033976e+000
9.382472e+002,1.084385e+001
9.392114e+002,1.183305e+001
9.401757e+002,1.169236e+001
9.411399e+002,1.186746e+001
9.421041e+002,1.223888e+001
9.430684e+002,1.215452e+001
9.440326e+002,1.130179e+001
9.449968e+002,1.025562e+001
9.459611e+002,9.683746e+000
9.469253e+002,9.617462e+000
9.478895e+002,1.026795e+001
9.488538e+002,1.276256e+001
9.498180e+002,1.464301e+001
9.507822e+002,1.499156e+001
9.517465e+002,1.434724e+001
9.527107e+002,1.343835e+001
9.536749e+002,1.255883e+001
9.546392e+002,1.194503e+001
9.556034e+002,1.151813e+001
9.565676e+002,1.168341e+001
9.575319e+002,1.369017e+001
9.584961e+002,1.742716e+001
9.594603e+002,2.089268e+001
9.604246e+002,2.186633e+001
9.613888e+002,2.030798e+001
9.623530e+002,1.968176e+001
9.633173e+002,1.987743e+001
9.642815e+002,2.111134e+001
9.652457e+002,2.364124e+001
9.662100e+002,2.722722e+001
9.671742e+002,3.086718e+001
9.681384e+002,3.418585e+001
9.691027e+002,4.049846e+001
9.700669e+002,5.390090e+001
9.710311e+002,6.975092e+001
9.719954e+002,8.899934e+001
9.729596e+002,1.081237e+002
9.739238e+002,1.203633e+002
9.748881e+002,1.211754e+002
9.758523e+002,1.127144e+002
9.768165e+002,1.012702e+002
9.777808e+002,8.591788e+001
9.787450e+002,7.283059e+001
9.797092e+002,6.306277e+001
9.806735e+002,5.543112e+001
9.816377e+002,4.893930e+001
9.826019e+002,4.360691e+001
9.835662e+002,3.951694e+001
9.845304e+002,3.742684e+001
9.854946e+002,3.591978e+001
9.864589e+002,3.438841e+001
9.874231e+002,3.321638e+001
9.883873e+002,3.300971e+001
9.893516e+002,3.388747e+001
9.903158e+002,3.516278e+001
9.912800e+002,3.577388e+001
9.922443e+002,3.628301e+001
9.932085e+002,3.853006e+001
9.941727e+002,4.268996e+001
9.951370e+002,4.765060e+001
9.961012e+002,5.193887e+001
9.970654e+002,5.582323e+001
9.980297e+002,6.239466e+001
9.989939e+002,6.956548e+001
9.999581e+002,8.419314e+001
1.000922e+003,1.007290e+002
1.001887e+003,1.292346e+002
1.002851e+003,1.824066e+002
1.003815e+003,2.569097e+002
1.004779e+003,3.380811e+002
1.005744e+003,4.280071e+002
1.006708e+003,4.949821e+002
1.007672e+003,4.886272e+002
1.008636e+003,4.295056e+002
1.009600e+003,3.569097e+002
1.010565e+003,2.871544e+002
1.011529e+003,2.235977e+002
1.012493e+003,1.743105e+002
1.013457e+003,1.426605e+002
1.014422e+003,1.167702e+002
1.015386e+003,9.632172e+001
1.016350e+003,8.029347e+001
1.017314e+003,6.969016e+001
1.018279e+003,6.274918e+001
1.019243e+003,5.638052e+001
1.020207e+003,4.958814e+001
1.021171e+003,4.355553e+001
1.022135e+003,3.954635e+001
1.023100e+003,3.661082e+001
1.024064e+003,3.416717e+001
1.025028e+003,3.200622e+001
1.025992e+003,3.011740e+001
1.026957e+003,2.851152e+001
1.027921e+003,2.714274e+001
1.028885e+003,2.536873e+001
1.029849e+003,2.259736e+001
1.030814e+003,2.079598e+001
1.031778e+003,2.041876e+001
1.032742e+003,2.073953e+001
1.033706e+003,2.146865e+001
1.034671e+003,2.257624e+001
1.035635e+003,2.293380e+001
1.036599e+003,2.135620e+001
1.037563e+003,1.987002e+001
1.038527e+003,1.980748e+001
1.039492e+003,2.034360e+001
1.040456e+003,2.034194e+001
1.041420e+003,1.942370e+001
1.042384e+003,1.812205e+001
1.043349e+003,1.713555e+001
1.044313e+003,1.652318e+001
1.045277e+003,1.701643e+001
1.046241e+003,1.911892e+001
1.047206e+003,2.072366e+001
1.048170e+003,2.034503e+001
1.049134e+003,1.885850e+001
1.050098e+003,1.845861e+001
1.051063e+003,1.962727e+001
1.052027e+003,2.104490e+001
1.052991e+003,2.270934e+001
1.053955e+003,2.393087e+001
1.054919e+003,2.438489e+001
1.055884e+003,2.405470e+001
1.056848e+003,2.275677e+001
1.057812e+003,2.042376e+001
1.058776e+003,1.810057e+001
1.059741e+003,1.824703e+001
1.060705e+003,2.042849e+001
1.061669e+003,2.155917e+001
1.062633e+003,2.108236e+001
1.063598e+003,1.997146e+001
1.064562e+003,1.906325e+001
1.065526e+003,1.839244e+001
1.066490e+003,1.768003e+001
1.067454e+003,1.632182e+001
1.068419e+003,1.592182e+001
1.069383e+003,1.715696e+001
1.070347e+003,1.899899e+001
1.071311e+003,2.126657e+001
1.072276e+003,2.346213e+001
1.073240e+003,2.426291e+001
1.074204e+003,2.236919e+001
1.075168e+003,1.923182e+001
1.076133e+003,1.821253e+001
1.077097e+003,1.881534e+001
1.078061e+003,1.964009e+001
1.079025e+003,2.035612e+001
1.079990e+003,2.084504e+001
1.080954e+003,2.083691e+001
1.081918e+003,2.021496e+001
1.082882e+003,1.992973e+001
1.083846e+003,2.012920e+001
1.084811e+003,2.052736e+001
1.085775e+003,2.136761e+001
1.086739e+003,2.219900e+001
1.087703e+003,2.243633e+001
1.088668e+003,2.208265e+001
1.089632e+003,2.199397e+001
1.090596e+003,2.309935e+001
1.091560e+003,2.453228e+001
1.092525e+003,2.442141e+001
1.093489e+003,2.312306e+001
1.094453e+003,2.218079e+001
1.095417e+003,2.233834e+001
1.096381e+003,2.313667e+001
1.097346e+003,2.370446e+001
1.098310e+003,2.409387e+001
1.099274e+003,2.404166e+001
1.100238e+003,2.287114e+001
1.101203e+003,2.218130e+001
1.102167e+003,2.304802e+001
1.103131e+003,2.434138e+001
1.104095e+003,2.429901e+001
1.105060e+003,2.250805e+001
1.106024e+003,2.066848e+001
1.106988e+003,2.012831e+001
1.107952e+003,2.076624e+001
1.108917e+003,2.265260e+001
1.109881e+003,2.535994e+001
1.110845e+003,2.725430e+001
1.111809e+003,2.739154e+001
1.112773e+003,2.641924e+001
1.113738e+003,2.590229e+001
1.114702e+003,2.616734e+001
1.115666e+003,2.616061e+001
1.116630e+003,2.527982e+001
1.117595e+003,2.478589e+001
1.118559e+003,2.536277e+001
1.119523e+003,2.649481e+001
1.120487e+003,2.753989e+001
1.121452e+003,2.831449e+001
1.122416e+003,2.859996e+001
1.123380e+003,2.769191e+001
1.124344e+003,2.652473e+001
1.125308e+003,2.662489e+001
1.126273e+003,2.774670e+001
1.127237e+003,2.871208e+001
1.128201e+003,2.886212e+001
1.129165e+003,2.855644e+001
1.130130e+003,2.867846e+001
1.131094e+003,2.948850e+001
1.132058e+003,2.970477e+001
1.133022e+003,2.885258e+001
1.133987e+003,2.815184e+001
1.134951e+003,2.813007e+001
1.135915e+003,2.850933e+001
1.136879e+003,2.891264e+001
1.137844e+003,2.922293e+001
1.138808e+003,2.931457e+001
1.139772e+003,2.880025e+001
1.140736e+003,2.814877e+001
1.141700e+003,2.796318e+001
1.142665e+003,2.830129e+001
1.143629e+003,2.941082e+001
1.144593e+003,3.149917e+001
1.145557e+003,3.370850e+001
1.146522e+003,3.413179e+001
1.147486e+003,3.194254e+001
1.148450e+003,3.093993e+001
1.149414e+003,3.227864e+001
1.150379e+003,3.338634e+001
1.151343e+003,3.352209e+001
1.152307e+003,3.316918e+001
1.153271e+003,3.277171e+001
1.154235e+003,3.242411e+001
1.155200e+003,3.222150e+001
1.156164e+003,3.219152e+001
1.157128e+003,3.264053e+001
1.158092e+003,3.435249e+001
1.159057e+003,3.669067e+001
1.160021e+003,3.784808e+001
1.160985e+003,3.709377e+001
1.161949e+003,3.574158e+001
1.162914e+003,3.581749e+001
1.163878e+003,3.752748e+001
1.164842e+003,3.904131e+001
1.165806e+003,4.024630e+001
1.166771e+003,4.130044e+001
1.167735e+003,4.218926e+001
1.168699e+003,4.297489e+001
1.169663e+003,4.362915e+001
1.170627e+003,4.420856e+001
1.171592e+003,4.497727e+001
1.172556e+003,4.620499e+001
1.173520e+003,4.746395e+001
1.174484e+003,4.766891e+001
1.175449e+003,4.745823e+001
1.176413e+003,4.837948e+001
1.177377e+003,5.076389e+001
1.178341e+003,5.313784e+001
1.179306e+003,5.385502e+001
1.180270e+003,5.316344e+001
1.181234e+003,5.370752e+001
1.182198e+003,5.690552e+001
1.183162e+003,5.869747e+001
1.184127e+003,5.768354e+001
1.185091e+003,5.631210e+001
1.186055e+003,5.637064e+001
1.187019e+003,5.736723e+001
1.187984e+003,5.771196e+001
1.188948e+003,5.663463e+001
1.189912e+003,5.482058e+001
1.190876e+003,5.276204e+001
1.191841e+003,5.086034e+001
1.192805e+003,5.034013e+001
1.193769e+003,5.125054e+001
1.194733e+003,5.161689e+001
1.195698e+003,4.984538e+001
1.196662e+003,4.696458e+001
1.197626e+003,4.593518e+001
1.198590e+003,4.753046e+001
1.199554e+003,4.804572e+001
1.200519e+003,4.535628e+001
1.201483e+003,4.363435e+001
1.202447e+003,4.506417e+001
1.203411e+003,4.778155e+001
1.204376e+003,4.954860e+001
1.205340e+003,4.965423e+001
1.206304e+003,4.856765e+001
1.207268e+003,4.662229e+001
1.208233e+003,4.437424e+001
1.209197e+003,4.322599e+001
1.210161e+003,4.297078e+001
1.211125e+003,4.280141e+001
1.212089e+003,4.243044e+001
1.213054e+003,4.201336e+001
1.214018e+003,4.175561e+001
1.214982e+003,4.175450e+001
1.215946e+003,4.215191e+001
1.216911e+003,4.291342e+001
1.217875e+003,4.404675e+001
1.218839e+003,4.663672e+001
1.219803e+003,4.848581e+001
1.220768e+003,4.713326e+001
1.221732e+003,4.381870e+001
1.222696e+003,4.194228e+001
1.223660e+003,4.333815e+001
1.224625e+003,4.601134e+001
1.225589e+003,4.624942e+001
1.226553e+003,4.396227e+001
1.227517e+003,4.385725e+001
1.228481e+003,4.701289e+001
1.229446e+003,4.967495e+001
1.230410e+003,4.999359e+001
1.231374e+003,4.885933e+001
1.232338e+003,4.742375e+001
1.233303e+003,4.573436e+001
1.234267e+003,4.507966e+001
1.235231e+003,4.673420e+001
1.236195e+003,4.841174e+001
1.237160e+003,4.864570e+001
1.238124e+003,4.821012e+001
1.239088e+003,4.816457e+001
1.240052e+003,4.869721e+001
1.241016e+003,4.912850e+001
1.241981e+003,4.877079e+001
1.242945e+003,4.796671e+001
1.243909e+003,4.838947e+001
1.244873e+003,5.126962e+001
1.245838e+003,5.234327e+001
1.246802e+003,4.995792e+001
1.247766e+003,4.752584e+001
1.248730e+003,4.692988e+001
1.249695e+003,4.768948e+001
1.250659e+003,4.886692e+001
1.251623e+003,5.033416e+001
1.252587e+003,5.123476e+001
1.253552e+003,5.048893e+001
1.254516e+003,4.933917e+001
1.255480e+003,4.892110e+001
1.256444e+003,4.912469e+001
1.257408e+003,4.981806e+001
1.258373e+003,5.091056e+001
1.259337e+003,5.172981e+001
1.260301e+003,5.124118e+001
1.261265e+003,4.946562e+001
1.262230e+003,4.835351e+001
1.263194e+003,4.767703e+001
1.264158e+003,4.789041e+001
1.265122e+003,4.979538e+001
1.266087e+003,5.186811e+001
1.267051e+003,5.340792e+001
1.268015e+003,5.428289e+001
1.268979e+003,5.425765e+001
1.269943e+003,5.320022e+001
1.270908e+003,5.211092e+001
1.271872e+003,5.199552e+001
1.272836e+003,5.268701e+001
1.273800e+003,5.382942e+001
1.274765e+003,5.536934e+001
1.275729e+003,5.673419e+001
1.276693e+003,5.777401e+001
1.277657e+003,5.827925e+001
1.278622e+003,5.758544e+001
1.279586e+003,5.554736e+001
1.280550e+003,5.445362e+001
1.281514e+003,5.537706e+001
1.282479e+003,5.614152e+001
1.283443e+003,5.600923e+001
1.284407e+003,5.560344e+001
1.285371e+003,5.511301e+001
1.286335e+003,5.474850e+001
1.287300e+003,5.500006e+001
1.288264e+003,5.613088e+001
1.289228e+003,5.751577e+001
1.290192e+003,5.811510e+001
1.291157e+003,5.792904e+001
1.292121e+003,5.763274e+001
1.293085e+003,5.706294e+001
1.294049e+003,5.653603e+001
1.295014e+003,5.608424e+001
1.295978e+003,5.594435e+001
1.296942e+003,5.632871e+001
1.297906e+003,5.726610e+001
1.298870e+003,5.896120e+001
1.299835e+003,6.194683e+001
1.300799e+003,6.434733e+001
1.301763e+003,6.484668e+001
1.302727e+003,6.430956e+001
1.303692e+003,6.289386e+001
1.304656e+003,6.126905e+001
1.305620e+003,6.097083e+001
1.306584e+003,6.281649e+001
1.307549e+003,6.556639e+001
1.308513e+003,6.682430e+001
1.309477e+003,6.625787e+001
1.310441e+003,6.639986e+001
1.311406e+003,6.835876e+001
1.312370e+003,6.957236e+001
1.313334e+003,6.907912e+001
1.314298e+003,6.824375e+001
1.315263e+003,6.827750e+001
1.316227e+003,6.902708e+001
1.317191e+003,6.958842e+001
1.318155e+003,6.956700e+001
1.319120e+003,6.930431e+001
1.320084e+003,6.912395e+001
1.321048e+003,6.895390e+001
1.322012e+003,6.854523e+001
1.322976e+003,6.794519e+001
1.323941e+003,6.791101e+001
1.324905e+003,6.915597e+001
1.325869e+003,7.055892e+001
1.326833e+003,7.002573e+001
1.327798e+003,6.755650e+001
1.328762e+003,6.644643e+001
1.329726e+003,6.757255e+001
1.330690e+003,6.887709e+001
1.331655e+003,7.021836e+001
1.332619e+003,7.113980e+001
1.333583e+003,7.099552e+001
1.334547e+003,7.026229e+001
1.335511e+003,6.998705e+001
1.336476e+003,7.052345e+001
1.337440e+003,7.098238e+001
1.338404e+003,7.021456e+001
1.339368e+003,6.847832e+001
1.340333e+003,6.773055e+001
1.341297e+003,6.817432e+001
1.342261e+003,6.869295e+001
1.343225e+003,6.938873e+001
1.344190e+003,6.993987e+001
1.345154e+003,7.006258e+001
1.346118e+003,6.988879e+001
1.347082e+003,6.974850e+001
1.348047e+003,6.970134e+001
1.349011e+003,6.944913e+001
1.349975e+003,6.856548e+001
1.350939e+003,6.777048e+001
1.351903e+003,6.770552e+001
1.352868e+003,6.824776e+001
1.353832e+003,6.934274e+001
1.354796e+003,7.092998e+001
1.355760e+003,7.239238e+001
1.356725e+003,7.315053e+001
1.357689e+003,7.330656e+001
1.358653e+003,7.322426e+001
1.359617e+003,7.272905e+001
1.360582e+003,7.249650e+001
1.361546e+003,7.275160e+001
1.362510e+003,7.300470e+001
1.363474e+003,7.330275e+001
1.364438e+003,7.354150e+001
1.365403e+003,7.329524e+001
1.366367e+003,7.269470e+001
1.367331e+003,7.258014e+001
1.368295e+003,7.352586e+001
1.369260e+003,7.480918e+001
1.370224e+003,7.512419e+001
1.371188e+003,7.460508e+001
1.372152e+003,7.481343e+001
1.373117e+003,7.587217e+001
1.374081e+003,7.681682e+001
1.375045e+003,7.732536e+001
1.376009e+003,7.759435e+001
1.376974e+003,7.802023e+001
1.377938e+003,7.852209e+001
1.378902e+003,7.817509e+001
1.379866e+003,7.628894e+001
1.380830e+003,7.484718e+001
1.381795e+003,7.581588e+001
1.382759e+003,7.745998e+001
1.383723e+003,7.846657e+001
1.384687e+003,7.886885e+001
1.385652e+003,7.887447e+001
1.386616e+003,7.856996e+001
1.387580e+003,7.824287e+001
1.388544e+003,7.822639e+001
1.389509e+003,7.845071e+001
1.390473e+003,7.863120e+001
1.391437e+003,7.874398e+001
1.392401e+003,7.914153e+001
1.393365e+003,7.970491e+001
1.394330e+003,8.055697e+001
1.395294e+003,8.249873e+001
1.396258e+003,8.421028e+001
1.397222e+003,8.381281e+001
1.398187e+003,8.158089e+001
1.399151e+003,7.955131e+001
1.400115e+003,7.903984e+001
1.401079e+003,7.979017e+001
1.402044e+003,8.176276e+001
1.403008e+003,8.494139e+001
1.403972e+003,8.607799e+001
1.404936e+003,8.416670e+001
1.405901e+003,8.298079e+001
1.406865e+003,8.456117e+001
1.407829e+003,8.666280e+001
1.408793e+003,8.663102e+001
1.409757e+003,8.499469e+001
1.410722e+003,8.437723e+001
1.411686e+003,8.547862e+001
1.412650e+003,8.703886e+001
1.413614e+003,8.867387e+001
1.414579e+003,9.006776e+001
1.415543e+003,9.089809e+001
1.416507e+003,9.123789e+001
1.417471e+003,9.099729e+001
1.418436e+003,9.010889e+001
1.419400e+003,8.937657e+001
1.420364e+003,8.969749e+001
1.421328e+003,9.095600e+001
1.422292e+003,9.245848e+001
1.423257e+003,9.431080e+001
1.424221e+003,9.566732e+001
1.425185e+003,9.616195e+001
1.426149e+003,9.626133e+001
1.427114e+003,9.608456e+001
1.428078e+003,9.588759e+001
1.429042e+003,9.540668e+001
1.430006e+003,9.495087e+001
1.430971e+003,9.563549e+001
1.431935e+003,9.794286e+001
1.432899e+003,1.005156e+002
1.433863e+003,1.013987e+002
1.434828e+003,1.007815e+002
1.435792e+003,1.002877e+002
1.436756e+003,9.949257e+001
1.437720e+003,9.922614e+001
1.438684e+003,1.001480e+002
1.439649e+003,1.012010e+002
1.440613e+003,1.018206e+002
1.441577e+003,1.021656e+002
1.442541e+003,1.023690e+002
1.443506e+003,1.024414e+002
1.444470e+003,1.027499e+002
1.445434e+003,1.036907e+002
1.446398e+003,1.047373e+002
1.447363e+003,1.050737e+002
1.448327e+003,1.048113e+002
1.449291e+003,1.041448e+002
1.450255e+003,1.030970e+002
1.451219e+003,1.026313e+002
1.452184e+003,1.034601e+002
1.453148e+003,1.047188e+002
1.454112e+003,1.051021e+002
1.455076e+003,1.048406e+002
1.456041e+003,1.056986e+002
1.457005e+003,1.084450e+002
1.457969e+003,1.105496e+002
1.458933e+003,1.098611e+002
1.459898e+003,1.093152e+002
1.460862e+003,1.115780e+002
1.461826e+003,1.147187e+002
1.462790e+003,1.156740e+002
1.463755e+003,1.140614e+002
1.464719e+003,1.116968e+002
1.465683e+003,1.098430e+002
1.466647e+003,1.087369e+002
1.467611e+003,1.090401e+002
1.468576e+003,1.109662e+002
1.469540e+003,1.123747e+002
1.470504e+003,1.130252e+002
1.471468e+003,1.136464e+002
1.472433e+003,1.145680e+002
1.473397e+003,1.152006e+002
1.474361e+003,1.151305e+002
1.475325e+003,1.145777e+002
1.476290e+003,1.136796e+002
1.477254e+003,1.126065e+002
1.478218e+003,1.118194e+002
1.479182e+003,1.117313e+002
1.480146e+003,1.123001e+002
1.481111e+003,1.134628e+002
1.482075e+003,1.153211e+002
1.483039e+003,1.159259e+002
1.484003e+003,1.146567e+002
1.484968e+003,1.132896e+002
1.485932e+003,1.122755e+002
1.486896e+003,1.114592e+002
1.487860e+003,1.103332e+002
1.488825e+003,1.092165e+002
1.489789e+003,1.091931e+002
1.490753e+003,1.105124e+002
1.491717e+003,1.120041e+002
1.492682e+003,1.130241e+002
1.493646e+003,1.134664e+002
1.494610e+003,1.128961e+002
1.495574e+003,1.115893e+002
1.496538e+003,1.103118e+002
1.497503e+003,1.090903e+002
1.498467e+003,1.084549e+002
1.499431e+003,1.091364e+002
1.500395e+003,1.100675e+002
1.501360e+003,1.097280e+002
1.502324e+003,1.085269e+002
1.503288e+003,1.082703e+002
1.504252e+003,1.093841e+002
1.505217e+003,1.101009e+002
1.506181e+003,1.092245e+002
1.507145e+003,1.081634e+002
1.508109e+003,1.082784e+002
1.509073e+003,1.089247e+002
1.510038e+003,1.090028e+002
1.511002e+003,1.083949e+002
1.511966e+003,1.077208e+002
1.512930e+003,1.073667e+002
1.513895e+003,1.073037e+002
1.514859e+003,1.075293e+002
1.515823e+003,1.079437e+002
1.516787e+003,1.076135e+002
1.517752e+003,1.058503e+002
1.518716e+003,1.054202e+002
1.519680e+003,1.088974e+002
1.520644e+003,1.115298e+002
1.521609e+003,1.107106e+002
1.522573e+003,1.081739e+002
1.523537e+003,1.058314e+002
1.524501e+003,1.041718e+002
1.525465e+003,1.027721e+002
1.526430e+003,1.013549e+002
1.527394e+003,1.002991e+002
1.528358e+003,1.002935e+002
1.529322e+003,1.013308e+002
1.530287e+003,1.029433e+002
1.531251e+003,1.064095e+002
1.532215e+003,1.080402e+002
1.533179e+003,1.066925e+002
1.534144e+003,1.049424e+002
1.535108e+003,1.032603e+002
1.536072e+003,1.019963e+002
1.537036e+003,1.016405e+002
1.538000e+003,1.019930e+002
1.538965e+003,1.026733e+002
1.539929e+003,1.033573e+002
1.540893e+003,1.030021e+002
1.541857e+003,1.002872e+002
1.542822e+003,9.618278e+001
1.543786e+003,9.438983e+001
1.544750e+003,9.548347e+001
1.545714e+003,9.695673e+001
1.546679e+003,1.004043e+002
1.547643e+003,1.019641e+002
1.548607e+003,9.839415e+001
1.549571e+003,9.424548e+001
1.550536e+003,9.459706e+001
1.551500e+003,9.790801e+001
1.552464e+003,9.913190e+001
1.553428e+003,9.695541e+001
1.554392e+003,9.465058e+001
1.555357e+003,9.473940e+001
1.556321e+003,9.610001e+001
1.557285e+003,9.680340e+001
1.558249e+003,9.688339e+001
1.559214e+003,9.656620e+001
1.560178e+003,9.580057e+001
1.561142e+003,9.484496e+001
1.562106e+003,9.363490e+001
1.563071e+003,9.221460e+001
1.564035e+003,9.034736e+001
1.564999e+003,8.855437e+001
1.565963e+003,8.813831e+001
1.566927e+003,8.916553e+001
1.567892e+003,8.970363e+001
1.568856e+003,8.866043e+001
1.569820e+003,8.723820e+001
1.570784e+003,8.695192e+001
1.571749e+003,8.722997e+001
1.572713e+003,8.653826e+001
1.573677e+003,8.495124e+001
1.574641e+003,8.403432e+001
1.575606e+003,8.461533e+001
1.576570e+003,8.509930e+001
1.577534e+003,8.399496e+001
1.578498e+003,8.215019e+001
1.579463e+003,8.128167e+001
1.580427e+003,8.132790e+001
1.581391e+003,8.059605e+001
1.582355e+003,7.828896e+001
1.583319e+003,7.658707e+001
1.584284e+003,7.761613e+001
1.585248e+003,7.947251e+001
1.586212e+003,7.973055e+001
1.587176e+003,7.864024e+001
1.588141e+003,7.704239e+001
1.589105e+003,7.518564e+001
1.590069e+003,7.365910e+001
1.591033e+003,7.295860e+001
1.591998e+003,7.250942e+001
1.592962e+003,7.140505e+001
1.593926e+003,6.978460e+001
1.594890e+003,6.836374e+001
1.595854e+003,6.716976e+001
1.596819e+003,6.686149e+001
1.597783e+003,6.822128e+001
1.598747e+003,6.954498e+001
1.599711e+003,6.995206e+001
1.600676e+003,6.937064e+001
1.601640e+003,6.694806e+001
1.602604e+003,6.338561e+001
1.603568e+003,6.159349e+001
1.604533e+003,6.278436e+001
1.605497e+003,6.417623e+001
1.606461e+003,6.269124e+001
1.607425e+003,5.951840e+001
1.608390e+003,5.804789e+001
1.609354e+003,5.838588e+001
1.610318e+003,5.856154e+001
1.611282e+003,5.819228e+001
1.612246e+003,5.754276e+001
1.613211e+003,5.684721e+001
1.614175e+003,5.578804e+001
1.615139e+003,5.361282e+001
1.616103e+003,5.126118e+001
1.617068e+003,5.044493e+001
1.618032e+003,5.118855e+001
1.618996e+003,5.181026e+001
1.619960e+003,5.132195e+001
1.620925e+003,5.027236e+001
1.621889e+003,4.935777e+001
1.622853e+003,4.861422e+001
1.623817e+003,4.819039e+001
1.624781e+003,4.824140e+001
1.625746e+003,4.801432e+001
1.626710e+003,4.733572e+001
1.627674e+003,4.622966e+001
1.628638e+003,4.350720e+001
1.629603e+003,4.131206e+001
1.630567e+003,4.245436e+001
1.631531e+003,4.533030e+001
1.632495e+003,4.634722e+001
1.633460e+003,4.474393e+001
1.634424e+003,4.230813e+001
1.635388e+003,4.010307e+001
1.636352e+003,3.841286e+001
1.637317e+003,3.820795e+001
1.638281e+003,3.931052e+001
1.639245e+003,3.878874e+001
1.640209e+003,3.589488e+001
1.641173e+003,3.399715e+001
1.642138e+003,3.452123e+001
1.643102e+003,3.546048e+001
1.644066e+003,3.657258e+001
1.645030e+003,3.696465e+001
1.645995e+003,3.486656e+001
1.646959e+003,3.143666e+001
1.647923e+003,2.989359e+001
1.648887e+003,3.112939e+001
1.649852e+003,3.277108e+001
1.650816e+003,3.297706e+001
1.651780e+003,3.211092e+001
1.652744e+003,3.048754e+001
1.653708e+003,2.817223e+001
1.654673e+003,2.759877e+001
1.655637e+003,2.951926e+001
1.656601e+003,3.086858e+001
1.657565e+003,3.048310e+001
1.658530e+003,2.970659e+001
1.659494e+003,2.949464e+001
1.660458e+003,2.913470e+001
1.661422e+003,2.767446e+001
1.662387e+003,2.538351e+001
1.663351e+003,2.300721e+001
1.664315e+003,2.086156e+001
1.665279e+003,1.970179e+001
1.666244e+003,2.045766e+001
1.667208e+003,2.221906e+001
1.668172e+003,2.335679e+001
1.669136e+003,2.381450e+001
1.670100e+003,2.269061e+001
1.671065e+003,1.918333e+001
1.672029e+003,1.734094e+001
1.672993e+003,1.992376e+001
1.673957e+003,2.248338e+001
1.674922e+003,2.173664e+001
1.675886e+003,1.969935e+001
1.676850e+003,1.848312e+001
1.677814e+003,1.805711e+001
1.678779e+003,1.760685e+001
1.679743e+003,1.687885e+001
1.680707e+003,1.611171e+001
1.681671e+003,1.539236e+001
1.682635e+003,1.483355e+001
1.683600e+003,1.470492e+001
1.684564e+003,1.496707e+001
1.685528e+003,1.529136e+001
1.686492e+003,1.563917e+001
1.687457e+003,1.571079e+001
1.688421e+003,1.536500e+001
1.689385e+003,1.487654e+001
1.690349e+003,1.425689e+001
1.691314e+003,1.379896e+001
1.692278e+003,1.426484e+001
1.693242e+003,1.516903e+001
1.694206e+003,1.446246e+001
1.695171e+003,1.147299e+001
1.696135e+003,9.046789e+000
1.697099e+003,9.238419e+000
1.698063e+003,1.065702e+001
1.699027e+003,1.193014e+001
1.699992e+003,1.292965e+001
1.700956e+003,1.305937e+001
1.701920e+003,1.227303e+001
1.702884e+003,1.165114e+001
1.703849e+003,1.165365e+001
1.704813e+003,1.150903e+001
1.705777e+003,1.044346e+001
1.706741e+003,9.080713e+000
1.707706e+003,8.491510e+000
1.708670e+003,8.514737e+000
1.709634e+003,8.513208e+000
1.710598e+003,8.419016e+000
1.711563e+003,8.195993e+000
1.712527e+003,7.601541e+000
1.713491e+003,7.110089e+000
1.714455e+003,7.386087e+000
1.715419e+003,7.896158e+000
1.716384e+003,7.454025e+000
1.717348e+003,6.257584e+000
1.718312e+003,5.899719e+000
1.719276e+003,6.872726e+000
1.720241e+003,7.852109e+000
1.721205e+003,7.938806e+000
1.722169e+003,7.442679e+000
1.723133e+003,6.830359e+000
1.724098e+003,6.118661e+000
1.725062e+003,5.113254e+000
1.726026e+003,3.551034e+000
1.726990e+003,2.640704e+000
1.727954e+003,3.139850e+000
1.728919e+003,3.590741e+000
1.729883e+003,3.013715e+000
1.730847e+003,2.375101e+000
1.731811e+003,2.924622e+000
1.732776e+003,4.127225e+000
1.733740e+003,4.566260e+000
1.734704e+003,4.054828e+000
1.735668e+003,3.679633e+000
1.736633e+003,4.063110e+000
1.737597e+003,4.378018e+000
1.738561e+003,3.455325e+000
1.739525e+003,1.761746e+000
1.740490e+003,1.495575e+000
1.741454e+003,3.346191e+000
1.742418e+003,3.952579e+000
1.743382e+003,2.258835e+000
1.744346e+003,9.724396e-001
1.745311e+003,7.979706e-001
1.746275e+003,8.243622e-001
1.747239e+003,2.697266e-001
1.748203e+003,-2.023804e-001
1.749168e+003,6.769409e-001
1.750132e+003,2.412424e+000
1.751096e+003,3.104956e+000
1.752060e+003,2.160559e+000
1.753025e+003,1.170505e+000
1.753989e+003,1.636987e+000
1.754953e+003,2.839264e+000
1.755917e+003,3.122913e+000
1.756881e+003,2.471927e+000
1.757846e+003,1.568231e+000
1.758810e+003,1.529327e-001
1.759774e+003,-6.917633e-001
1.760738e+003,-5.587708e-001
1.761703e+003,-2.455963e-001
1.762667e+003,1.153442e-001
1.763631e+003,4.011719e-001
1.764595e+003,5.652191e-001
1.765560e+003,5.991303e-001
1.766524e+003,3.551025e-001
1.767488e+003,-1.056122e-001
1.768452e+003,-2.827118e-001
1.769417e+003,1.298767e-001
1.770381e+003,7.103668e-001
1.771345e+003,1.049637e+000
1.772309e+003,1.146091e+000
1.773273e+003,1.000583e+000
1.774238e+003,6.000214e-001
1.775202e+003,-2.265137e-001
1.776166e+003,-1.662756e+000
1.777130e+003,-2.085648e+000
1.778095e+003,-3.313721e-001
1.779059e+003,1.502148e+000
1.780023e+003,1.385248e+000
1.780987e+003,3.757019e-001
1.781952e+003,3.850800e-001
1.782916e+003,1.119815e+000
1.783880e+003,1.015195e+000
1.784844e+003,-4.028443e-001
1.785808e+003,-1.333661e+000
1.786773e+003,-5.863800e-001
1.787737e+003,3.962738e-001
1.788701e+003,4.345245e-001
1.789665e+003,3.746033e-002
1.790630e+003,-6.353150e-002
1.791594e+003,1.310120e-001
1.792558e+003,4.726257e-001
1.793522e+003,8.465546e-001
1.794487e+003,6.365997e-001
1.795451e+003,-5.673248e-001
1.796415e+003,-1.891959e+000
1.797379e+003,-2.142038e+000
1.798344e+003,-1.597269e+000
1.799308e+003,-1.587369e+000
1.800272e+003,-2.470547e+000
1.801236e+003,-2.563861e+000
1.802201e+003,-8.671295e-001
1.803165e+003,9.163208e-002
1.804129e+003,-7.144653e-001
1.805093e+003,-1.557532e+000
1.806057e+003,-1.412460e+000
1.807022e+003,-8.978302e-001
1.807986e+003,-7.886475e-001
1.808950e+003,-9.674103e-001
1.809914e+003,-7.588165e-001
1.810879e+003,-9.238281e-002
1.811843e+003,1.073029e-001
1.812807e+003,-8.773438e-001
1.813771e+003,-2.015418e+000
1.814736e+003,-1.458002e+000
1.815700e+003,3.850128e-001
1.816664e+003,1.063144e+000
1.817628e+003,4.818085e-001
1.818593e+003,-4.614929e-001
1.819557e+003,-1.979312e+000
1.820521e+003,-2.844452e+000
1.821485e+003,-2.200784e+000
1.822449e+003,-1.334552e+000
1.823414e+003,-1.403659e+000
1.824378e+003,-1.718161e+000
1.825342e+003,-1.109479e+000
1.826306e+003,1.246796e-001
1.827271e+003,4.038330e-001
1.828235e+003,-7.575470e-001
1.829199e+003,-1.350464e+000
1.830163e+003,4.430237e-001
1.831128e+003,2.230478e+000
1.832092e+003,1.551862e+000
1.833056e+003,-1.960175e-001
1.834020e+003,-8.491577e-001
1.834984e+003,-5.520172e-001
1.835949e+003,-2.791138e-001
1.836913e+003,-2.393707e-001
1.837877e+003,-2.343292e-001
1.838841e+003,-1.774109e-001
1.839806e+003,-5.269165e-002
1.840770e+003,1.636658e-001
1.841734e+003,4.481445e-001
1.842698e+003,7.960907e-001
1.843663e+003,1.283447e+000
1.844627e+003,1.448029e+000
1.845591e+003,8.512055e-001
1.846555e+003,5.881225e-001
1.847520e+003,6.293762e-001
1.848484e+003,1.019067e+000
1.849448e+003,2.604126e+000
1.850412e+003,3.830222e+000
1.851376e+003,2.902978e+000
1.852341e+003,9.349884e-001
1.853305e+003,-2.537293e-001
1.854269e+003,-3.542389e-001
1.855233e+003,9.243469e-002
1.856198e+003,8.261261e-001
1.857162e+003,1.761307e+000
1.858126e+003,2.960110e+000
1.859090e+003,4.025583e+000
1.860055e+003,3.929971e+000
1.861019e+003,2.854416e+000
1.861983e+003,2.064416e+000
1.862947e+003,1.638370e+000
1.863911e+003,1.381384e+000
1.864876e+003,1.225073e+000
1.865840e+003,1.470743e+000
1.866804e+003,2.483932e+000
1.867768e+003,3.598325e+000
1.868733e+003,3.963171e+000
1.869697e+003,3.848197e+000
1.870661e+003,4.215512e+000
1.871625e+003,5.074243e+000
1.872590e+003,5.256073e+000
1.873554e+003,4.128867e+000
1.874518e+003,3.401773e+000
1.875482e+003,3.851694e+000
1.876447e+003,4.483655e+000
1.877411e+003,4.942349e+000
1.878375e+003,5.086871e+000
1.879339e+003,4.338876e+000
1.880303e+003,3.277231e+000
1.881268e+003,3.271445e+000
1.882232e+003,4.411453e+000
1.883196e+003,5.605615e+000
1.884160e+003,6.237976e+000
1.885125e+003,6.289374e+000
1.886089e+003,5.625421e+000
1.887053e+003,4.678375e+000
1.888017e+003,4.808475e+000
1.888982e+003,6.043363e+000
1.889946e+003,7.071551e+000
1.890910e+003,8.001410e+000
1.891874e+003,8.106885e+000
1.892839e+003,6.738080e+000
1.893803e+003,5.655844e+000
1.894767e+003,5.766101e+000
1.895731e+003,6.415198e+000
1.896695e+003,7.361499e+000
1.897660e+003,8.250549e+000
1.898624e+003,8.403646e+000
1.899588e+003,7.874310e+000
1.900552e+003,7.257590e+000
1.901517e+003,6.529153e+000
1.902481e+003,6.132785e+000
1.903445e+003,6.392313e+000
1.904409e+003,6.910398e+000
1.905374e+003,7.627679e+000
1.906338e+003,8.341482e+000
1.907302e+003,8.982306e+000
1.908266e+003,9.275400e+000
1.909230e+003,8.506556e+000
1.910195e+003,6.875916e+000
1.911159e+003,5.493573e+000
1.912123e+003,4.922354e+000
1.913087e+003,5.182462e+000
1.914052e+003,6.331201e+000
1.915016e+003,7.745532e+000
1.915980e+003,8.179108e+000
1.916944e+003,7.672867e+000
1.917909e+003,6.462103e+000
1.918873e+003,4.193194e+000
1.919837e+003,3.577371e+000
1.920801e+003,5.589539e+000
1.921766e+003,7.302222e+000
1.922730e+003,7.741580e+000
1.923694e+003,7.513782e+000
1.924658e+003,6.530606e+000
1.925622e+003,5.530194e+000
1.926587e+003,5.627814e+000
1.927551e+003,6.475858e+000
1.928515e+003,6.776782e+000
1.929479e+003,6.362140e+000
1.930444e+003,5.791339e+000
1.931408e+003,4.593341e+000
1.932372e+003,4.190781e+000
1.933336e+003,6.258389e+000
1.934301e+003,8.315824e+000
1.935265e+003,8.155512e+000
1.936229e+003,6.812619e+000
1.937193e+003,5.495065e+000
1.938157e+003,4.544019e+000
1.939122e+003,4.233569e+000
1.940086e+003,4.564603e+000
1.941050e+003,5.225741e+000
1.942014e+003,6.001178e+000
1.942979e+003,6.604392e+000
1.943943e+003,6.663632e+000
1.944907e+003,6.419385e+000
1.945871e+003,6.532657e+000
1.946836e+003,7.006979e+000
1.947800e+003,7.496707e+000
1.948764e+003,7.974649e+000
1.949728e+003,8.304245e+000
1.950693e+003,8.477948e+000
1.951657e+003,8.292826e+000
1.952621e+003,7.305509e+000
1.953585e+003,6.742126e+000
1.954549e+003,8.272662e+000
1.955514e+003,1.066803e+001
1.956478e+003,1.114906e+001
1.957442e+003,9.837171e+000
1.958406e+003,8.566711e+000
1.959371e+003,7.131845e+000
1.960335e+003,6.394757e+000
1.961299e+003,6.722336e+000
1.962263e+003,7.452054e+000
1.963228e+003,8.889221e+000
1.964192e+003,1.004819e+001
1.965156e+003,1.013968e+001
1.966120e+003,9.629687e+000
1.967084e+003,8.783154e+000
1.968049e+003,8.056849e+000
1.969013e+003,8.431699e+000
1.969977e+003,9.883197e+000
1.970941e+003,1.091138e+001
1.971906e+003,1.065369e+001
1.972870e+003,9.867819e+000
1.973834e+003,9.241260e+000
1.974798e+003,8.726520e+000
1.975763e+003,8.040149e+000
1.976727e+003,7.386987e+000
1.977691e+003,7.511191e+000
1.978655e+003,8.371137e+000
1.979620e+003,9.509250e+000
1.980584e+003,1.080669e+001
1.981548e+003,1.156369e+001
1.982512e+003,1.135288e+001
1.983476e+003,1.093513e+001
1.984441e+003,1.113511e+001
1.985405e+003,1.164129e+001
1.986369e+003,1.175144e+001
1.987333e+003,1.149151e+001
1.988298e+003,1.065435e+001
1.989262e+003,8.686069e+000
1.990226e+003,7.607190e+000
1.991190e+003,7.671445e+000
1.992155e+003,8.344971e+000
1.993119e+003,1.064900e+001
1.994083e+003,1.214089e+001
1.995047e+003,1.036638e+001
1.996011e+003,8.120379e+000
1.996976e+003,8.829587e+000
1.997940e+003,1.122232e+001
1.998904e+003,1.180815e+001
1.999868e+003,1.036902e+001
2.000833e+003,1.011624e+001
2.001797e+003,1.273937e+001
2.002761e+003,1.422799e+001
2.003725e+003,1.151271e+001
2.004690e+003,8.997503e+000
2.005654e+003,1.004841e+001
2.006618e+003,1.221047e+001
2.007582e+003,1.326061e+001
2.008547e+003,1.325551e+001
2.009511e+003,1.225246e+001
2.010475e+003,1.084125e+001
2.011439e+003,1.062457e+001
2.012403e+003,1.195387e+001
2.013368e+003,1.307706e+001
2.014332e+003,1.274016e+001
2.015296e+003,1.169573e+001
2.016260e+003,1.068009e+001
2.017225e+003,9.878988e+000
2.018189e+003,9.777283e+000
2.019153e+003,1.024275e+001
2.020117e+003,1.105190e+001
2.021082e+003,1.202966e+001
2.022046e+003,1.166374e+001
2.023010e+003,9.645246e+000
2.023974e+003,8.734751e+000
2.024938e+003,1.052986e+001
2.025903e+003,1.255284e+001
2.026867e+003,1.216493e+001
2.027831e+003,1.040569e+001
2.028795e+003,9.742163e+000
2.029760e+003,1.016176e+001
2.030724e+003,1.048457e+001
2.031688e+003,1.079096e+001
2.032652e+003,1.043282e+001
2.033617e+003,8.953061e+000
2.034581e+003,7.851266e+000
2.035545e+003,7.415057e+000
2.036509e+003,7.642770e+000
2.037474e+003,8.880560e+000
2.038438e+003,1.034778e+001
2.039402e+003,1.156639e+001
2.040366e+003,1.234002e+001
2.041330e+003,1.208905e+001
2.042295e+003,1.085488e+001
2.043259e+003,9.531568e+000
2.044223e+003,7.857156e+000
2.045187e+003,7.001697e+000
2.046152e+003,7.641348e+000
2.047116e+003,8.481384e+000
2.048080e+003,9.417468e+000
2.049044e+003,9.921527e+000
2.050009e+003,9.336493e+000
2.050973e+003,8.411197e+000
2.051937e+003,7.964819e+000
2.052901e+003,7.962198e+000
2.053865e+003,8.084427e+000
2.054830e+003,8.223996e+000
2.055794e+003,8.353665e+000
2.056758e+003,8.445254e+000
2.057722e+003,8.730484e+000
2.058687e+003,9.599988e+000
2.059651e+003,1.051269e+001
2.060615e+003,1.088212e+001
2.061579e+003,1.095299e+001
2.062544e+003,1.132664e+001
2.063508e+003,1.164331e+001
2.064472e+003,1.063745e+001
2.065436e+003,8.700686e+000
2.066401e+003,7.803210e+000
2.067365e+003,8.435819e+000
2.068329e+003,9.319513e+000
2.069293e+003,9.636148e+000
2.070258e+003,9.472885e+000
2.071222e+003,8.790567e+000
2.072186e+003,8.056763e+000
2.073150e+003,8.532575e+000
2.074115e+003,9.819519e+000
2.075079e+003,1.007091e+001
2.076043e+003,9.345126e+000
2.077007e+003,8.782580e+000
2.077971e+003,8.590231e+000
2.078936e+003,8.550821e+000
2.079900e+003,8.573285e+000
2.080864e+003,8.594419e+000
2.081828e+003,8.582489e+000
2.082792e+003,8.441175e+000
2.083757e+003,7.961084e+000
2.084721e+003,7.436514e+000
2.085685e+003,8.088046e+000
2.086649e+003,1.002155e+001
2.087614e+003,1.066201e+001
2.088578e+003,9.625565e+000
2.089542e+003,9.223978e+000
2.090506e+003,9.915164e+000
2.091471e+003,1.038486e+001
2.092435e+003,1.003790e+001
2.093399e+003,9.893335e+000
2.094363e+003,1.092313e+001
2.095328e+003,1.202547e+001
2.096292e+003,1.148018e+001
2.097256e+003,9.927435e+000
2.098220e+003,9.762738e+000
2.099185e+003,1.118963e+001
2.100149e+003,1.232774e+001
2.101113e+003,1.306786e+001
2.102077e+003,1.363894e+001
2.103042e+003,1.460369e+001
2.104006e+003,1.457508e+001
2.104970e+003,1.215549e+001
2.105934e+003,9.988421e+000
2.106898e+003,9.485224e+000
2.107863e+003,9.894549e+000
2.108827e+003,1.105389e+001
2.109791e+003,1.232661e+001
2.110755e+003,1.198906e+001
2.111719e+003,1.009312e+001
2.112684e+003,9.490210e+000
2.113648e+003,1.112288e+001
2.114612e+003,1.258009e+001
2.115576e+003,1.359690e+001
2.116541e+003,1.395382e+001
2.117505e+003,1.315442e+001
2.118469e+003,1.220598e+001
2.119433e+003,1.160108e+001
2.120398e+003,1.129582e+001
2.121362e+003,1.159915e+001
2.122326e+003,1.189229e+001
2.123290e+003,1.054007e+001
2.124255e+003,8.041672e+000
2.125219e+003,7.661542e+000
2.126183e+003,1.050099e+001
2.127147e+003,1.280797e+001
2.128112e+003,1.247959e+001
2.129076e+003,1.185055e+001
2.130040e+003,1.181169e+001
2.131004e+003,1.235338e+001
2.131969e+003,1.424981e+001
2.132933e+003,1.601512e+001
2.133897e+003,1.573237e+001
2.134861e+003,1.422958e+001
2.135825e+003,1.298231e+001
2.136790e+003,1.228241e+001
2.137754e+003,1.186298e+001
2.138718e+003,1.167633e+001
2.139682e+003,1.217304e+001
2.140646e+003,1.388653e+001
2.141611e+003,1.536045e+001
2.142575e+003,1.513695e+001
2.143539e+003,1.430019e+001
2.144503e+003,1.387903e+001
2.145468e+003,1.366214e+001
2.146432e+003,1.325941e+001
2.147396e+003,1.278096e+001
2.148360e+003,1.245713e+001
2.149325e+003,1.235231e+001
2.150289e+003,1.262027e+001
2.151253e+003,1.318719e+001
2.152217e+003,1.341228e+001
2.153182e+003,1.294030e+001
2.154146e+003,1.262145e+001
2.155110e+003,1.350503e+001
2.156074e+003,1.457122e+001
2.157039e+003,1.438965e+001
2.158003e+003,1.352365e+001
2.158967e+003,1.253031e+001
2.159931e+003,1.185465e+001
2.160896e+003,1.272318e+001
2.161860e+003,1.461407e+001
2.162824e+003,1.564337e+001
2.163788e+003,1.536741e+001
2.164752e+003,1.439630e+001
2.165717e+003,1.310324e+001
2.166681e+003,1.187029e+001
2.167645e+003,1.097635e+001
2.168609e+003,1.053817e+001
2.169573e+003,1.080927e+001
2.170538e+003,1.162844e+001
2.171502e+003,1.291686e+001
2.172466e+003,1.432627e+001
2.173430e+003,1.516824e+001
2.174395e+003,1.541316e+001
2.175359e+003,1.474624e+001
2.176323e+003,1.350410e+001
2.177287e+003,1.364737e+001
2.178252e+003,1.565775e+001
2.179216e+003,1.684870e+001
2.180180e+003,1.527740e+001
2.181144e+003,1.329433e+001
2.182109e+003,1.395647e+001
2.183073e+003,1.571103e+001
2.184037e+003,1.538242e+001
2.185001e+003,1.388162e+001
2.185966e+003,1.378532e+001
2.186930e+003,1.461525e+001
2.187894e+003,1.410910e+001
2.188858e+003,1.235431e+001
2.189823e+003,1.115659e+001
2.190787e+003,1.106903e+001
2.191751e+003,1.208215e+001
2.192715e+003,1.411923e+001
2.193679e+003,1.576359e+001
2.194644e+003,1.555928e+001
2.195608e+003,1.464922e+001
2.196572e+003,1.506404e+001
2.197536e+003,1.607924e+001
2.198500e+003,1.580646e+001
2.199465e+003,1.468646e+001
2.200429e+003,1.373989e+001
2.201393e+003,1.320828e+001
2.202357e+003,1.390170e+001
2.203322e+003,1.561139e+001
2.204286e+003,1.654043e+001
2.205250e+003,1.606190e+001
2.206214e+003,1.509938e+001
2.207179e+003,1.428383e+001
2.208143e+003,1.392331e+001
2.209107e+003,1.449786e+001
2.210071e+003,1.547885e+001
2.211036e+003,1.588418e+001
2.212000e+003,1.595645e+001
2.212964e+003,1.635778e+001
2.213928e+003,1.689667e+001
2.214893e+003,1.698109e+001
2.215857e+003,1.666632e+001
2.216821e+003,1.609758e+001
2.217785e+003,1.550979e+001
2.218750e+003,1.599460e+001
2.219714e+003,1.792431e+001
2.220678e+003,1.963516e+001
2.221642e+003,1.975920e+001
2.222606e+003,1.955229e+001
2.223571e+003,2.054475e+001
2.224535e+003,2.235299e+001
2.225499e+003,2.488825e+001
2.226463e+003,2.742009e+001
2.227427e+003,2.813099e+001
2.228392e+003,2.758838e+001
2.229356e+003,2.724055e+001
2.230320e+003,2.748548e+001
2.231284e+003,2.875181e+001
2.232249e+003,3.091314e+001
2.233213e+003,3.277505e+001
2.234177e+003,3.375390e+001
2.235141e+003,3.486926e+001
2.236106e+003,3.717288e+001
2.237070e+003,3.945420e+001
2.238034e+003,3.935392e+001
2.238998e+003,3.902633e+001
2.239963e+003,4.219848e+001
2.240927e+003,4.694372e+001
2.241891e+003,4.982306e+001
2.242855e+003,5.143306e+001
2.243820e+003,5.381196e+001
2.244784e+003,5.699617e+001
2.245748e+003,5.964631e+001
2.246712e+003,6.148348e+001
2.247677e+003,6.367831e+001
2.248641e+003,6.690849e+001
2.249605e+003,6.992049e+001
2.250569e+003,7.156187e+001
2.251533e+003,7.272328e+001
2.252498e+003,7.478352e+001
2.253462e+003,7.617433e+001
2.254426e+003,7.440308e+001
2.255390e+003,7.161987e+001
2.256354e+003,7.104980e+001
2.257319e+003,7.162254e+001
2.258283e+003,7.106197e+001
2.259247e+003,6.904958e+001
2.260211e+003,6.617343e+001
2.261176e+003,6.260275e+001
2.262140e+003,5.797548e+001
2.263104e+003,5.159201e+001
2.264068e+003,4.620665e+001
2.265033e+003,4.371102e+001
2.265997e+003,4.221482e+001
2.266961e+003,4.116036e+001
2.267925e+003,4.000070e+001
2.268890e+003,3.835485e+001
2.269854e+003,3.636057e+001
2.270818e+003,3.428217e+001
2.271782e+003,3.198339e+001
2.272747e+003,2.869870e+001
2.273711e+003,2.495918e+001
2.274675e+003,2.284972e+001
2.275639e+003,2.278177e+001
2.276604e+003,2.299780e+001
2.277568e+003,2.341140e+001
2.278532e+003,2.332151e+001
2.279496e+003,2.208732e+001
2.280460e+003,2.087242e+001
2.281425e+003,2.028601e+001
2.282389e+003,1.961447e+001
2.283353e+003,1.847769e+001
2.284317e+003,1.712770e+001
2.285281e+003,1.526906e+001
2.286246e+003,1.363647e+001
2.287210e+003,1.398003e+001
2.288174e+003,1.581230e+001
2.289138e+003,1.606643e+001
2.290103e+003,1.435448e+001
2.291067e+003,1.263452e+001
2.292031e+003,1.040153e+001
2.292995e+003,9.157532e+000
2.293960e+003,9.270630e+000
2.294924e+003,9.785794e+000
2.295888e+003,1.110077e+001
2.296852e+003,1.159744e+001
2.297817e+003,9.973486e+000
2.298781e+003,8.151950e+000
2.299745e+003,7.849536e+000
2.300709e+003,8.522985e+000
2.301674e+003,9.392978e+000
2.302638e+003,1.023936e+001
2.303602e+003,9.973724e+000
2.304566e+003,8.477826e+000
2.305531e+003,7.144339e+000
2.306495e+003,5.888299e+000
2.307459e+003,5.979220e+000
2.308423e+003,7.700812e+000
2.309387e+003,9.012235e+000
2.310352e+003,9.398053e+000
2.311316e+003,9.143820e+000
2.312280e+003,8.396790e+000
2.313244e+003,7.079730e+000
2.314208e+003,4.996570e+000
2.315173e+003,3.475922e+000
2.316137e+003,4.810584e+000
2.317101e+003,7.355600e+000
2.318065e+003,5.967157e+000
2.319030e+003,2.085236e+000
2.319994e+003,1.885254e+000
2.320958e+003,4.459912e+000
2.321922e+003,6.023535e+000
2.322887e+003,6.271240e+000
2.323851e+003,5.788123e+000
2.324815e+003,4.901953e+000
2.325779e+003,4.331430e+000
2.326744e+003,4.301019e+000
2.327708e+003,4.087717e+000
2.328672e+003,3.211026e+000
2.329636e+003,2.235516e+000
2.330601e+003,1.586636e+000
2.331565e+003,1.323801e+000
2.332529e+003,1.727386e+000
2.333493e+003,2.337579e+000
2.334458e+003,2.760147e+000
2.335422e+003,2.903516e+000
2.336386e+003,2.590582e+000
2.337350e+003,2.027814e+000
2.338314e+003,1.618851e+000
2.339279e+003,1.259287e+000
2.340243e+003,2.775116e-001
2.341207e+003,-1.292227e+000
2.342171e+003,-1.996362e+000
2.343135e+003,-1.168652e+000
2.344100e+003,-4.840332e-001
2.345064e+003,-5.832703e-001
2.346028e+003,-9.140045e-001
2.346992e+003,-1.532767e+000
2.347957e+003,-1.974380e+000
2.348921e+003,-2.111429e+000
2.349885e+003,-1.897610e+000
2.350849e+003,-9.556885e-001
2.351814e+003,4.115295e-002
2.352778e+003,4.443939e-001
2.353742e+003,2.288849e-001
2.354706e+003,-8.571075e-001
2.355671e+003,-2.667361e+000
2.356635e+003,-3.410028e+000
2.357599e+003,-2.817987e+000
2.358563e+003,-2.360111e+000
2.359528e+003,-2.108218e+000
2.360492e+003,-1.764096e+000
2.361456e+003,-1.158780e+000
2.362420e+003,-9.879516e-001
2.363385e+003,-1.564963e+000
2.364349e+003,-2.102023e+000
2.365313e+003,-2.180157e+000
2.366277e+003,-2.091629e+000
2.367241e+003,-2.127460e+000
2.368206e+003,-2.014029e+000
2.369170e+003,-1.229318e+000
2.370134e+003,-1.348328e-001
2.371098e+003,2.208862e-001
2.372063e+003,-3.822632e-002
2.373027e+003,-4.719452e-001
2.373991e+003,-1.001205e+000
2.374955e+003,-1.575986e+000
2.375919e+003,-2.080273e+000
2.376884e+003,-2.102585e+000
2.377848e+003,-1.639249e+000
2.378812e+003,-9.075195e-001
2.379776e+003,-7.673340e-002
2.380741e+003,4.472900e-001
2.381705e+003,4.509186e-001
2.382669e+003,-7.612915e-002
2.383633e+003,-1.618735e+000
2.384598e+003,-2.838901e+000
2.385562e+003,-2.360150e+000
2.386526e+003,-1.565906e+000
2.387490e+003,-1.697919e+000
2.388455e+003,-1.894147e+000
2.389419e+003,-6.841736e-001
2.390383e+003,5.444977e-001
2.391347e+003,-8.160492e-001
2.392312e+003,-3.435904e+000
2.393276e+003,-3.694351e+000
2.394240e+003,-1.683270e+000
2.395204e+003,-1.050772e+000
2.396168e+003,-2.715384e+000
2.397133e+003,-3.166266e+000
2.398097e+003,-1.269244e+000
2.399061e+003,-4.242859e-002
2.400025e+003,1.539307e-001
2.400990e+003,1.585114e-001
2.401954e+003,2.463898e-001
2.402918e+003,-1.509674e-001
2.403882e+003,-1.610318e+000
2.404846e+003,-2.541306e+000
2.405811e+003,-1.497610e+000
2.406775e+003,2.118103e-001
2.407739e+003,6.849731e-001
2.408703e+003,4.224976e-001
2.409668e+003,9.877045e-001
2.410632e+003,2.023773e+000
2.411596e+003,1.115546e+000
2.412560e+003,-1.055893e+000
2.413525e+003,-1.112247e+000
2.414489e+003,5.359192e-001
2.415453e+003,1.224951e+000
2.416417e+003,8.256348e-001
2.417382e+003,8.549988e-001
2.418346e+003,1.566589e+000
2.419310e+003,1.720035e+000
2.420274e+003,8.244964e-001
2.421239e+003,2.256165e-001
2.422203e+003,8.892730e-001
2.423167e+003,1.695624e+000
2.424131e+003,1.739340e+000
2.425095e+003,1.807590e+000
2.426060e+003,2.714530e+000
2.427024e+003,3.493567e+000
2.427988e+003,3.110330e+000
2.428952e+003,2.518167e+000
2.429917e+003,2.617633e+000
2.430881e+003,3.222894e+000
2.431845e+003,4.442807e+000
2.432809e+003,5.728714e+000
2.433773e+003,5.005096e+000
2.434738e+003,2.294797e+000
2.435702e+003,1.017209e+000
2.436666e+003,1.497366e+000
2.437630e+003,2.349557e+000
2.438595e+003,3.810397e+000
2.439559e+003,4.388718e+000
2.440523e+003,3.726755e+000
2.441487e+003,3.707446e+000
2.442452e+003,4.890863e+000
2.443416e+003,6.379044e+000
2.444380e+003,7.722672e+000
2.445344e+003,8.042913e+000
2.446309e+003,6.560492e+000
2.447273e+003,4.697897e+000
2.448237e+003,4.054953e+000
2.449201e+003,4.711389e+000
2.450166e+003,8.206647e+000
2.451130e+003,1.197555e+001
2.452094e+003,1.089350e+001
2.453058e+003,7.886624e+000
2.454022e+003,8.082672e+000
2.454987e+003,9.751712e+000
2.455951e+003,8.516794e+000
2.456915e+003,5.444971e+000
2.457879e+003,4.758279e+000
2.458844e+003,6.710876e+000
2.459808e+003,8.087561e+000
2.460772e+003,8.119159e+000
2.461736e+003,7.826074e+000
2.462700e+003,6.163110e+000
2.463665e+003,6.303500e+000
2.464629e+003,1.094682e+001
2.465593e+003,1.345803e+001
2.466557e+003,1.142494e+001
2.467522e+003,9.450720e+000
2.468486e+003,9.303937e+000
2.469450e+003,1.010028e+001
2.470414e+003,1.143154e+001
2.471379e+003,1.261804e+001
2.472343e+003,1.281427e+001
2.473307e+003,1.230038e+001
2.474271e+003,1.148426e+001
2.475236e+003,1.069716e+001
2.476200e+003,1.140201e+001
2.477164e+003,1.289934e+001
2.478128e+003,1.301712e+001
2.479093e+003,1.216357e+001
2.480057e+003,1.127143e+001
2.481021e+003,1.072772e+001
2.481985e+003,1.152547e+001
2.482949e+003,1.318109e+001
2.483914e+003,1.330183e+001
2.484878e+003,1.154405e+001
2.485842e+003,1.092775e+001
2.486806e+003,1.287863e+001
2.487771e+003,1.415443e+001
2.488735e+003,1.281125e+001
2.489699e+003,1.188478e+001
2.490663e+003,1.230002e+001
2.491627e+003,1.299656e+001
2.492592e+003,1.419349e+001
2.493556e+003,1.475125e+001
2.494520e+003,1.370168e+001
2.495484e+003,1.265219e+001
2.496449e+003,1.293666e+001
2.497413e+003,1.385851e+001
2.498377e+003,1.446168e+001
2.499341e+003,1.487029e+001
2.500306e+003,1.538119e+001
2.501270e+003,1.601018e+001
2.502234e+003,1.685927e+001
2.503198e+003,1.780089e+001
2.504163e+003,1.836657e+001
2.505127e+003,1.856887e+001
2.506091e+003,1.853600e+001
2.507055e+003,1.833536e+001
2.508020e+003,1.774344e+001
2.508984e+003,1.710390e+001
2.509948e+003,1.798986e+001
2.510912e+003,2.061391e+001
2.511876e+003,2.187939e+001
2.512841e+003,2.008895e+001
2.513805e+003,1.907100e+001
2.514769e+003,2.081638e+001
2.515733e+003,2.229891e+001
2.516698e+003,2.221082e+001
2.517662e+003,2.254352e+001
2.518626e+003,2.461343e+001
2.519590e+003,2.601273e+001
2.520554e+003,2.484373e+001
2.521519e+003,2.422377e+001
2.522483e+003,2.707697e+001
2.523447e+003,3.108185e+001
2.524411e+003,3.296378e+001
2.525376e+003,3.334896e+001
2.526340e+003,3.324891e+001
2.527304e+003,3.305280e+001
2.528268e+003,3.450035e+001
2.529233e+003,3.678983e+001
2.530197e+003,3.765435e+001
2.531161e+003,3.787065e+001
2.532125e+003,3.978759e+001
2.533090e+003,4.265289e+001
2.534054e+003,4.387855e+001
2.535018e+003,4.359806e+001
2.535982e+003,4.392306e+001
2.536947e+003,4.533923e+001
2.537911e+003,4.728012e+001
2.538875e+003,4.981035e+001
2.539839e+003,5.221671e+001
2.540803e+003,5.426650e+001
2.541768e+003,5.645776e+001
2.542732e+003,5.929676e+001
2.543696e+003,6.090555e+001
2.544660e+003,6.051815e+001
2.545625e+003,6.050435e+001
2.546589e+003,6.204503e+001
2.547553e+003,6.334940e+001
2.548517e+003,6.299480e+001
2.549482e+003,6.186315e+001
2.550446e+003,6.093533e+001
2.551410e+003,6.027081e+001
2.552374e+003,5.991415e+001
2.553339e+003,5.985126e+001
2.554303e+003,6.038087e+001
2.555267e+003,6.096667e+001
2.556231e+003,6.121478e+001
2.557196e+003,6.078441e+001
2.558160e+003,5.865107e+001
2.559124e+003,5.595921e+001
2.560088e+003,5.492717e+001
2.561052e+003,5.513105e+001
2.562017e+003,5.454341e+001
2.562981e+003,5.295248e+001
2.563945e+003,5.000025e+001
2.564909e+003,4.495087e+001
2.565874e+003,4.293687e+001
2.566838e+003,4.464182e+001
2.567802e+003,4.387426e+001
2.568766e+003,4.012415e+001
2.569730e+003,3.761383e+001
2.570695e+003,3.710306e+001
2.571659e+003,3.698560e+001
2.572623e+003,3.653068e+001
2.573587e+003,3.522355e+001
2.574552e+003,3.288360e+001
2.575516e+003,3.044549e+001
2.576480e+003,2.837774e+001
2.577444e+003,2.700920e+001
2.578409e+003,2.695545e+001
2.579373e+003,2.688053e+001
2.580337e+003,2.610616e+001
2.581301e+003,2.519457e+001
2.582266e+003,2.469893e+001
2.583230e+003,2.391312e+001
2.584194e+003,2.178747e+001
2.585158e+003,1.997951e+001
2.586123e+003,2.050618e+001
2.587087e+003,2.156969e+001
2.588051e+003,1.991970e+001
2.589015e+003,1.680310e+001
2.589979e+003,1.645122e+001
2.590944e+003,1.785085e+001
2.591908e+003,1.696262e+001
2.592872e+003,1.453974e+001
2.593836e+003,1.179411e+001
2.594801e+003,9.555517e+000
2.595765e+003,9.745834e+000
2.596729e+003,1.136619e+001
2.597693e+003,1.164283e+001
2.598657e+003,1.061753e+001
2.599622e+003,1.040119e+001
2.600586e+003,1.136401e+001
2.601550e+003,1.204926e+001
2.602514e+003,1.242882e+001
2.603479e+003,1.178863e+001
2.604443e+003,9.604929e+000
2.605407e+003,7.969528e+000
2.606371e+003,7.110413e+000
2.607336e+003,6.714612e+000
2.608300e+003,6.712622e+000
2.609264e+003,6.981653e+000
2.610228e+003,7.406543e+000
2.611193e+003,7.255877e+000
2.612157e+003,6.147330e+000
2.613121e+003,5.008935e+000
2.614085e+003,4.531354e+000
2.615050e+003,4.349060e+000
2.616014e+003,4.319763e+000
2.616978e+003,4.227759e+000
2.617942e+003,3.737756e+000
2.618906e+003,3.456018e+000
2.619871e+003,4.348855e+000
2.620835e+003,4.846692e+000
2.621799e+003,3.152048e+000
2.622763e+003,1.459473e+000
2.623728e+003,1.874866e+000
2.624692e+003,3.406986e+000
2.625656e+003,4.583930e+000
2.626620e+003,5.361142e+000
2.627584e+003,5.581985e+000
2.628549e+003,5.338605e+000
2.629513e+003,4.923388e+000
2.630477e+003,4.305758e+000
2.631441e+003,2.976388e+000
2.632406e+003,1.659000e+000
2.633370e+003,2.237189e+000
2.634334e+003,3.668118e+000
2.635298e+003,3.173718e+000
2.636263e+003,1.355643e+000
2.637227e+003,1.426151e+000
2.638191e+003,3.632394e+000
2.639155e+003,4.648324e+000
2.640120e+003,4.181308e+000
2.641084e+003,3.687131e+000
2.642048e+003,3.020819e+000
2.643012e+003,3.162625e+000
2.643977e+003,4.199389e+000
2.644941e+003,4.709100e+000
2.645905e+003,4.464883e+000
2.646869e+003,3.544363e+000
2.647833e+003,2.218576e+000
2.648798e+003,1.946011e+000
2.649762e+003,3.151428e+000
2.650726e+003,3.753735e+000
2.651690e+003,2.567816e+000
2.652655e+003,1.241718e+000
2.653619e+003,-1.702911e-001
2.654583e+003,-4.225433e-001
2.655547e+003,2.406696e+000
2.656511e+003,3.857416e+000
2.657476e+003,2.013290e+000
2.658440e+003,5.915619e-001
2.659404e+003,1.301266e+000
2.660368e+003,1.825278e+000
2.661333e+003,6.050293e-001
2.662297e+003,-6.030731e-001
2.663261e+003,-6.003418e-002
2.664225e+003,9.954498e-001
2.665190e+003,1.024188e+000
2.666154e+003,6.459564e-001
2.667118e+003,2.471313e-001
2.668082e+003,2.147827e-001
2.669047e+003,1.109952e+000
2.670011e+003,2.257636e+000
2.670975e+003,3.624573e+000
2.671939e+003,4.295703e+000
2.672904e+003,2.644345e+000
2.673868e+003,6.874939e-001
2.674832e+003,1.488318e+000
2.675796e+003,3.581644e+000
2.676760e+003,3.092721e+000
2.677725e+003,7.404846e-001
2.678689e+003,-8.873901e-001
2.679653e+003,-1.702557e+000
2.680617e+003,-1.164523e+000
2.681582e+003,1.381561e-001
2.682546e+003,1.530667e+000
2.683510e+003,2.477432e+000
2.684474e+003,1.892773e+000
2.685438e+003,3.136230e-001
2.686403e+003,-9.824616e-001
2.687367e+003,-1.723349e+000
2.688331e+003,-1.436328e+000
2.689295e+003,-1.002686e-001
2.690260e+003,1.560089e+000
2.691224e+003,3.744278e+000
2.692188e+003,4.245667e+000
2.693152e+003,3.080771e+000
2.694117e+003,1.727942e+000
2.695081e+003,4.738190e-001
2.696045e+003,-4.165314e-001
2.697009e+003,-9.019745e-001
2.697974e+003,-1.234164e+000
2.698938e+003,-1.359644e+000
2.699902e+003,-4.065247e-001
2.700866e+003,2.009903e+000
2.701831e+003,3.652875e+000
2.702795e+003,3.851111e+000
2.703759e+003,3.220322e+000
2.704723e+003,1.107294e+000
2.705688e+003,4.207672e-001
2.706652e+003,1.762781e+000
2.707616e+003,2.799435e+000
2.708580e+003,2.921014e+000
2.709544e+003,1.288681e+000
2.710509e+003,-2.112106e+000
2.711473e+003,-4.109926e+000
2.712437e+003,-2.960344e+000
2.713401e+003,-6.158905e-001
2.714365e+003,2.577918e+000
2.715330e+003,4.080566e+000
2.716294e+003,7.382385e-001
2.717258e+003,-1.698398e+000
2.718222e+003,8.430481e-002
2.719187e+003,1.045856e+000
2.720151e+003,-8.963318e-001
2.721115e+003,-2.239749e+000
2.722079e+003,-1.249350e+000
2.723044e+003,8.062622e-001
2.724008e+003,3.037033e+000
2.724972e+003,4.026895e+000
2.725936e+003,1.857611e+000
2.726901e+003,-1.871490e-001
2.727865e+003,3.088357e+000
2.728829e+003,6.065228e+000
2.729793e+003,2.798074e+000
2.730758e+003,-7.577301e-001
2.731722e+003,7.134094e-002
2.732686e+003,1.529813e+000
2.733650e+003,5.373840e-001
2.734615e+003,-2.945404e-001
2.735579e+003,1.504776e+000
2.736543e+003,3.591608e+000
2.737507e+003,2.723993e+000
2.738471e+003,5.393158e-001
2.739436e+003,-7.480164e-002
2.740400e+003,2.420227e-001
2.741364e+003,7.272705e-001
2.742328e+003,1.205981e+000
2.743292e+003,1.403204e+000
2.744257e+003,1.553806e+000
2.745221e+003,2.244119e+000
2.746185e+003,2.748767e+000
2.747149e+003,1.778119e+000
2.748114e+003,4.080200e-001
2.749078e+003,2.546570e-001
2.750042e+003,8.795899e-001
2.751006e+003,1.082867e+000
2.751971e+003,1.087048e+000
2.752935e+003,2.091345e+000
2.753899e+003,3.214496e+000
2.754863e+003,1.971750e+000
2.755828e+003,-8.155517e-002
2.756792e+003,-1.805267e-001
2.757756e+003,6.046417e-001
2.758720e+003,1.933990e-001
2.759685e+003,-9.415619e-001
2.760649e+003,-1.411212e+000
2.761613e+003,-1.243130e+000
2.762577e+003,-5.584381e-001
2.763542e+003,4.857483e-001
2.764506e+003,7.140167e-001
2.765470e+003,3.054810e-001
2.766434e+003,2.940125e-001
2.767398e+003,4.307617e-001
2.768363e+003,-3.368225e-001
2.769327e+003,-1.415720e+000
2.770291e+003,-1.143896e+000
2.771255e+003,-8.513184e-002
2.772219e+003,-2.670471e-001
2.773184e+003,-1.441080e+000
2.774148e+003,-1.083334e+000
2.775112e+003,6.674530e-001
2.776076e+003,1.063937e+000
2.777041e+003,8.930359e-002
2.778005e+003,-6.783264e-001
2.778969e+003,-1.178488e+000
2.779933e+003,-8.921387e-001
2.780898e+003,-2.168121e-001
2.781862e+003,-4.118988e-001
2.782826e+003,-1.303232e+000
2.783790e+003,-2.191643e+000
2.784755e+003,-2.756371e+000
2.785719e+003,-2.270981e+000
2.786683e+003,-6.509399e-001
2.787647e+003,2.524506e-001
2.788612e+003,4.263855e-001
2.789576e+003,-6.118134e-001
2.790540e+003,-2.753333e+000
2.791504e+003,-2.825743e+000
2.792469e+003,-1.198224e+000
2.793433e+003,-5.406189e-001
2.794397e+003,-9.283234e-001
2.795361e+003,-1.285654e+000
2.796325e+003,-1.334836e+000
2.797290e+003,-1.022592e+000
2.798254e+003,-3.676453e-001
2.799218e+003,1.984558e-002
2.800182e+003,-9.771729e-003
2.801146e+003,2.516388e-001
2.802111e+003,7.965240e-001
2.803075e+003,2.488553e+000
2.804039e+003,5.053015e+000
2.805003e+003,5.890231e+000
2.805968e+003,4.968564e+000
2.806932e+003,3.492804e+000
2.807896e+003,2.045865e+000
2.808860e+003,1.271704e+000
2.809825e+003,1.178980e+000
2.810789e+003,6.831635e-001
2.811753e+003,-6.221954e-001
2.812717e+003,-8.156494e-001
2.813682e+003,5.103577e-001
2.814646e+003,7.396698e-001
2.815610e+003,-1.294769e-001
2.816574e+003,-7.596649e-001
2.817539e+003,-9.608673e-001
2.818503e+003,-4.661560e-001
2.819467e+003,3.874054e-001
2.820431e+003,2.118774e-001
2.821396e+003,-9.477905e-001
2.822360e+003,-1.047028e+000
2.823324e+003,4.776917e-001
2.824288e+003,1.544400e+000
2.825252e+003,2.137445e+000
2.826217e+003,1.515543e+000
2.827181e+003,-3.776398e-001
2.828145e+003,5.669861e-002
2.829109e+003,2.473627e+000
2.830073e+003,2.985999e+000
2.831038e+003,1.480096e+000
2.832002e+003,9.666137e-002
2.832966e+003,-6.374115e-001
2.833930e+003,-1.243355e+000
2.834895e+003,-1.837155e+000
2.835859e+003,-1.226572e+000
2.836823e+003,1.143121e+000
2.837787e+003,1.924063e+000
2.838752e+003,1.011386e+000
2.839716e+003,5.882721e-001
2.840680e+003,7.045868e-001
2.841644e+003,5.500366e-001
2.842609e+003,1.685211e-001
2.843573e+003,3.506714e-001
2.844537e+003,9.965881e-001
2.845501e+003,1.101956e+000
2.846466e+003,4.871216e-001
2.847430e+003,-3.839111e-002
2.848394e+003,-3.345032e-001
2.849358e+003,-1.244600e+000
2.850323e+003,-2.873120e+000
2.851287e+003,-2.392027e+000
2.852251e+003,-2.379211e-001
2.853215e+003,5.674133e-002
2.854179e+003,-1.151170e+000
2.855144e+003,-1.170105e+000
2.856108e+003,-1.995666e-001
2.857072e+003,-8.211334e-001
2.858036e+003,-2.958843e+000
2.859000e+003,-2.665179e+000
2.859965e+003,2.970245e-001
2.860929e+003,1.939969e+000
2.861893e+003,2.209671e+000
2.862857e+003,2.259717e+000
2.863822e+003,2.147907e+000
2.864786e+003,1.545523e+000
2.865750e+003,9.245545e-001
2.866714e+003,2.047839e+000
2.867679e+003,4.027145e+000
2.868643e+003,4.100705e+000
2.869607e+003,2.468079e+000
2.870571e+003,1.753406e+000
2.871536e+003,1.905212e+000
2.872500e+003,1.428998e+000
2.873464e+003,3.580078e-001
2.874428e+003,5.053986e-001
2.875393e+003,1.393716e+000
2.876357e+003,1.216013e+000
2.877321e+003,4.422333e-001
2.878285e+003,1.532013e-001
2.879250e+003,3.413483e-001
2.880214e+003,9.559296e-001
2.881178e+003,1.657681e+000
2.882142e+003,1.707581e+000
2.883106e+003,1.161066e+000
2.884071e+003,8.042907e-003
2.885035e+003,-1.455098e+000
2.885999e+003,-1.597705e+000
2.886963e+003,-7.671585e-001
2.887927e+003,8.946258e-001
2.888892e+003,2.405084e+000
2.889856e+003,1.799765e+000
2.890820e+003,4.116089e-001
2.891784e+003,4.898468e-001
2.892749e+003,1.302765e+000
2.893713e+003,1.416757e+000
2.894677e+003,1.198056e+000
2.895641e+003,1.538702e+000
2.896606e+003,2.063184e+000
2.897570e+003,1.491687e+000
2.898534e+003,6.645203e-001
2.899498e+003,1.363074e+000
2.900463e+003,2.149387e+000
2.901427e+003,8.098663e-001
2.902391e+003,-7.841004e-001
2.903355e+003,-3.339844e-001
2.904320e+003,6.559051e-001
2.905284e+003,6.716553e-001
2.906248e+003,2.284546e-001
2.907212e+003,1.423508e-001
2.908177e+003,4.855499e-002
2.909141e+003,-9.410019e-001
2.910105e+003,-1.962620e+000
2.911069e+003,-2.418799e+000
2.912033e+003,-2.108105e+000
2.912998e+003,3.181671e-001
2.913962e+003,1.856595e+000
2.914926e+003,4.395767e-001
2.915890e+003,-1.470796e+000
2.916854e+003,-2.133891e+000
2.917819e+003,-1.996542e+000
2.918783e+003,-1.497015e+000
2.919747e+003,-5.403137e-001
2.920711e+003,2.148679e+000
2.921676e+003,3.585547e+000
2.922640e+003,1.317612e-001
2.923604e+003,-2.278600e+000
2.924568e+003,-6.672500e-001
2.925533e+003,7.182114e-001
2.926497e+003,3.419952e-001
2.927461e+003,-1.513947e-001
2.928425e+003,2.109787e-001
2.929390e+003,-2.267853e-001
2.930354e+003,-3.121021e+000
2.931318e+003,-4.995160e+000
2.932282e+003,-2.372478e+000
2.933247e+003,-4.840775e-001
2.934211e+003,-8.368347e-001
2.935175e+003,-6.012543e-001
2.936139e+003,3.774979e-001
2.937104e+003,8.067169e-001
2.938068e+003,4.875748e-001
2.939032e+003,1.573715e-001
2.939996e+003,8.285675e-002
2.940960e+003,2.504791e-001
2.941925e+003,6.344513e-001
2.942889e+003,7.602676e-001
2.943853e+003,4.245941e-001
2.944817e+003,1.520386e-002
2.945781e+003,-5.469314e-001
2.946746e+003,-5.924789e-001
2.947710e+003,-1.296036e-001
2.948674e+003,5.372116e-001
2.949638e+003,1.216566e+000
2.950603e+003,1.319716e+000
2.951567e+003,9.765045e-001
2.952531e+003,1.114426e+000
2.953495e+003,1.797772e+000
2.954460e+003,1.975244e+000
2.955424e+003,1.629016e+000
2.956388e+003,2.296036e-001
2.957352e+003,-1.946498e+000
2.958317e+003,-1.803624e+000
2.959281e+003,-1.614700e-001
2.960245e+003,8.341339e-001
2.961209e+003,1.108197e+000
2.962174e+003,6.592636e-001
2.963138e+003,1.595459e-002
2.964102e+003,2.789856e-001
2.965066e+003,1.100826e+000
2.966031e+003,1.709309e+000
2.966995e+003,2.114441e+000
2.967959e+003,2.444220e+000
2.968923e+003,2.495529e+000
2.969887e+003,1.431079e+000
2.970852e+003,2.850830e-001
2.971816e+003,4.786530e-001
2.972780e+003,1.106131e+000
2.973744e+003,1.400324e+000
2.974708e+003,1.264026e+000
2.975673e+003,5.010010e-001
2.976637e+003,-1.626770e-001
2.977601e+003,1.684036e-001
2.978565e+003,8.160354e-001
2.979530e+003,1.215434e+000
2.980494e+003,1.060626e+000
2.981458e+003,-5.867401e-001
2.982422e+003,-1.830861e+000
2.983387e+003,-1.609793e+000
2.984351e+003,-9.081391e-001
2.985315e+003,4.975281e-002
2.986279e+003,5.725387e-001
2.987244e+003,3.440033e-001
2.988208e+003,7.058365e-001
2.989172e+003,2.588370e+000
2.990136e+003,3.647391e+000
2.991101e+003,1.809335e+000
2.992065e+003,5.056854e-001
2.993029e+003,6.798309e-001
2.993993e+003,5.282501e-001
2.994958e+003,-2.002273e-001
2.995922e+003,1.620483e-001
2.996886e+003,1.659946e+000
2.997850e+003,2.276503e+000
2.998814e+003,1.680731e+000
2.999779e+003,1.333366e+000
3.000743e+003,1.622772e+000
3.001707e+003,1.202470e+000
3.002671e+003,-2.284958e-001
3.003635e+003,-1.691544e-001
3.004600e+003,1.212459e+000
3.005564e+003,8.604492e-001
3.006528e+003,-5.014618e-001
3.007492e+003,1.028595e-001
3.008457e+003,1.871361e+000
3.009421e+003,2.379631e+000
3.010385e+003,1.912819e+000
3.011349e+003,2.335881e+000
3.012314e+003,2.835364e+000
3.013278e+003,6.877381e-001
3.014242e+003,-2.796587e+000
3.015206e+003,-3.284332e+000
3.016171e+003,-2.061081e+000
3.017135e+003,-5.181991e-001
3.018099e+003,6.161926e-001
3.019063e+003,1.381882e-001
3.020028e+003,-4.064331e-001
3.020992e+003,5.049011e-001
3.021956e+003,1.167925e+000
3.022920e+003,1.826782e-002
3.023885e+003,-1.318805e+000
3.024849e+003,-9.993713e-001
3.025813e+003,-2.120254e-001
3.026777e+003,1.646103e-001
3.027741e+003,2.260651e-001
3.028706e+003,-2.653839e-001
3.029670e+003,-5.362381e-001
3.030634e+003,-3.282318e-001
3.031598e+003,-4.678436e-001
3.032563e+003,-1.153008e+000
3.033527e+003,-5.825790e-001
3.034491e+003,1.791806e+000
3.035455e+003,3.031375e+000
3.036420e+003,1.640787e+000
3.037384e+003,4.604233e-001
3.038348e+003,-7.111969e-002
3.039312e+003,-2.532196e-002
3.040277e+003,5.997894e-001
3.041241e+003,7.533203e-001
3.042205e+003,4.625916e-001
3.043169e+003,3.847824e-001
3.044134e+003,4.418625e-001
3.045098e+003,-2.839737e-001
3.046062e+003,-1.372589e+000
3.047026e+003,-2.362335e-001
3.047990e+003,2.305747e+000
3.048955e+003,1.170547e+000
3.049919e+003,-2.347356e+000
3.050883e+003,-2.502814e+000
3.051847e+003,-9.795288e-001
3.052812e+003,-5.633545e-003
3.053776e+003,3.093842e-001
3.054740e+003,-3.581711e-001
3.055704e+003,-1.230240e+000
3.056668e+003,-1.616023e+000
3.057633e+003,-1.802328e+000
3.058597e+003,-2.197200e+000
3.059561e+003,-2.006927e+000
3.060525e+003,6.725464e-001
3.061490e+003,2.779526e+000
3.062454e+003,9.058426e-001
3.063418e+003,-4.673386e-001
3.064382e+003,6.434616e-001
3.065347e+003,1.622955e+000
3.066311e+003,1.779999e+000
3.067275e+003,1.299496e+000
3.068239e+003,3.948807e-001
3.069204e+003,1.096680e-001
3.070168e+003,8.865967e-001
3.071132e+003,1.262074e+000
3.072096e+003,2.825790e-001
3.073061e+003,6.226486e-001
3.074025e+003,2.507623e+000
3.074989e+003,3.316710e+000
3.075953e+003,3.044998e+000
3.076917e+003,2.520030e+000
3.077882e+003,1.912701e+000
3.078846e+003,1.226460e+000
3.079810e+003,5.447037e-001
3.080774e+003,-3.738861e-002
3.081739e+003,-4.499405e-001
3.082703e+003,-3.855926e-001
3.083667e+003,-7.734680e-002
3.084631e+003,-5.822601e-001
3.085595e+003,-1.042835e+000
3.086560e+003,7.047440e-001
3.087524e+003,2.353816e+000
3.088488e+003,1.121397e+000
3.089452e+003,-7.990204e-001
3.090417e+003,-2.114517e+000
3.091381e+003,-2.588379e+000
3.092345e+003,-2.015707e+000
3.093309e+003,-9.983352e-001
3.094274e+003,8.133545e-002
3.095238e+003,8.014084e-001
3.096202e+003,4.040146e-001
3.097166e+003,6.650375e-001
3.098131e+003,2.327898e+000
3.099095e+003,2.575346e+000
3.100059e+003,1.008972e+000
3.101023e+003,-8.558639e-001
3.101988e+003,-2.304333e+000
3.102952e+003,-2.034448e+000
3.103916e+003,4.138184e-003
3.104880e+003,1.008658e+000
3.105844e+003,6.283905e-001
3.106809e+003,4.353760e-001
3.107773e+003,3.544495e-001
3.108737e+003,-1.068724e+000
3.109701e+003,-2.768137e+000
3.110666e+003,-1.574306e+000
3.111630e+003,8.137314e-001
3.112594e+003,1.835812e+000
3.113558e+003,1.451563e+000
3.114522e+003,-2.851242e-001
3.115487e+003,-1.999367e+000
3.116451e+003,-1.615842e+000
3.117415e+003,-4.577515e-001
3.118379e+003,-3.286682e-001
3.119344e+003,-4.590653e-001
3.120308e+003,-2.417755e-001
3.121272e+003,-2.047791e-001
3.122236e+003,-5.260788e-001
3.123201e+003,-1.077399e+000
3.124165e+003,-1.788835e+000
3.125129e+003,-1.499374e+000
3.126093e+003,7.537232e-002
3.127058e+003,8.310440e-001
3.128022e+003,-2.773926e-001
3.128986e+003,-6.677902e-001
3.129950e+003,3.279068e-001
3.130915e+003,7.597855e-001
3.131879e+003,6.513260e-001
3.132843e+003,4.879303e-002
3.133807e+003,-7.529114e-001
3.134771e+003,-1.065921e+000
3.135736e+003,-9.348984e-001
3.136700e+003,-3.195175e-001
3.137664e+003,1.977417e-001
3.138628e+003,-5.284179e-001
3.139593e+003,-1.807932e+000
3.140557e+003,-2.213559e+000
3.141521e+003,-1.931485e+000
3.142485e+003,-6.430527e-001
3.143449e+003,4.090820e-001
3.144414e+003,1.252045e-001
3.145378e+003,-6.162109e-001
3.146342e+003,-1.563571e+000
3.147306e+003,-2.112639e+000
3.148271e+003,-1.991078e+000
3.149235e+003,-1.524602e+000
3.150199e+003,-8.773880e-001
3.151163e+003,-3.395630e-001
3.152128e+003,2.513275e-002
3.153092e+003,1.240738e-001
3.154056e+003,-6.966247e-002
3.155020e+003,-3.671051e-001
3.155985e+003,-7.089050e-001
3.156949e+003,-6.683716e-001
3.157913e+003,-5.350388e-001
3.158877e+003,-1.653423e+000
3.159842e+003,-3.201762e+000
3.160806e+003,-2.447430e+000
3.161770e+003,-4.664978e-001
3.162734e+003,-1.534012e-001
3.163698e+003,-8.239334e-001
3.164663e+003,-1.439647e+000
3.165627e+003,-1.699773e+000
3.166591e+003,-7.401108e-001
3.167555e+003,-1.054474e-001
3.168520e+003,-7.408279e-001
3.169484e+003,-1.663011e+000
3.170448e+003,-2.406055e+000
3.171412e+003,-2.222111e+000
3.172376e+003,-6.801117e-001
3.173341e+003,5.870438e-001
3.174305e+003,9.172119e-001
3.175269e+003,3.200836e-002
3.176233e+003,-2.553047e+000
3.177198e+003,-2.655635e+000
3.178162e+003,-5.432113e-001
3.179126e+003,9.408478e-001
3.180090e+003,1.274031e+000
3.181055e+003,-4.578262e-001
3.182019e+003,-2.976820e+000
3.182983e+003,-2.696617e+000
3.183947e+003,-8.747650e-001
3.184912e+003,-6.585495e-001
3.185876e+003,-1.144899e+000
3.186840e+003,7.001190e-002
3.187804e+003,1.216978e+000
3.188769e+003,2.377716e-001
3.189733e+003,-1.367033e+000
3.190697e+003,-3.313982e+000
3.191661e+003,-3.543088e+000
3.192625e+003,-1.214223e+000
3.193590e+003,3.282959e-001
3.194554e+003,-6.104752e-001
3.195518e+003,-1.757277e+000
3.196482e+003,-2.296729e+000
3.197447e+003,-1.530832e+000
3.198411e+003,9.173096e-001
3.199375e+003,1.358270e+000
3.200339e+003,1.617035e-001
3.201303e+003,-2.343597e-002
3.202268e+003,7.234589e-001
3.203232e+003,1.888606e+000
3.204196e+003,2.813223e+000
3.205160e+003,2.280858e+000
3.206125e+003,1.399274e+000
3.207089e+003,2.408072e+000
3.208053e+003,3.742903e+000
3.209017e+003,2.193277e+000
3.209982e+003,3.567871e-001
3.210946e+003,3.337036e-001
3.211910e+003,9.299042e-001
3.212874e+003,1.814293e+000
3.213839e+003,2.437837e+000
3.214803e+003,2.582265e+000
3.215767e+003,1.898216e+000
3.216731e+003,3.814163e-001
3.217696e+003,-6.752914e-001
3.218660e+003,-7.956741e-001
3.219624e+003,-7.076569e-001
3.220588e+003,-4.099136e-001
3.221552e+003,-2.876083e-001
3.222517e+003,-3.377899e-001
3.223481e+003,-7.364792e-001
3.224445e+003,-1.168024e+000
3.225409e+003,-1.254736e+000
3.226374e+003,-6.875153e-001
3.227338e+003,9.760910e-001
3.228302e+003,2.588957e+000
3.229266e+003,2.787631e+000
3.230230e+003,2.056296e+000
3.231195e+003,-8.509369e-002
3.232159e+003,-1.224219e+000
3.233123e+003,5.467621e-001
3.234087e+003,1.653267e+000
3.235052e+003,1.568527e+000
3.236016e+003,1.256866e+000
3.236980e+003,9.461090e-001
3.237944e+003,3.717911e-001
3.238909e+003,-4.623428e-001
3.239873e+003,-1.197690e+000
3.240837e+003,-1.750874e+000
3.241801e+003,-1.467860e+000
3.242766e+003,-6.550857e-001
3.243730e+003,-7.431061e-001
3.244694e+003,-1.015004e+000
3.245658e+003,3.144409e-001
3.246623e+003,8.687973e-001
3.247587e+003,-1.914623e+000
3.248551e+003,-4.141687e+000
3.249515e+003,-3.317336e+000
3.250479e+003,-1.966614e+000
3.251444e+003,-1.953557e+000
3.252408e+003,-2.073289e+000
3.253372e+003,-1.679526e+000
3.254336e+003,-1.336101e+000
3.255301e+003,-1.071039e+000
3.256265e+003,-7.456833e-001
3.257229e+003,-4.229782e-001
3.258193e+003,-4.624451e-001
3.259157e+003,-8.005798e-001
3.260122e+003,-1.276640e+000
3.261086e+003,-1.602422e+000
3.262050e+003,-1.196451e+000
3.263014e+003,-5.591049e-001
3.263979e+003,-9.620804e-001
3.264943e+003,-1.618689e+000
3.265907e+003,-1.497884e+000
3.266871e+003,-1.391856e+000
3.267836e+003,-2.070632e+000
3.268800e+003,-1.786047e+000
3.269764e+003,-5.399628e-002
3.270728e+003,9.891266e-001
3.271693e+003,6.015137e-001
3.272657e+003,-3.609924e-001
3.273621e+003,-1.658069e+000
3.274585e+003,-1.435356e+000
3.275550e+003,4.119965e-001
3.276514e+003,1.922653e+000
3.277478e+003,2.896138e+000
3.278442e+003,2.376297e+000
3.279406e+003,1.230168e+000
3.280371e+003,7.272278e-001
3.281335e+003,2.721268e-001
3.282299e+003,-8.436325e-001
3.283263e+003,-1.277617e+000
3.284228e+003,3.413223e-001
3.285192e+003,1.928442e+000
3.286156e+003,1.528180e+000
3.287120e+003,1.113443e+000
3.288084e+003,1.129282e+000
3.289049e+003,1.372348e+000
3.290013e+003,1.723067e+000
3.290977e+003,9.771881e-001
3.291941e+003,-4.272385e-001
3.292906e+003,-4.585495e-001
3.293870e+003,6.142609e-001
3.294834e+003,8.954147e-001
3.295798e+003,5.695496e-001
3.296763e+003,-2.267334e-001
3.297727e+003,-7.486679e-001
3.298691e+003,9.941254e-001
3.299655e+003,2.594290e+000
3.300620e+003,1.788702e+000
3.301584e+003,1.053381e+000
3.302548e+003,1.069727e+000
3.303512e+003,1.044707e+000
3.304477e+003,7.761795e-001
3.305441e+003,1.299106e+000
3.306405e+003,2.992258e+000
3.307369e+003,3.172261e+000
3.308333e+003,1.625421e+000
3.309298e+003,2.247275e+000
3.310262e+003,4.079764e+000
3.311226e+003,4.171686e+000
3.312190e+003,3.476457e+000
3.313155e+003,3.650835e+000
3.314119e+003,3.601376e+000
3.315083e+003,2.260558e+000
3.316047e+003,1.433281e+000
3.317011e+003,2.671680e+000
3.317976e+003,3.992201e+000
3.318940e+003,3.950764e+000
3.319904e+003,3.462613e+000
3.320868e+003,2.572943e+000
3.321833e+003,2.217342e+000
3.322797e+003,2.419591e+000
3.323761e+003,3.164650e+000
3.324725e+003,3.979546e+000
3.325690e+003,3.844096e+000
3.326654e+003,2.787981e+000
3.327618e+003,1.056711e+000
3.328582e+003,-5.561783e-001
3.329547e+003,-2.280228e-001
3.330511e+003,5.994323e-001
3.331475e+003,8.010864e-002
3.332439e+003,-2.000809e-001
3.333404e+003,5.740433e-001
3.334368e+003,1.046536e+000
3.335332e+003,9.494430e-001
3.336296e+003,5.465561e-001
3.337260e+003,5.065918e-002
3.338225e+003,2.622391e-001
3.339189e+003,1.177719e+000
3.340153e+003,9.072617e-001
3.341117e+003,-2.986786e-001
3.342082e+003,-1.430563e+000
3.343046e+003,-2.153703e+000
3.344010e+003,-1.535884e+000
3.344974e+003,-7.336655e-001
3.345938e+003,-6.975891e-001
3.346903e+003,-4.645554e-001
3.347867e+003,4.027237e-001
3.348831e+003,4.557144e-001
3.349795e+003,-1.122221e+000
3.350760e+003,-2.191741e+000
3.351724e+003,-2.033780e+000
3.352688e+003,-5.609863e-001
3.353652e+003,1.930963e+000
3.354617e+003,1.704254e+000
3.355581e+003,9.190063e-002
3.356545e+003,2.858139e-001
3.357509e+003,1.277477e+000
3.358474e+003,1.559271e+000
3.359438e+003,1.083546e+000
3.360402e+003,-2.754150e-001
3.361366e+003,-1.381960e+000
3.362331e+003,-1.058318e+000
3.363295e+003,-4.702789e-001
3.364259e+003,-4.218139e-002
3.365223e+003,7.993927e-001
3.366188e+003,1.980063e+000
3.367152e+003,1.843980e+000
3.368116e+003,6.440964e-001
3.369080e+003,-3.815399e-001
3.370044e+003,-1.019521e+000
3.371009e+003,-1.423029e+000
3.371973e+003,-1.472235e+000
3.372937e+003,-8.123505e-001
3.373901e+003,2.413177e-002
3.374865e+003,3.606049e-001
3.375830e+003,7.216324e-001
3.376794e+003,1.536546e+000
3.377758e+003,1.386853e+000
3.378722e+003,1.493591e-001
3.379687e+003,-5.073746e-001
3.380651e+003,-1.637665e-001
3.381615e+003,9.468643e-001
3.382579e+003,2.489323e+000
3.383544e+003,3.062604e+000
3.384508e+003,2.857681e+000
3.385472e+003,2.413510e+000
3.386436e+003,1.809499e+000
3.387401e+003,7.370697e-001
3.388365e+003,2.388367e-001
3.389329e+003,9.430237e-001
3.390293e+003,9.777069e-001
3.391258e+003,-2.480865e-001
3.392222e+003,-3.917572e-001
3.393186e+003,1.513992e+000
3.394150e+003,2.845767e+000
3.395115e+003,3.238206e+000
3.396079e+003,4.740219e+000
3.397043e+003,6.582404e+000
3.398007e+003,5.707416e+000
3.398971e+003,4.289142e+000
3.399936e+003,5.855664e+000
3.400900e+003,7.458862e+000
3.401864e+003,7.207092e+000
3.402828e+003,6.728296e+000
3.403792e+003,7.151095e+000
3.404757e+003,7.413684e+000
3.405721e+003,6.459296e+000
3.406685e+003,7.134723e+000
3.407649e+003,9.469797e+000
3.408614e+003,9.887339e+000
3.409578e+003,9.441739e+000
3.410542e+003,1.209731e+001
3.411506e+003,1.528952e+001
3.412471e+003,1.428780e+001
3.413435e+003,1.290164e+001
3.414399e+003,1.494430e+001
3.415363e+003,1.789436e+001
3.416328e+003,1.986467e+001
3.417292e+003,2.041129e+001
3.418256e+003,1.860733e+001
3.419220e+003,1.861573e+001
3.420185e+003,2.039814e+001
3.421149e+003,2.129078e+001
3.422113e+003,2.116793e+001
3.423077e+003,2.023257e+001
3.424042e+003,1.966588e+001
3.425006e+003,2.156676e+001
3.425970e+003,2.369366e+001
3.426934e+003,2.221398e+001
