7.140112e+001,5.805121e+001
7.236536e+001,5.914866e+001
7.332959e+001,6.262832e+001
7.429382e+001,6.446304e+001
7.525806e+001,6.521709e+001
7.622229e+001,6.371315e+001
7.718652e+001,5.833719e+001
7.815076e+001,4.647429e+001
7.911499e+001,3.933065e+001
8.007922e+001,3.494410e+001
8.104346e+001,3.460176e+001
8.200769e+001,4.036477e+001
8.297192e+001,5.853548e+001
8.393616e+001,7.435533e+001
8.490039e+001,8.563499e+001
8.586462e+001,9.186775e+001
8.682886e+001,9.286884e+001
8.779310e+001,8.412690e+001
8.875733e+001,7.238805e+001
8.972157e+001,6.097178e+001
9.068580e+001,5.125531e+001
9.165003e+001,4.336260e+001
9.261427e+001,3.880720e+001
9.357850e+001,3.658611e+001
9.454273e+001,3.615556e+001
9.550697e+001,3.742965e+001
9.647120e+001,4.161732e+001
9.743543e+001,4.315546e+001
9.839967e+001,4.135075e+001
9.936390e+001,3.780251e+001
1.003281e+002,3.423473e+001
1.012924e+002,2.999434e+001
1.022566e+002,2.692419e+001
1.032208e+002,2.602174e+001
1.041851e+002,2.660734e+001
1.051493e+002,2.708164e+001
1.061135e+002,2.540146e+001
1.070778e+002,2.344932e+001
1.080420e+002,2.203061e+001
1.090062e+002,2.136735e+001
1.099705e+002,2.107275e+001
1.109347e+002,1.949600e+001
1.118989e+002,1.744077e+001
1.128632e+002,1.639826e+001
1.138274e+002,1.748947e+001
1.147916e+002,2.120282e+001
1.157559e+002,2.317934e+001
1.167201e+002,2.331964e+001
1.176843e+002,2.245797e+001
1.186486e+002,2.148462e+001
1.196128e+002,1.964535e+001
1.205770e+002,1.884971e+001
1.215413e+002,2.016603e+001
1.225055e+002,2.260515e+001
1.234697e+002,2.403292e+001
1.244340e+002,2.209690e+001
1.253982e+002,1.942593e+001
1.263624e+002,1.560978e+001
1.273267e+002,1.128604e+001
1.282909e+002,8.387177e+000
1.292551e+002,1.370591e+001
1.302194e+002,2.166420e+001
1.311836e+002,2.743101e+001
1.321478e+002,2.792366e+001
1.331121e+002,2.301146e+001
1.340763e+002,1.804333e+001
1.350405e+002,1.272236e+001
1.360048e+002,8.376104e+000
1.369690e+002,6.434766e+000
1.379332e+002,8.319305e+000
1.388975e+002,1.106651e+001
1.398617e+002,1.558157e+001
1.408259e+002,2.053267e+001
1.417902e+002,2.391392e+001
1.427544e+002,2.482492e+001
1.437186e+002,2.375983e+001
1.446829e+002,1.938140e+001
1.456471e+002,1.274610e+001
1.466113e+002,6.568463e+000
1.475756e+002,4.573413e+000
1.485398e+002,5.115546e+000
1.495040e+002,8.952459e+000
1.504683e+002,1.580449e+001
1.514325e+002,2.424706e+001
1.523967e+002,2.513092e+001
1.533610e+002,2.025121e+001
1.543252e+002,1.476517e+001
1.552894e+002,1.250533e+001
1.562537e+002,1.518488e+001
1.572179e+002,1.552388e+001
1.581821e+002,1.089302e+001
1.591464e+002,5.986773e+000
1.601106e+002,6.218298e+000
1.610748e+002,1.811353e+001
1.620391e+002,2.580063e+001
1.630033e+002,2.399804e+001
1.639676e+002,1.647433e+001
1.649318e+002,9.134710e+000
1.658960e+002,7.603943e+000
1.668603e+002,8.398633e+000
1.678245e+002,9.812494e+000
1.687887e+002,1.133605e+001
1.697530e+002,1.278768e+001
1.707172e+002,1.365773e+001
1.716814e+002,1.402465e+001
1.726457e+002,1.389537e+001
1.736099e+002,1.321863e+001
1.745741e+002,1.195870e+001
1.755384e+002,1.084509e+001
1.765026e+002,9.541925e+000
1.774668e+002,8.633764e+000
1.784311e+002,8.743444e+000
1.793953e+002,1.057329e+001
1.803595e+002,1.133090e+001
1.813238e+002,9.720367e+000
1.822880e+002,7.585413e+000
1.832522e+002,6.612781e+000
1.842165e+002,8.485296e+000
1.851807e+002,9.954883e+000
1.861449e+002,7.912415e+000
1.871092e+002,4.138227e+000
1.880734e+002,9.752808e-001
1.890376e+002,1.799646e+000
1.900019e+002,5.529645e+000
1.909661e+002,8.732556e+000
1.919303e+002,1.114173e+001
1.928946e+002,1.272317e+001
1.938588e+002,1.318975e+001
1.948230e+002,1.134689e+001
1.957873e+002,1.109099e+001
1.967515e+002,1.316016e+001
1.977157e+002,1.756450e+001
1.986800e+002,2.343590e+001
1.996442e+002,2.979542e+001
2.006084e+002,3.806976e+001
2.015727e+002,5.207603e+001
2.025369e+002,7.261867e+001
2.035011e+002,8.661002e+001
2.044654e+002,8.159523e+001
2.054296e+002,6.958325e+001
2.063938e+002,5.564127e+001
2.073581e+002,4.331071e+001
2.083223e+002,3.422537e+001
2.092865e+002,3.168034e+001
2.102508e+002,3.399054e+001
2.112150e+002,3.928218e+001
2.121792e+002,4.571236e+001
2.131435e+002,5.384557e+001
2.141077e+002,5.884905e+001
2.150719e+002,6.011494e+001
2.160362e+002,5.915291e+001
2.170004e+002,5.793312e+001
2.179646e+002,5.490234e+001
2.189289e+002,5.408208e+001
2.198931e+002,5.452357e+001
2.208573e+002,5.724253e+001
2.218216e+002,6.439309e+001
2.227858e+002,8.336177e+001
2.237500e+002,1.010374e+002
2.247143e+002,1.146587e+002
2.256785e+002,1.225313e+002
2.266427e+002,1.230041e+002
2.276070e+002,1.072265e+002
2.285712e+002,8.340968e+001
2.295354e+002,6.134346e+001
2.304997e+002,4.404452e+001
2.314639e+002,3.129050e+001
2.324281e+002,2.285153e+001
2.333924e+002,1.915899e+001
2.343566e+002,1.651867e+001
2.353208e+002,1.359500e+001
2.362851e+002,1.021062e+001
2.372493e+002,7.732745e+000
2.382135e+002,6.499383e+000
2.391778e+002,5.630750e+000
2.401420e+002,4.717725e+000
2.411062e+002,3.600379e+000
2.420705e+002,2.705664e+000
2.430347e+002,2.354468e+000
2.439989e+002,2.179852e+000
2.449632e+002,1.954047e+000
2.459274e+002,1.516028e+000
2.468916e+002,9.454285e-001
2.478559e+002,3.231934e-001
2.488201e+002,-3.012634e-001
2.497843e+002,-7.924317e-001
2.507486e+002,-9.818176e-001
2.517128e+002,-7.235168e-001
2.526770e+002,-7.482544e-001
2.536413e+002,-1.620984e+000
2.546055e+002,-2.532660e+000
2.555697e+002,-2.074469e+000
2.565340e+002,1.638251e+000
2.574982e+002,4.167664e+000
2.584625e+002,4.667480e+000
2.594267e+002,3.995721e+000
2.603909e+002,3.665460e+000
2.613552e+002,5.052399e+000
2.623194e+002,6.133569e+000
2.632836e+002,5.849969e+000
2.642479e+002,4.488647e+000
2.652121e+002,2.824554e+000
2.661763e+002,1.824890e+000
2.671406e+002,1.470758e+000
2.681048e+002,1.930164e+000
2.690690e+002,3.169757e+000
2.700333e+002,4.836603e+000
2.709975e+002,5.460126e+000
2.719617e+002,4.868591e+000
2.729260e+002,4.023358e+000
2.738902e+002,2.878613e+000
2.748544e+002,1.449499e+000
2.758187e+002,6.014709e-001
2.767829e+002,1.041126e+000
2.777471e+002,1.273785e+000
2.787114e+002,7.988403e-001
2.796756e+002,-4.164185e-001
2.806398e+002,-1.614514e+000
2.816041e+002,-2.631970e+000
2.825683e+002,-3.289423e+000
2.835325e+002,-3.220758e+000
2.844968e+002,-2.357703e+000
2.854610e+002,-1.233026e+000
2.864252e+002,-1.534149e+000
2.873895e+002,-2.489563e+000
2.883537e+002,-2.759467e+000
2.893179e+002,-1.469342e+000
2.902822e+002,1.542139e+000
2.912464e+002,3.158344e+000
2.922106e+002,3.597119e+000
2.931749e+002,3.077319e+000
2.941391e+002,1.240918e+000
2.951033e+002,-2.926971e+000
2.960676e+002,-5.151746e+000
2.970318e+002,-4.072992e+000
2.979960e+002,-2.119373e+000
2.989603e+002,-9.347717e-001
2.999245e+002,-1.360101e+000
3.008887e+002,-2.190143e+000
3.018530e+002,-2.908301e+000
3.028172e+002,-3.299841e+000
3.037814e+002,-2.974127e+000
3.047457e+002,-1.559204e+000
3.057099e+002,4.763306e-001
3.066741e+002,1.566962e+000
3.076384e+002,1.836823e+000
3.086026e+002,1.707349e+000
3.095668e+002,1.700092e+000
3.105311e+002,2.147723e+000
3.114953e+002,1.448645e+000
3.124595e+002,-1.542633e+000
3.134238e+002,-4.995874e+000
3.143880e+002,-6.750635e+000
3.153522e+002,-5.870135e+000
3.163165e+002,-4.548633e+000
3.172807e+002,-2.662915e+000
3.182449e+002,-6.948913e-001
3.192092e+002,7.223511e-001
3.201734e+002,7.958008e-001
3.211376e+002,8.476563e-001
3.221019e+002,2.381000e+000
3.230661e+002,4.654236e+000
3.240303e+002,6.360980e+000
3.249946e+002,5.737597e+000
3.259588e+002,3.367462e+000
3.269230e+002,3.594824e+000
3.278873e+002,6.532031e+000
3.288515e+002,1.033179e+001
3.298157e+002,1.171175e+001
3.307800e+002,8.435724e+000
3.317442e+002,6.566925e+000
3.327084e+002,6.397247e+000
3.336727e+002,7.374127e+000
3.346369e+002,8.639740e+000
3.356011e+002,1.049003e+001
3.365654e+002,1.204923e+001
3.375296e+002,1.316227e+001
3.384938e+002,1.390164e+001
3.394581e+002,1.418611e+001
3.404223e+002,1.316941e+001
3.413865e+002,1.283439e+001
3.423508e+002,1.495834e+001
3.433150e+002,1.927842e+001
3.442792e+002,2.495623e+001
3.452435e+002,3.077674e+001
3.462077e+002,3.683764e+001
3.471719e+002,4.344185e+001
3.481362e+002,5.012712e+001
3.491004e+002,5.797021e+001
3.500646e+002,6.934730e+001
3.510289e+002,8.175535e+001
3.519931e+002,1.032949e+002
3.529573e+002,1.361149e+002
3.539216e+002,1.774670e+002
3.548858e+002,2.247806e+002
3.558500e+002,2.943611e+002
3.568143e+002,3.438456e+002
3.577785e+002,3.582404e+002
3.587427e+002,3.434823e+002
3.597070e+002,3.096548e+002
3.606712e+002,2.589486e+002
3.616354e+002,2.033636e+002
3.625997e+002,1.569967e+002
3.635639e+002,1.208064e+002
3.645281e+002,9.390643e+001
3.654924e+002,7.462338e+001
3.664566e+002,6.532312e+001
3.674208e+002,5.640456e+001
3.683851e+002,4.738459e+001
3.693493e+002,3.887646e+001
3.703135e+002,3.231440e+001
3.712778e+002,2.927134e+001
3.722420e+002,2.667666e+001
3.732062e+002,2.414388e+001
3.741705e+002,2.189975e+001
3.751347e+002,2.040155e+001
3.760989e+002,2.027964e+001
3.770632e+002,2.046631e+001
3.780274e+002,2.081989e+001
3.789916e+002,2.088755e+001
3.799559e+002,1.990846e+001
3.809201e+002,1.667863e+001
3.818844e+002,1.252009e+001
3.828486e+002,1.086743e+001
3.838128e+002,1.160591e+001
3.847771e+002,1.362452e+001
3.857413e+002,1.527116e+001
3.867055e+002,1.647242e+001
3.876698e+002,1.740798e+001
3.886340e+002,1.744694e+001
3.895982e+002,1.741097e+001
3.905625e+002,1.873559e+001
3.915267e+002,2.338544e+001
3.924909e+002,2.594359e+001
3.934552e+002,2.459820e+001
3.944194e+002,2.141785e+001
3.953836e+002,1.842405e+001
3.963479e+002,1.655524e+001
3.973121e+002,1.596029e+001
3.982763e+002,1.707968e+001
3.992406e+002,1.903494e+001
4.002048e+002,2.046833e+001
4.011690e+002,2.002712e+001
4.021333e+002,1.814575e+001
4.030975e+002,1.831989e+001
4.040617e+002,2.051522e+001
4.050260e+002,2.348320e+001
4.059902e+002,2.596841e+001
4.069544e+002,2.763659e+001
4.079187e+002,2.968154e+001
4.088829e+002,3.148667e+001
4.098471e+002,3.392881e+001
4.108114e+002,3.772228e+001
4.117756e+002,4.317059e+001
4.127398e+002,4.950167e+001
4.137041e+002,5.828538e+001
4.146683e+002,6.645911e+001
4.156325e+002,7.198344e+001
4.165968e+002,7.376193e+001
4.175610e+002,7.205664e+001
4.185252e+002,6.558843e+001
4.194895e+002,5.710680e+001
4.204537e+002,4.985195e+001
4.214179e+002,4.588060e+001
4.223822e+002,4.507005e+001
4.233464e+002,4.549507e+001
4.243106e+002,4.679467e+001
4.252749e+002,4.895767e+001
4.262391e+002,5.174669e+001
4.272033e+002,5.512664e+001
4.281676e+002,6.079293e+001
4.291318e+002,6.747189e+001
4.300960e+002,7.754472e+001
4.310603e+002,9.231441e+001
4.320245e+002,1.116024e+002
4.329887e+002,1.336395e+002
4.339530e+002,1.582283e+002
4.349172e+002,1.844012e+002
4.358814e+002,2.156041e+002
4.368457e+002,2.499705e+002
4.378099e+002,2.810113e+002
4.387741e+002,2.948503e+002
4.397384e+002,2.937762e+002
4.407026e+002,2.838935e+002
4.416668e+002,2.656476e+002
4.426311e+002,2.411665e+002
4.435953e+002,2.175878e+002
4.445595e+002,1.934858e+002
4.455238e+002,1.726432e+002
4.464880e+002,1.552896e+002
4.474522e+002,1.412742e+002
4.484165e+002,1.308045e+002
4.493807e+002,1.269420e+002
4.503449e+002,1.232563e+002
4.513092e+002,1.186888e+002
4.522734e+002,1.126952e+002
4.532376e+002,1.044321e+002
4.542019e+002,9.239696e+001
4.551661e+002,7.956437e+001
4.561303e+002,6.937112e+001
4.570946e+002,6.166211e+001
4.580588e+002,5.605561e+001
4.590230e+002,5.215557e+001
4.599873e+002,5.019796e+001
4.609515e+002,4.868984e+001
4.619157e+002,4.738019e+001
4.628800e+002,4.665582e+001
4.638442e+002,4.696787e+001
4.648084e+002,4.867242e+001
4.657727e+002,5.042484e+001
4.667369e+002,5.192661e+001
4.677011e+002,5.373663e+001
4.686654e+002,5.658228e+001
4.696296e+002,6.072081e+001
4.705938e+002,6.396825e+001
4.715581e+002,6.490760e+001
4.725223e+002,6.422832e+001
4.734865e+002,6.190449e+001
4.744508e+002,5.814489e+001
4.754150e+002,5.352884e+001
4.763792e+002,4.908340e+001
4.773435e+002,4.485199e+001
4.783077e+002,4.120823e+001
4.792719e+002,3.832447e+001
4.802362e+002,3.613149e+001
4.812004e+002,3.416537e+001
4.821646e+002,3.289997e+001
4.831289e+002,3.115054e+001
4.840931e+002,2.829742e+001
4.850573e+002,2.477444e+001
4.860216e+002,2.177388e+001
4.869858e+002,2.003599e+001
4.879500e+002,1.883384e+001
4.889143e+002,1.777108e+001
4.898785e+002,1.701664e+001
4.908427e+002,1.710543e+001
4.918070e+002,1.890307e+001
4.927712e+002,2.073405e+001
4.937354e+002,1.944483e+001
4.946997e+002,1.613028e+001
4.956639e+002,1.353986e+001
4.966281e+002,1.451003e+001
4.975924e+002,1.948554e+001
4.985566e+002,2.193015e+001
4.995208e+002,2.049514e+001
5.004851e+002,1.917638e+001
5.014493e+002,2.121702e+001
5.024135e+002,2.755789e+001
5.033778e+002,3.285020e+001
5.043420e+002,3.651368e+001
5.053063e+002,3.940013e+001
5.062705e+002,4.203035e+001
5.072347e+002,4.435215e+001
5.081990e+002,4.529673e+001
5.091632e+002,4.277700e+001
5.101274e+002,3.903028e+001
5.110917e+002,3.513743e+001
5.120559e+002,3.141661e+001
5.130201e+002,2.756527e+001
5.139844e+002,2.258274e+001
5.149486e+002,1.673558e+001
5.159128e+002,1.325316e+001
5.168771e+002,1.319071e+001
5.178413e+002,1.474693e+001
5.188055e+002,1.383177e+001
5.197698e+002,7.401520e+000
5.207340e+002,3.091211e+000
5.216982e+002,2.115692e+000
5.226625e+002,2.633386e+000
5.236267e+002,2.499579e+000
5.245909e+002,6.564331e-001
5.255552e+002,-5.137756e-001
5.265194e+002,8.653381e-001
5.274836e+002,2.934796e+000
5.284479e+002,3.999585e+000
5.294121e+002,3.155865e+000
5.303763e+002,1.387280e+000
5.313406e+002,6.820557e-001
5.323048e+002,7.065735e-001
5.332690e+002,1.247803e+000
5.342333e+002,2.261725e+000
5.351975e+002,3.603302e+000
5.361617e+002,4.010071e+000
5.371260e+002,2.801856e+000
5.380902e+002,1.792792e+000
5.390544e+002,1.252496e+000
5.400187e+002,1.076392e+000
5.409829e+002,1.023462e+000
5.419471e+002,1.136963e+000
5.429114e+002,1.415784e+000
5.438756e+002,2.310913e+000
5.448398e+002,3.226971e+000
5.458041e+002,3.153064e+000
5.467683e+002,1.060474e+000
5.477325e+002,-1.457971e+000
5.486968e+002,-2.079627e+000
5.496610e+002,-1.383734e+000
5.506252e+002,-3.799133e-001
5.515895e+002,1.020325e-001
5.525537e+002,6.217651e-002
5.535179e+002,1.542786e-001
5.544822e+002,5.585938e-001
5.554464e+002,7.568176e-001
5.564106e+002,2.249634e-001
5.573749e+002,-1.079852e+000
5.583391e+002,-1.753046e+000
5.593033e+002,-7.437500e-001
5.602676e+002,6.408081e-002
5.612318e+002,-1.895386e-001
5.621960e+002,-1.149341e+000
5.631603e+002,-1.530206e+000
5.641245e+002,3.339111e-001
5.650887e+002,2.242670e+000
5.660530e+002,1.984039e+000
5.670172e+002,2.278870e-001
5.679814e+002,-1.356189e+000
5.689457e+002,-9.433716e-001
5.699099e+002,1.298523e+000
5.708741e+002,2.433423e+000
5.718384e+002,2.498126e+000
5.728026e+002,1.998749e+000
5.737668e+002,1.199036e+000
5.747311e+002,-2.342529e-002
5.756953e+002,-1.017877e+000
5.766595e+002,-1.680273e+000
5.776238e+002,-2.248944e+000
5.785880e+002,-2.751984e+000
5.795522e+002,-3.217505e+000
5.805165e+002,-3.765601e+000
5.814807e+002,-4.755365e+000
5.824449e+002,-5.537695e+000
5.834092e+002,-5.723175e+000
5.843734e+002,-5.393506e+000
5.853376e+002,-4.849188e+000
5.863019e+002,-4.436297e+000
5.872661e+002,-4.062640e+000
5.882303e+002,-3.289801e+000
5.891946e+002,-2.097266e+000
5.901588e+002,-8.473511e-001
5.911230e+002,1.160583e-001
5.920873e+002,8.019287e-001
5.930515e+002,1.018072e+000
5.940157e+002,6.980652e-001
5.949800e+002,1.900574e-001
5.959442e+002,-4.804870e-001
5.969084e+002,-1.286444e+000
5.978727e+002,-1.861725e+000
5.988369e+002,-1.709467e+000
5.998011e+002,-1.489478e+000
6.007654e+002,-1.471558e+000
6.017296e+002,-1.649548e+000
6.026938e+002,-1.899280e+000
6.036581e+002,-2.154120e+000
6.046223e+002,-2.275586e+000
6.055865e+002,-1.817938e+000
6.065508e+002,-8.136597e-001
6.075150e+002,1.578125e-001
6.084792e+002,4.357361e-001
6.094435e+002,-1.850464e-001
6.104077e+002,-3.708923e-001
6.113719e+002,6.884155e-002
6.123362e+002,5.281311e-001
6.133004e+002,6.238343e-001
6.142646e+002,3.498718e-001
6.152289e+002,2.600098e-001
6.161931e+002,6.757935e-001
6.171573e+002,1.228693e+000
6.181216e+002,1.759076e+000
6.190858e+002,2.371722e+000
6.200500e+002,3.370801e+000
6.210143e+002,5.201202e+000
6.219785e+002,7.270477e+000
6.229427e+002,8.474383e+000
6.239070e+002,8.888556e+000
6.248712e+002,8.878546e+000
6.258354e+002,8.775311e+000
6.267997e+002,8.544513e+000
6.277639e+002,9.356738e+000
6.287281e+002,1.218558e+001
6.296924e+002,1.442575e+001
6.306566e+002,1.463683e+001
6.316208e+002,1.300475e+001
6.325851e+002,1.166556e+001
6.335493e+002,1.127494e+001
6.345135e+002,1.140794e+001
6.354778e+002,1.242120e+001
6.364420e+002,1.379882e+001
6.374063e+002,1.461792e+001
6.383705e+002,1.401116e+001
6.393347e+002,1.283680e+001
6.402990e+002,1.262927e+001
6.412632e+002,1.313867e+001
6.422274e+002,1.384714e+001
6.431917e+002,1.436920e+001
6.441559e+002,1.465972e+001
6.451201e+002,1.395312e+001
6.460844e+002,1.162571e+001
6.470486e+002,9.672040e+000
6.480128e+002,8.968536e+000
6.489771e+002,9.203497e+000
6.499413e+002,8.989380e+000
6.509055e+002,7.441003e+000
6.518698e+002,6.236438e+000
6.528340e+002,6.204871e+000
6.537982e+002,6.646350e+000
6.547625e+002,6.490277e+000
6.557267e+002,5.010046e+000
6.566909e+002,3.342334e+000
6.576552e+002,3.378522e+000
6.586194e+002,4.301684e+000
6.595836e+002,4.857489e+000
6.605479e+002,4.467847e+000
6.615121e+002,3.606580e+000
6.624763e+002,4.216736e+000
6.634406e+002,7.025311e+000
6.644048e+002,9.425323e+000
6.653690e+002,1.151903e+001
6.663333e+002,1.280821e+001
6.672975e+002,1.211645e+001
6.682617e+002,7.968689e+000
6.692260e+002,4.960236e+000
6.701902e+002,4.090277e+000
6.711544e+002,4.549994e+000
6.721187e+002,6.213086e+000
6.730829e+002,8.863684e+000
6.740471e+002,1.118744e+001
6.750114e+002,1.071854e+001
6.759756e+002,9.214930e+000
6.769398e+002,8.410235e+000
6.779041e+002,8.641571e+000
6.788683e+002,9.215296e+000
6.798325e+002,8.850879e+000
6.807968e+002,7.126691e+000
6.817610e+002,6.138812e+000
6.827252e+002,6.343860e+000
6.836895e+002,6.867328e+000
6.846537e+002,6.780408e+000
6.856179e+002,5.832855e+000
6.865822e+002,5.612237e+000
6.875464e+002,7.431061e+000
6.885106e+002,9.109777e+000
6.894749e+002,9.434265e+000
6.904391e+002,8.628790e+000
6.914034e+002,7.974463e+000
6.923676e+002,8.701068e+000
6.933318e+002,1.018535e+001
6.942961e+002,1.170162e+001
6.952603e+002,1.310084e+001
6.962245e+002,1.392940e+001
6.971888e+002,1.372261e+001
6.981530e+002,1.242322e+001
6.991172e+002,1.255420e+001
7.000815e+002,1.475356e+001
7.010457e+002,1.671910e+001
7.020099e+002,1.767639e+001
7.029742e+002,1.779373e+001
7.039384e+002,1.767914e+001
7.049026e+002,1.675815e+001
7.058669e+002,1.650750e+001
7.068311e+002,1.773078e+001
7.077953e+002,1.961213e+001
7.087596e+002,2.118052e+001
7.097238e+002,2.194846e+001
7.106880e+002,2.241011e+001
7.116523e+002,2.338231e+001
7.126165e+002,2.447400e+001
7.135807e+002,2.527607e+001
7.145450e+002,2.563737e+001
7.155092e+002,2.545702e+001
7.164734e+002,2.437073e+001
7.174377e+002,2.157007e+001
7.184019e+002,1.959908e+001
7.193661e+002,1.886030e+001
7.203304e+002,1.859209e+001
7.212946e+002,1.796561e+001
7.222589e+002,1.680402e+001
7.232231e+002,1.604090e+001
7.241873e+002,1.662979e+001
7.251516e+002,1.708084e+001
7.261158e+002,1.613955e+001
7.270800e+002,1.404020e+001
7.280443e+002,1.229843e+001
7.290085e+002,1.272930e+001
7.299727e+002,1.443774e+001
7.309370e+002,1.561442e+001
7.319012e+002,1.618316e+001
7.328654e+002,1.587993e+001
7.338297e+002,1.435051e+001
7.347939e+002,1.148636e+001
7.357581e+002,9.721704e+000
7.367224e+002,9.356012e+000
7.376866e+002,9.456286e+000
7.386508e+002,1.007944e+001
7.396151e+002,1.100103e+001
7.405793e+002,1.160759e+001
7.415435e+002,1.160711e+001
7.425078e+002,1.154941e+001
7.434720e+002,1.139847e+001
7.444362e+002,1.138744e+001
7.454005e+002,1.172193e+001
7.463647e+002,1.251244e+001
7.473289e+002,1.376892e+001
7.482932e+002,1.619378e+001
7.492574e+002,1.912128e+001
7.502216e+002,2.052105e+001
7.511859e+002,1.981572e+001
7.521501e+002,1.788491e+001
7.531143e+002,1.628746e+001
7.540786e+002,1.498673e+001
7.550428e+002,1.438530e+001
7.560070e+002,1.475881e+001
7.569713e+002,1.537888e+001
7.579355e+002,1.597172e+001
7.588997e+002,1.645035e+001
7.598640e+002,1.652290e+001
7.608282e+002,1.549628e+001
7.617924e+002,1.460879e+001
7.627567e+002,1.455825e+001
7.637209e+002,1.513694e+001
7.646851e+002,1.583555e+001
7.656494e+002,1.623697e+001
7.666136e+002,1.650681e+001
7.675778e+002,1.750229e+001
7.685421e+002,1.911856e+001
7.695063e+002,2.046791e+001
7.704705e+002,2.112803e+001
7.714348e+002,2.123309e+001
7.723990e+002,2.131119e+001
7.733632e+002,2.136288e+001
7.743275e+002,2.129688e+001
7.752917e+002,2.072091e+001
7.762559e+002,2.034390e+001
7.772202e+002,2.101005e+001
7.781844e+002,2.292465e+001
7.791486e+002,2.476171e+001
7.801129e+002,2.534710e+001
7.810771e+002,2.532964e+001
7.820413e+002,2.468375e+001
7.830056e+002,2.374673e+001
7.839698e+002,2.327310e+001
7.849340e+002,2.414425e+001
7.858983e+002,2.632398e+001
7.868625e+002,2.831223e+001
7.878267e+002,3.024459e+001
7.887910e+002,3.161321e+001
7.897552e+002,3.164061e+001
7.907194e+002,3.062670e+001
7.916837e+002,3.097455e+001
7.926479e+002,3.495908e+001
7.936121e+002,3.747740e+001
7.945764e+002,3.637999e+001
7.955406e+002,3.394299e+001
7.965048e+002,3.276536e+001
7.974691e+002,3.392152e+001
7.984333e+002,3.601466e+001
7.993975e+002,3.717761e+001
8.003618e+002,3.809551e+001
8.013260e+002,3.968548e+001
8.022902e+002,4.205421e+001
8.032545e+002,4.450195e+001
8.042187e+002,4.596551e+001
8.051829e+002,4.612856e+001
8.061472e+002,4.744328e+001
8.071114e+002,5.090285e+001
8.080756e+002,5.406489e+001
8.090399e+002,5.487397e+001
8.100041e+002,5.393798e+001
8.109683e+002,5.538397e+001
8.119326e+002,6.204390e+001
8.128968e+002,6.913191e+001
8.138610e+002,7.508623e+001
8.148253e+002,8.032537e+001
8.157895e+002,8.523808e+001
8.167537e+002,9.010078e+001
8.177180e+002,9.520626e+001
8.186822e+002,1.017241e+002
8.196464e+002,1.089176e+002
8.206107e+002,1.151285e+002
8.215749e+002,1.199217e+002
8.225391e+002,1.235396e+002
8.235034e+002,1.265778e+002
8.244676e+002,1.297981e+002
8.254318e+002,1.294590e+002
8.263961e+002,1.248823e+002
8.273603e+002,1.190223e+002
8.283245e+002,1.121174e+002
8.292888e+002,1.047881e+002
8.302530e+002,9.906422e+001
8.312172e+002,9.684353e+001
8.321815e+002,9.500054e+001
8.331457e+002,9.165978e+001
8.341099e+002,8.735835e+001
8.350742e+002,8.226633e+001
8.360384e+002,7.669910e+001
8.370026e+002,7.171275e+001
8.379669e+002,7.025883e+001
8.389311e+002,7.250047e+001
8.398953e+002,7.259631e+001
8.408596e+002,6.918171e+001
8.418238e+002,6.453337e+001
8.427880e+002,6.137886e+001
8.437523e+002,6.008020e+001
8.447165e+002,5.848837e+001
8.456807e+002,5.600573e+001
8.466450e+002,5.359719e+001
8.476092e+002,5.139601e+001
8.485734e+002,4.948209e+001
8.495377e+002,4.808995e+001
8.505019e+002,4.752901e+001
8.514661e+002,4.711912e+001
8.524304e+002,4.559016e+001
8.533946e+002,4.364476e+001
8.543588e+002,4.252813e+001
8.553231e+002,4.268061e+001
8.562873e+002,4.343218e+001
8.572515e+002,4.326917e+001
8.582158e+002,4.157507e+001
8.591800e+002,4.093605e+001
8.601442e+002,4.249366e+001
8.611085e+002,4.379513e+001
8.620727e+002,4.274133e+001
8.630369e+002,3.959655e+001
8.640012e+002,3.765287e+001
8.649654e+002,3.919182e+001
8.659296e+002,4.069533e+001
8.668939e+002,4.032050e+001
8.678581e+002,3.905494e+001
8.688223e+002,3.844067e+001
8.697866e+002,3.923074e+001
8.707508e+002,4.056727e+001
8.717150e+002,4.059563e+001
8.726793e+002,3.958007e+001
8.736435e+002,3.877080e+001
8.746077e+002,3.837328e+001
8.755720e+002,3.824499e+001
8.765362e+002,3.834377e+001
8.775004e+002,3.888747e+001
8.784647e+002,3.869469e+001
8.794289e+002,3.726337e+001
8.803931e+002,3.566291e+001
8.813574e+002,3.408270e+001
8.823216e+002,3.258143e+001
8.832858e+002,3.128732e+001
8.842501e+002,3.040376e+001
8.852143e+002,2.941069e+001
8.861785e+002,2.693097e+001
8.871428e+002,2.429236e+001
8.881070e+002,2.354753e+001
8.890712e+002,2.503093e+001
8.900355e+002,2.701691e+001
8.909997e+002,2.668246e+001
8.919639e+002,2.352579e+001
8.929282e+002,2.208082e+001
8.938924e+002,2.310849e+001
8.948566e+002,2.450414e+001
8.958209e+002,2.565347e+001
8.967851e+002,2.641660e+001
8.977493e+002,2.604318e+001
8.987136e+002,2.346353e+001
8.996778e+002,2.113325e+001
9.006420e+002,2.026068e+001
9.016063e+002,1.989332e+001
9.025705e+002,1.914724e+001
9.035347e+002,1.779302e+001
9.044990e+002,1.627663e+001
9.054632e+002,1.507592e+001
9.064274e+002,1.415666e+001
9.073917e+002,1.338706e+001
9.083559e+002,1.280242e+001
9.093201e+002,1.242871e+001
9.102844e+002,1.234202e+001
9.112486e+002,1.251118e+001
9.122128e+002,1.249898e+001
9.131771e+002,1.236220e+001
9.141413e+002,1.191862e+001
9.151055e+002,1.079244e+001
9.160698e+002,9.607715e+000
9.170340e+002,8.830780e+000
9.179982e+002,8.577408e+000
9.189625e+002,8.971985e+000
9.199267e+002,1.105955e+001
9.208909e+002,1.306783e+001
9.218552e+002,1.313627e+001
9.228194e+002,1.153597e+001
9.237836e+002,9.237555e+000
9.247479e+002,6.987085e+000
9.257121e+002,5.004791e+000
9.266763e+002,4.698160e+000
9.276406e+002,7.362756e+000
9.286048e+002,8.756241e+000
9.295690e+002,7.706342e+000
9.305333e+002,5.710889e+000
9.314975e+002,4.326651e+000
9.324617e+002,3.687314e+000
9.334260e+002,3.438300e+000
9.343902e+002,3.771033e+000
9.353545e+002,4.185431e+000
9.363187e+002,4.418161e+000
9.372830e+002,4.578928e+000
9.382472e+002,4.960367e+000
9.392114e+002,5.754181e+000
9.401757e+002,6.767450e+000
9.411399e+002,7.413034e+000
9.421041e+002,7.727399e+000
9.430684e+002,8.205795e+000
9.440326e+002,9.061310e+000
9.449968e+002,9.756256e+000
9.459611e+002,9.504150e+000
9.469253e+002,8.144516e+000
9.478895e+002,7.289551e+000
9.488538e+002,7.156375e+000
9.498180e+002,7.368674e+000
9.507822e+002,7.907822e+000
9.517465e+002,8.675390e+000
9.527107e+002,9.698596e+000
9.536749e+002,1.102304e+001
9.546392e+002,1.222134e+001
9.556034e+002,1.247829e+001
9.565676e+002,1.233458e+001
9.575319e+002,1.248905e+001
9.584961e+002,1.305099e+001
9.594603e+002,1.378946e+001
9.604246e+002,1.440759e+001
9.613888e+002,1.487812e+001
9.623530e+002,1.593156e+001
9.633173e+002,1.807770e+001
9.642815e+002,2.006259e+001
9.652457e+002,2.089087e+001
9.662100e+002,2.204672e+001
9.671742e+002,2.488488e+001
9.681384e+002,2.957043e+001
9.691027e+002,3.691591e+001
9.700669e+002,4.842698e+001
9.710311e+002,6.231553e+001
9.719954e+002,8.160591e+001
9.729596e+002,1.022590e+002
9.739238e+002,1.160148e+002
9.748881e+002,1.172870e+002
9.758523e+002,1.084524e+002
9.768165e+002,9.644674e+001
9.777808e+002,8.021783e+001
9.787450e+002,6.684155e+001
9.797092e+002,5.813714e+001
9.806735e+002,5.165385e+001
9.816377e+002,4.488570e+001
9.826019e+002,3.780618e+001
9.835662e+002,3.265415e+001
9.845304e+002,3.107503e+001
9.854946e+002,3.050428e+001
9.864589e+002,3.050462e+001
9.874231e+002,3.080244e+001
9.883873e+002,3.106544e+001
9.893516e+002,3.117176e+001
9.903158e+002,3.141402e+001
9.912800e+002,3.229917e+001
9.922443e+002,3.386468e+001
9.932085e+002,3.529837e+001
9.941727e+002,3.645879e+001
9.951370e+002,3.906629e+001
9.961012e+002,4.417401e+001
9.970654e+002,5.158881e+001
9.980297e+002,6.070742e+001
9.989939e+002,6.907547e+001
9.999581e+002,8.425929e+001
1.000922e+003,1.002084e+002
1.001887e+003,1.280956e+002
1.002851e+003,1.808944e+002
1.003815e+003,2.556778e+002
1.004779e+003,3.391360e+002
1.005744e+003,4.352993e+002
1.006708e+003,5.091907e+002
1.007672e+003,5.057746e+002
1.008636e+003,4.464651e+002
1.009600e+003,3.720487e+002
1.010565e+003,2.994615e+002
1.011529e+003,2.320437e+002
1.012493e+003,1.775605e+002
1.013457e+003,1.379792e+002
1.014422e+003,1.080212e+002
1.015386e+003,8.952971e+001
1.016350e+003,7.562685e+001
1.017314e+003,6.473403e+001
1.018279e+003,5.618964e+001
1.019243e+003,4.943246e+001
1.020207e+003,4.450409e+001
1.021171e+003,4.052649e+001
1.022135e+003,3.710704e+001
1.023100e+003,3.407363e+001
1.024064e+003,3.140085e+001
1.025028e+003,2.895257e+001
1.025992e+003,2.640682e+001
1.026957e+003,2.345472e+001
1.027921e+003,2.036030e+001
1.028885e+003,1.864905e+001
1.029849e+003,1.889430e+001
1.030814e+003,1.923497e+001
1.031778e+003,1.982100e+001
1.032742e+003,2.005502e+001
1.033706e+003,1.923539e+001
1.034671e+003,1.741805e+001
1.035635e+003,1.569637e+001
1.036599e+003,1.406700e+001
1.037563e+003,1.323994e+001
1.038527e+003,1.408646e+001
1.039492e+003,1.562781e+001
1.040456e+003,1.673250e+001
1.041420e+003,1.692905e+001
1.042384e+003,1.640063e+001
1.043349e+003,1.526444e+001
1.044313e+003,1.359180e+001
1.045277e+003,1.351464e+001
1.046241e+003,1.569510e+001
1.047206e+003,1.733887e+001
1.048170e+003,1.666828e+001
1.049134e+003,1.461749e+001
1.050098e+003,1.349744e+001
1.051063e+003,1.376151e+001
1.052027e+003,1.421451e+001
1.052991e+003,1.452100e+001
1.053955e+003,1.471091e+001
1.054919e+003,1.485580e+001
1.055884e+003,1.489307e+001
1.056848e+003,1.460268e+001
1.057812e+003,1.388374e+001
1.058776e+003,1.320438e+001
1.059741e+003,1.362743e+001
1.060705e+003,1.493643e+001
1.061669e+003,1.583095e+001
1.062633e+003,1.625749e+001
1.063598e+003,1.590201e+001
1.064562e+003,1.386929e+001
1.065526e+003,1.041632e+001
1.066490e+003,8.918579e+000
1.067454e+003,1.104344e+001
1.068419e+003,1.289535e+001
1.069383e+003,1.316854e+001
1.070347e+003,1.310419e+001
1.071311e+003,1.391871e+001
1.072276e+003,1.556246e+001
1.073240e+003,1.693824e+001
1.074204e+003,1.716391e+001
1.075168e+003,1.673523e+001
1.076133e+003,1.686935e+001
1.077097e+003,1.737142e+001
1.078061e+003,1.748870e+001
1.079025e+003,1.694524e+001
1.079990e+003,1.605938e+001
1.080954e+003,1.513398e+001
1.081918e+003,1.407227e+001
1.082882e+003,1.370060e+001
1.083846e+003,1.449156e+001
1.084811e+003,1.548124e+001
1.085775e+003,1.692295e+001
1.086739e+003,1.820767e+001
1.087703e+003,1.866738e+001
1.088668e+003,1.824748e+001
1.089632e+003,1.758364e+001
1.090596e+003,1.709995e+001
1.091560e+003,1.673675e+001
1.092525e+003,1.631863e+001
1.093489e+003,1.587967e+001
1.094453e+003,1.571134e+001
1.095417e+003,1.601530e+001
1.096381e+003,1.649469e+001
1.097346e+003,1.645959e+001
1.098310e+003,1.563557e+001
1.099274e+003,1.527081e+001
1.100238e+003,1.565529e+001
1.101203e+003,1.616928e+001
1.102167e+003,1.691758e+001
1.103131e+003,1.751882e+001
1.104095e+003,1.721990e+001
1.105060e+003,1.589157e+001
1.106024e+003,1.488923e+001
1.106988e+003,1.571213e+001
1.107952e+003,1.742569e+001
1.108917e+003,1.858211e+001
1.109881e+003,1.917262e+001
1.110845e+003,1.929303e+001
1.111809e+003,1.893591e+001
1.112773e+003,1.831779e+001
1.113738e+003,1.802370e+001
1.114702e+003,1.830315e+001
1.115666e+003,1.836764e+001
1.116630e+003,1.805964e+001
1.117595e+003,1.767458e+001
1.118559e+003,1.717397e+001
1.119523e+003,1.672217e+001
1.120487e+003,1.649296e+001
1.121452e+003,1.655373e+001
1.122416e+003,1.705607e+001
1.123380e+003,1.855813e+001
1.124344e+003,2.011333e+001
1.125308e+003,2.016082e+001
1.126273e+003,1.913235e+001
1.127237e+003,1.877738e+001
1.128201e+003,2.011197e+001
1.129165e+003,2.217086e+001
1.130130e+003,2.247313e+001
1.131094e+003,1.976681e+001
1.132058e+003,1.911854e+001
1.133022e+003,2.255520e+001
1.133987e+003,2.520306e+001
1.134951e+003,2.522957e+001
1.135915e+003,2.370202e+001
1.136879e+003,2.192193e+001
1.137844e+003,2.028177e+001
1.138808e+003,1.931429e+001
1.139772e+003,1.975135e+001
1.140736e+003,2.074271e+001
1.141700e+003,2.106223e+001
1.142665e+003,2.097727e+001
1.143629e+003,2.143651e+001
1.144593e+003,2.295829e+001
1.145557e+003,2.483536e+001
1.146522e+003,2.561027e+001
1.147486e+003,2.492723e+001
1.148450e+003,2.417839e+001
1.149414e+003,2.291837e+001
1.150379e+003,2.231448e+001
1.151343e+003,2.328248e+001
1.152307e+003,2.473282e+001
1.153271e+003,2.512284e+001
1.154235e+003,2.422787e+001
1.155200e+003,2.352802e+001
1.156164e+003,2.425351e+001
1.157128e+003,2.568489e+001
1.158092e+003,2.700433e+001
1.159057e+003,2.803983e+001
1.160021e+003,2.807314e+001
1.160985e+003,2.677878e+001
1.161949e+003,2.538916e+001
1.162914e+003,2.597958e+001
1.163878e+003,2.891475e+001
1.164842e+003,3.057641e+001
1.165806e+003,2.918112e+001
1.166771e+003,2.869620e+001
1.167735e+003,3.037474e+001
1.168699e+003,3.259113e+001
1.169663e+003,3.376943e+001
1.170627e+003,3.391527e+001
1.171592e+003,3.432205e+001
1.172556e+003,3.594698e+001
1.173520e+003,3.774915e+001
1.174484e+003,3.787100e+001
1.175449e+003,3.703612e+001
1.176413e+003,3.649764e+001
1.177377e+003,3.652778e+001
1.178341e+003,3.711353e+001
1.179306e+003,3.835340e+001
1.180270e+003,4.022605e+001
1.181234e+003,4.214091e+001
1.182198e+003,4.450657e+001
1.183162e+003,4.604573e+001
1.184127e+003,4.654898e+001
1.185091e+003,4.638622e+001
1.186055e+003,4.586547e+001
1.187019e+003,4.494367e+001
1.187984e+003,4.300277e+001
1.188948e+003,3.968344e+001
1.189912e+003,3.671333e+001
1.190876e+003,3.675966e+001
1.191841e+003,3.871960e+001
1.192805e+003,3.981930e+001
1.193769e+003,3.993090e+001
1.194733e+003,3.957975e+001
1.195698e+003,3.887192e+001
1.196662e+003,3.806034e+001
1.197626e+003,3.806099e+001
1.198590e+003,3.942611e+001
1.199554e+003,3.949251e+001
1.200519e+003,3.610524e+001
1.201483e+003,3.365130e+001
1.202447e+003,3.426474e+001
1.203411e+003,3.622571e+001
1.204376e+003,3.726282e+001
1.205340e+003,3.680243e+001
1.206304e+003,3.603031e+001
1.207268e+003,3.618724e+001
1.208233e+003,3.681194e+001
1.209197e+003,3.582114e+001
1.210161e+003,3.341567e+001
1.211125e+003,3.204401e+001
1.212089e+003,3.277131e+001
1.213054e+003,3.392583e+001
1.214018e+003,3.341553e+001
1.214982e+003,3.150954e+001
1.215946e+003,3.094330e+001
1.216911e+003,3.223676e+001
1.217875e+003,3.439825e+001
1.218839e+003,3.870307e+001
1.219803e+003,4.211954e+001
1.220768e+003,4.181040e+001
1.221732e+003,3.881390e+001
1.222696e+003,3.600833e+001
1.223660e+003,3.503051e+001
1.224625e+003,3.513508e+001
1.225589e+003,3.501881e+001
1.226553e+003,3.465916e+001
1.227517e+003,3.507742e+001
1.228481e+003,3.676469e+001
1.229446e+003,3.808859e+001
1.230410e+003,3.801683e+001
1.231374e+003,3.725738e+001
1.232338e+003,3.708428e+001
1.233303e+003,3.765492e+001
1.234267e+003,3.799036e+001
1.235231e+003,3.759734e+001
1.236195e+003,3.699231e+001
1.237160e+003,3.614733e+001
1.238124e+003,3.539140e+001
1.239088e+003,3.534388e+001
1.240052e+003,3.597842e+001
1.241016e+003,3.640985e+001
1.241981e+003,3.574193e+001
1.242945e+003,3.448407e+001
1.243909e+003,3.507788e+001
1.244873e+003,3.892955e+001
1.245838e+003,4.128394e+001
1.246802e+003,4.125814e+001
1.247766e+003,4.065493e+001
1.248730e+003,4.042235e+001
1.249695e+003,4.036396e+001
1.250659e+003,3.990773e+001
1.251623e+003,3.889180e+001
1.252587e+003,3.789154e+001
1.253552e+003,3.699841e+001
1.254516e+003,3.659782e+001
1.255480e+003,3.760537e+001
1.256444e+003,3.930708e+001
1.257408e+003,3.982359e+001
1.258373e+003,3.848650e+001
1.259337e+003,3.688771e+001
1.260301e+003,3.736367e+001
1.261265e+003,3.996541e+001
1.262230e+003,4.156840e+001
1.263194e+003,4.071078e+001
1.264158e+003,4.069554e+001
1.265122e+003,4.297060e+001
1.266087e+003,4.496717e+001
1.267051e+003,4.458196e+001
1.268015e+003,4.258762e+001
1.268979e+003,4.112654e+001
1.269943e+003,4.105363e+001
1.270908e+003,4.155506e+001
1.271872e+003,4.179755e+001
1.272836e+003,4.201017e+001
1.273800e+003,4.275568e+001
1.274765e+003,4.400710e+001
1.275729e+003,4.534161e+001
1.276693e+003,4.676014e+001
1.277657e+003,4.778637e+001
1.278622e+003,4.733575e+001
1.279586e+003,4.525026e+001
1.280550e+003,4.411573e+001
1.281514e+003,4.471027e+001
1.282479e+003,4.566502e+001
1.283443e+003,4.746133e+001
1.284407e+003,4.866775e+001
1.285371e+003,4.774176e+001
1.286335e+003,4.521837e+001
1.287300e+003,4.261105e+001
1.288264e+003,4.080412e+001
1.289228e+003,3.994180e+001
1.290192e+003,4.029144e+001
1.291157e+003,4.180758e+001
1.292121e+003,4.309192e+001
1.293085e+003,4.404963e+001
1.294049e+003,4.483077e+001
1.295014e+003,4.564205e+001
1.295978e+003,4.632322e+001
1.296942e+003,4.633146e+001
1.297906e+003,4.583595e+001
1.298870e+003,4.652445e+001
1.299835e+003,4.957326e+001
1.300799e+003,5.207280e+001
1.301763e+003,5.120599e+001
1.302727e+003,4.962128e+001
1.303692e+003,5.021136e+001
1.304656e+003,5.254877e+001
1.305620e+003,5.400181e+001
1.306584e+003,5.303418e+001
1.307549e+003,5.098488e+001
1.308513e+003,5.046663e+001
1.309477e+003,5.164476e+001
1.310441e+003,5.280970e+001
1.311406e+003,5.459144e+001
1.312370e+003,5.558350e+001
1.313334e+003,5.488707e+001
1.314298e+003,5.393970e+001
1.315263e+003,5.381670e+001
1.316227e+003,5.454922e+001
1.317191e+003,5.603500e+001
1.318155e+003,5.834203e+001
1.319120e+003,6.008737e+001
1.320084e+003,5.946546e+001
1.321048e+003,5.730561e+001
1.322012e+003,5.527310e+001
1.322976e+003,5.347792e+001
1.323941e+003,5.267315e+001
1.324905e+003,5.350377e+001
1.325869e+003,5.500816e+001
1.326833e+003,5.573433e+001
1.327798e+003,5.566465e+001
1.328762e+003,5.570320e+001
1.329726e+003,5.623761e+001
1.330690e+003,5.617199e+001
1.331655e+003,5.443016e+001
1.332619e+003,5.285045e+001
1.333583e+003,5.285410e+001
1.334547e+003,5.395913e+001
1.335511e+003,5.507143e+001
1.336476e+003,5.568977e+001
1.337440e+003,5.605159e+001
1.338404e+003,5.644585e+001
1.339368e+003,5.692268e+001
1.340333e+003,5.769421e+001
1.341297e+003,5.898925e+001
1.342261e+003,5.971637e+001
1.343225e+003,5.945557e+001
1.344190e+003,5.895081e+001
1.345154e+003,5.868245e+001
1.346118e+003,5.856638e+001
1.347082e+003,5.827951e+001
1.348047e+003,5.771332e+001
1.349011e+003,5.736956e+001
1.349975e+003,5.789423e+001
1.350939e+003,5.842234e+001
1.351903e+003,5.757402e+001
1.352868e+003,5.610430e+001
1.353832e+003,5.586561e+001
1.354796e+003,5.727983e+001
1.355760e+003,5.865950e+001
1.356725e+003,5.823223e+001
1.357689e+003,5.657352e+001
1.358653e+003,5.637394e+001
1.359617e+003,5.827987e+001
1.360582e+003,5.979336e+001
1.361546e+003,6.119251e+001
1.362510e+003,6.154662e+001
1.363474e+003,5.938810e+001
1.364438e+003,5.692670e+001
1.365403e+003,5.668229e+001
1.366367e+003,5.853625e+001
1.367331e+003,6.051046e+001
1.368295e+003,6.134856e+001
1.369260e+003,6.134342e+001
1.370224e+003,6.094791e+001
1.371188e+003,6.027283e+001
1.372152e+003,5.998545e+001
1.373117e+003,6.001902e+001
1.374081e+003,6.019189e+001
1.375045e+003,6.037892e+001
1.376009e+003,6.075936e+001
1.376974e+003,6.195943e+001
1.377938e+003,6.371497e+001
1.378902e+003,6.417824e+001
1.379866e+003,6.240434e+001
1.380830e+003,6.067104e+001
1.381795e+003,6.066401e+001
1.382759e+003,6.139220e+001
1.383723e+003,6.218978e+001
1.384687e+003,6.301992e+001
1.385652e+003,6.394756e+001
1.386616e+003,6.497922e+001
1.387580e+003,6.586862e+001
1.388544e+003,6.628345e+001
1.389509e+003,6.622311e+001
1.390473e+003,6.596635e+001
1.391437e+003,6.503372e+001
1.392401e+003,6.526007e+001
1.393365e+003,6.824245e+001
1.394330e+003,7.045367e+001
1.395294e+003,7.001579e+001
1.396258e+003,6.816807e+001
1.397222e+003,6.621729e+001
1.398187e+003,6.474748e+001
1.399151e+003,6.412090e+001
1.400115e+003,6.455144e+001
1.401079e+003,6.540068e+001
1.402044e+003,6.544753e+001
1.403008e+003,6.471191e+001
1.403972e+003,6.528725e+001
1.404936e+003,6.789710e+001
1.405901e+003,7.012602e+001
1.406865e+003,7.106908e+001
1.407829e+003,7.132361e+001
1.408793e+003,7.141366e+001
1.409757e+003,7.141453e+001
1.410722e+003,7.132349e+001
1.411686e+003,7.103114e+001
1.412650e+003,7.076811e+001
1.413614e+003,7.084627e+001
1.414579e+003,7.106584e+001
1.415543e+003,7.121928e+001
1.416507e+003,7.134113e+001
1.417471e+003,7.143254e+001
1.418436e+003,7.145211e+001
1.419400e+003,7.147729e+001
1.420364e+003,7.162249e+001
1.421328e+003,7.196350e+001
1.422292e+003,7.258418e+001
1.423257e+003,7.346777e+001
1.424221e+003,7.440349e+001
1.425185e+003,7.530724e+001
1.426149e+003,7.622083e+001
1.427114e+003,7.723538e+001
1.428078e+003,7.847243e+001
1.429042e+003,8.036544e+001
1.430006e+003,8.240454e+001
1.430971e+003,8.320544e+001
1.431935e+003,8.215067e+001
1.432899e+003,8.038255e+001
1.433863e+003,7.953170e+001
1.434828e+003,7.962119e+001
1.435792e+003,8.026754e+001
1.436756e+003,8.194166e+001
1.437720e+003,8.269837e+001
1.438684e+003,8.232695e+001
1.439649e+003,8.136539e+001
1.440613e+003,7.914695e+001
1.441577e+003,7.697578e+001
1.442541e+003,7.737440e+001
1.443506e+003,8.036906e+001
1.444470e+003,8.288493e+001
1.445434e+003,8.315214e+001
1.446398e+003,8.261678e+001
1.447363e+003,8.322343e+001
1.448327e+003,8.442931e+001
1.449291e+003,8.475813e+001
1.450255e+003,8.410703e+001
1.451219e+003,8.381703e+001
1.452184e+003,8.462810e+001
1.453148e+003,8.591940e+001
1.454112e+003,8.714836e+001
1.455076e+003,8.821245e+001
1.456041e+003,8.836664e+001
1.457005e+003,8.719704e+001
1.457969e+003,8.661584e+001
1.458933e+003,8.795140e+001
1.459898e+003,8.955069e+001
1.460862e+003,9.070269e+001
1.461826e+003,9.121840e+001
1.462790e+003,9.033995e+001
1.463755e+003,8.841054e+001
1.464719e+003,8.778229e+001
1.465683e+003,9.031911e+001
1.466647e+003,9.420853e+001
1.467611e+003,9.501656e+001
1.468576e+003,9.210458e+001
1.469540e+003,9.054303e+001
1.470504e+003,9.184682e+001
1.471468e+003,9.234672e+001
1.472433e+003,9.021317e+001
1.473397e+003,8.851477e+001
1.474361e+003,8.983821e+001
1.475325e+003,9.262944e+001
1.476290e+003,9.422017e+001
1.477254e+003,9.394486e+001
1.478218e+003,9.296795e+001
1.479182e+003,9.222367e+001
1.480146e+003,9.192744e+001
1.481111e+003,9.261734e+001
1.482075e+003,9.443645e+001
1.483039e+003,9.510706e+001
1.484003e+003,9.408523e+001
1.484968e+003,9.293557e+001
1.485932e+003,9.150216e+001
1.486896e+003,9.071358e+001
1.487860e+003,9.223640e+001
1.488825e+003,9.469063e+001
1.489789e+003,9.442499e+001
1.490753e+003,9.072949e+001
1.491717e+003,8.744521e+001
1.492682e+003,8.715139e+001
1.493646e+003,8.855094e+001
1.494610e+003,9.004994e+001
1.495574e+003,9.146394e+001
1.496538e+003,9.217398e+001
1.497503e+003,9.210313e+001
1.498467e+003,9.167329e+001
1.499431e+003,9.049066e+001
1.500395e+003,8.945483e+001
1.501360e+003,8.991911e+001
1.502324e+003,9.169792e+001
1.503288e+003,9.392500e+001
1.504252e+003,9.673317e+001
1.505217e+003,9.801889e+001
1.506181e+003,9.604208e+001
1.507145e+003,9.308275e+001
1.508109e+003,9.035464e+001
1.509073e+003,8.828909e+001
1.510038e+003,8.811650e+001
1.511002e+003,8.961044e+001
1.511966e+003,9.003717e+001
1.512930e+003,8.738738e+001
1.513895e+003,8.418838e+001
1.514859e+003,8.546442e+001
1.515823e+003,9.105137e+001
1.516787e+003,9.363015e+001
1.517752e+003,9.214153e+001
1.518716e+003,9.032562e+001
1.519680e+003,8.799403e+001
1.520644e+003,8.653088e+001
1.521609e+003,8.742680e+001
1.522573e+003,8.901664e+001
1.523537e+003,8.952513e+001
1.524501e+003,8.878957e+001
1.525465e+003,8.725023e+001
1.526430e+003,8.519139e+001
1.527394e+003,8.346052e+001
1.528358e+003,8.353596e+001
1.529322e+003,8.532040e+001
1.530287e+003,8.661337e+001
1.531251e+003,8.773806e+001
1.532215e+003,8.780325e+001
1.533179e+003,8.572722e+001
1.534144e+003,8.395795e+001
1.535108e+003,8.378483e+001
1.536072e+003,8.408913e+001
1.537036e+003,8.324687e+001
1.538000e+003,8.176598e+001
1.538965e+003,8.195260e+001
1.539929e+003,8.461205e+001
1.540893e+003,8.709703e+001
1.541857e+003,8.636221e+001
1.542822e+003,8.330820e+001
1.543786e+003,8.136002e+001
1.544750e+003,8.071461e+001
1.545714e+003,8.042662e+001
1.546679e+003,8.060638e+001
1.547643e+003,8.089455e+001
1.548607e+003,8.152109e+001
1.549571e+003,8.204855e+001
1.550536e+003,8.175362e+001
1.551500e+003,8.089178e+001
1.552464e+003,8.047207e+001
1.553428e+003,8.083012e+001
1.554392e+003,8.123794e+001
1.555357e+003,8.110593e+001
1.556321e+003,8.036465e+001
1.557285e+003,7.855749e+001
1.558249e+003,7.592001e+001
1.559214e+003,7.550215e+001
1.560178e+003,7.861782e+001
1.561142e+003,8.042303e+001
1.562106e+003,7.849314e+001
1.563071e+003,7.526177e+001
1.564035e+003,7.225957e+001
1.564999e+003,6.992442e+001
1.565963e+003,6.916492e+001
1.566927e+003,6.999860e+001
1.567892e+003,7.080471e+001
1.568856e+003,7.070945e+001
1.569820e+003,7.056303e+001
1.570784e+003,7.169380e+001
1.571749e+003,7.331179e+001
1.572713e+003,7.351256e+001
1.573677e+003,7.233720e+001
1.574641e+003,7.081004e+001
1.575606e+003,6.881443e+001
1.576570e+003,6.723479e+001
1.577534e+003,6.728304e+001
1.578498e+003,6.808091e+001
1.579463e+003,6.792989e+001
1.580427e+003,6.675848e+001
1.581391e+003,6.495964e+001
1.582355e+003,6.223930e+001
1.583319e+003,6.064209e+001
1.584284e+003,6.260947e+001
1.585248e+003,6.546251e+001
1.586212e+003,6.538228e+001
1.587176e+003,6.333701e+001
1.588141e+003,6.242393e+001
1.589105e+003,6.334595e+001
1.590069e+003,6.391339e+001
1.591033e+003,6.247524e+001
1.591998e+003,6.018475e+001
1.592962e+003,5.865696e+001
1.593926e+003,5.777742e+001
1.594890e+003,5.684702e+001
1.595854e+003,5.571764e+001
1.596819e+003,5.547443e+001
1.597783e+003,5.743496e+001
1.598747e+003,5.881995e+001
1.599711e+003,5.689766e+001
1.600676e+003,5.368660e+001
1.601640e+003,5.144053e+001
1.602604e+003,5.032378e+001
1.603568e+003,4.981298e+001
1.604533e+003,4.969437e+001
1.605497e+003,4.975945e+001
1.606461e+003,4.994638e+001
1.607425e+003,5.013204e+001
1.608390e+003,5.006438e+001
1.609354e+003,4.980178e+001
1.610318e+003,4.879935e+001
1.611282e+003,4.629560e+001
1.612246e+003,4.444468e+001
1.613211e+003,4.478359e+001
1.614175e+003,4.562115e+001
1.615139e+003,4.646903e+001
1.616103e+003,4.682869e+001
1.617068e+003,4.540882e+001
1.618032e+003,4.242197e+001
1.618996e+003,4.023263e+001
1.619960e+003,4.019483e+001
1.620925e+003,4.118652e+001
1.621889e+003,4.217838e+001
1.622853e+003,4.297718e+001
1.623817e+003,4.188163e+001
1.624781e+003,3.841853e+001
1.625746e+003,3.631471e+001
1.626710e+003,3.710793e+001
1.627674e+003,3.790957e+001
1.628638e+003,3.701626e+001
1.629603e+003,3.574812e+001
1.630567e+003,3.546938e+001
1.631531e+003,3.567311e+001
1.632495e+003,3.485897e+001
1.633460e+003,3.286130e+001
1.634424e+003,3.144565e+001
1.635388e+003,3.201461e+001
1.636352e+003,3.334108e+001
1.637317e+003,3.315378e+001
1.638281e+003,3.155788e+001
1.639245e+003,3.030704e+001
1.640209e+003,2.946759e+001
1.641173e+003,2.883861e+001
1.642138e+003,2.872149e+001
1.643102e+003,2.838375e+001
1.644066e+003,2.724831e+001
1.645030e+003,2.589248e+001
1.645995e+003,2.458648e+001
1.646959e+003,2.359184e+001
1.647923e+003,2.360677e+001
1.648887e+003,2.475143e+001
1.649852e+003,2.574563e+001
1.650816e+003,2.549423e+001
1.651780e+003,2.451604e+001
1.652744e+003,2.383378e+001
1.653708e+003,2.343485e+001
1.654673e+003,2.315528e+001
1.655637e+003,2.309601e+001
1.656601e+003,2.272356e+001
1.657565e+003,2.141698e+001
1.658530e+003,2.042693e+001
1.659494e+003,2.085233e+001
1.660458e+003,2.158839e+001
1.661422e+003,2.143072e+001
1.662387e+003,2.050423e+001
1.663351e+003,1.957769e+001
1.664315e+003,1.891260e+001
1.665279e+003,1.805178e+001
1.666244e+003,1.642957e+001
1.667208e+003,1.465316e+001
1.668172e+003,1.399275e+001
1.669136e+003,1.437506e+001
1.670100e+003,1.500140e+001
1.671065e+003,1.593798e+001
1.672029e+003,1.651519e+001
1.672993e+003,1.645454e+001
1.673957e+003,1.616016e+001
1.674922e+003,1.602051e+001
1.675886e+003,1.567276e+001
1.676850e+003,1.434700e+001
1.677814e+003,1.244139e+001
1.678779e+003,1.144227e+001
1.679743e+003,1.182048e+001
1.680707e+003,1.235983e+001
1.681671e+003,1.211482e+001
1.682635e+003,1.142338e+001
1.683600e+003,1.072189e+001
1.684564e+003,1.010236e+001
1.685528e+003,1.013360e+001
1.686492e+003,1.092896e+001
1.687457e+003,1.159081e+001
1.688421e+003,1.193570e+001
1.689385e+003,1.190744e+001
1.690349e+003,1.118804e+001
1.691314e+003,1.029419e+001
1.692278e+003,9.930960e+000
1.693242e+003,9.873846e+000
1.694206e+003,9.112106e+000
1.695171e+003,7.308545e+000
1.696135e+003,5.940585e+000
1.697099e+003,6.246597e+000
1.698063e+003,7.155905e+000
1.699027e+003,7.383951e+000
1.699992e+003,7.096915e+000
1.700956e+003,6.610517e+000
1.701920e+003,5.969543e+000
1.702884e+003,5.924853e+000
1.703849e+003,6.948630e+000
1.704813e+003,7.765463e+000
1.705777e+003,7.285477e+000
1.706741e+003,6.135880e+000
1.707706e+003,5.110003e+000
1.708670e+003,4.312399e+000
1.709634e+003,4.291278e+000
1.710598e+003,5.291013e+000
1.711563e+003,5.916257e+000
1.712527e+003,5.466657e+000
1.713491e+003,4.537641e+000
1.714455e+003,3.106006e+000
1.715419e+003,1.805228e+000
1.716384e+003,1.992426e+000
1.717348e+003,3.428592e+000
1.718312e+003,4.472888e+000
1.719276e+003,4.609515e+000
1.720241e+003,4.322400e+000
1.721205e+003,3.906473e+000
1.722169e+003,3.409296e+000
1.723133e+003,2.943820e+000
1.724098e+003,2.503876e+000
1.725062e+003,1.731863e+000
1.726026e+003,3.464172e-001
1.726990e+003,-3.261169e-001
1.727954e+003,3.700379e-001
1.728919e+003,1.236905e+000
1.729883e+003,1.985611e+000
1.730847e+003,2.448163e+000
1.731811e+003,2.351694e+000
1.732776e+003,1.880374e+000
1.733740e+003,1.378839e+000
1.734704e+003,9.685822e-001
1.735668e+003,7.143768e-001
1.736633e+003,6.479737e-001
1.737597e+003,6.876556e-001
1.738561e+003,7.584168e-001
1.739525e+003,8.436707e-001
1.740490e+003,7.825378e-001
1.741454e+003,5.483459e-001
1.742418e+003,1.848541e-001
1.743382e+003,-7.355560e-001
1.744346e+003,-1.146747e+000
1.745311e+003,-3.403778e-001
1.746275e+003,4.110290e-001
1.747239e+003,1.565369e-001
1.748203e+003,-4.169769e-001
1.749168e+003,-2.925964e-001
1.750132e+003,3.708862e-001
1.751096e+003,5.851166e-001
1.752060e+003,4.406433e-002
1.753025e+003,-3.497497e-001
1.753989e+003,2.781921e-001
1.754953e+003,1.326633e+000
1.755917e+003,1.380737e+000
1.756881e+003,4.212250e-001
1.757846e+003,-6.743134e-001
1.758810e+003,-2.263592e+000
1.759774e+003,-2.880161e+000
1.760738e+003,-1.561255e+000
1.761703e+003,-3.471192e-001
1.762667e+003,3.003418e-001
1.763631e+003,3.311127e-001
1.764595e+003,-6.764252e-001
1.765560e+003,-2.122077e+000
1.766524e+003,-3.054636e+000
1.767488e+003,-3.332980e+000
1.768452e+003,-3.286142e+000
1.769417e+003,-3.041156e+000
1.770381e+003,-2.759729e+000
1.771345e+003,-2.657486e+000
1.772309e+003,-2.663730e+000
1.773273e+003,-2.582425e+000
1.774238e+003,-2.436017e+000
1.775202e+003,-2.388605e+000
1.776166e+003,-2.491766e+000
1.777130e+003,-2.341174e+000
1.778095e+003,-1.655652e+000
1.779059e+003,-8.906555e-001
1.780023e+003,-2.974029e-001
1.780987e+003,1.260986e-002
1.781952e+003,-1.259888e-001
1.782916e+003,-7.174011e-001
1.783880e+003,-1.839832e+000
1.784844e+003,-3.775134e+000
1.785808e+003,-4.773122e+000
1.786773e+003,-3.229514e+000
1.787737e+003,-1.500681e+000
1.788701e+003,-1.743207e+000
1.789665e+003,-2.732819e+000
1.790630e+003,-2.481305e+000
1.791594e+003,-1.269440e+000
1.792558e+003,-5.818787e-001
1.793522e+003,-8.181000e-001
1.794487e+003,-1.554965e+000
1.795451e+003,-2.544815e+000
1.796415e+003,-3.499985e+000
1.797379e+003,-4.051051e+000
1.798344e+003,-4.287639e+000
1.799308e+003,-4.613536e+000
1.800272e+003,-5.302116e+000
1.801236e+003,-5.053360e+000
1.802201e+003,-2.549042e+000
1.803165e+003,-1.143216e+000
1.804129e+003,-2.269843e+000
1.805093e+003,-3.482867e+000
1.806057e+003,-3.525894e+000
1.807022e+003,-2.920682e+000
1.807986e+003,-2.019290e+000
1.808950e+003,-1.153995e+000
1.809914e+003,-9.492340e-001
1.810879e+003,-1.446423e+000
1.811843e+003,-1.712878e+000
1.812807e+003,-1.048056e+000
1.813771e+003,-2.675141e-001
1.814736e+003,-7.823273e-001
1.815700e+003,-2.272153e+000
1.816664e+003,-2.881387e+000
1.817628e+003,-2.506903e+000
1.818593e+003,-2.485495e+000
1.819557e+003,-3.165552e+000
1.820521e+003,-3.517496e+000
1.821485e+003,-3.006927e+000
1.822449e+003,-2.288934e+000
1.823414e+003,-1.647000e+000
1.824378e+003,-1.258466e+000
1.825342e+003,-1.358719e+000
1.826306e+003,-1.883142e+000
1.827271e+003,-2.782916e+000
1.828235e+003,-4.152133e+000
1.829199e+003,-4.778338e+000
1.830163e+003,-3.223370e+000
1.831128e+003,-1.688699e+000
1.832092e+003,-2.598416e+000
1.833056e+003,-4.403377e+000
1.834020e+003,-4.434709e+000
1.834984e+003,-3.141595e+000
1.835949e+003,-2.757410e+000
1.836913e+003,-3.622641e+000
1.837877e+003,-3.971190e+000
1.838841e+003,-2.843005e+000
1.839806e+003,-1.233942e+000
1.840770e+003,-1.398712e-001
1.841734e+003,2.817261e-001
1.842698e+003,-5.788940e-001
1.843663e+003,-2.981128e+000
1.844627e+003,-4.038426e+000
1.845591e+003,-2.463708e+000
1.846555e+003,-1.590884e+000
1.847520e+003,-2.230594e+000
1.848484e+003,-2.701648e+000
1.849448e+003,-2.118362e+000
1.850412e+003,-1.299976e+000
1.851376e+003,-7.062165e-001
1.852341e+003,-5.280487e-001
1.853305e+003,-1.332483e+000
1.854269e+003,-2.789310e+000
1.855233e+003,-3.420459e+000
1.856198e+003,-2.543097e+000
1.857162e+003,-1.010507e+000
1.858126e+003,5.849029e-001
1.859090e+003,1.826215e+000
1.860055e+003,1.671292e+000
1.861019e+003,2.875305e-001
1.861983e+003,-1.391434e+000
1.862947e+003,-3.347290e+000
1.863911e+003,-4.120511e+000
1.864876e+003,-3.212384e+000
1.865840e+003,-1.618317e+000
1.866804e+003,5.566101e-001
1.867768e+003,2.399588e+000
1.868733e+003,2.527744e+000
1.869697e+003,1.613763e+000
1.870661e+003,1.948877e+000
1.871625e+003,3.549390e+000
1.872590e+003,3.720499e+000
1.873554e+003,1.156921e+000
1.874518e+003,-7.241394e-001
1.875482e+003,-7.653748e-001
1.876447e+003,-1.055145e-001
1.877411e+003,1.212360e+000
1.878375e+003,2.370386e+000
1.879339e+003,2.131909e+000
1.880303e+003,1.083316e+000
1.881268e+003,6.598572e-001
1.882232e+003,1.103204e+000
1.883196e+003,1.708048e+000
1.884160e+003,2.070908e+000
1.885125e+003,2.131119e+000
1.886089e+003,1.756592e+000
1.887053e+003,1.175909e+000
1.888017e+003,9.824463e-001
1.888982e+003,1.181348e+000
1.889946e+003,2.350217e+000
1.890910e+003,4.996905e+000
1.891874e+003,5.906021e+000
1.892839e+003,3.525903e+000
1.893803e+003,1.551422e+000
1.894767e+003,2.232947e+000
1.895731e+003,3.371661e+000
1.896695e+003,2.503656e+000
1.897660e+003,9.661773e-001
1.898624e+003,1.471616e+000
1.899588e+003,3.716217e+000
1.900552e+003,4.277213e+000
1.901517e+003,1.923718e+000
1.902481e+003,2.372131e-002
1.903445e+003,-8.161316e-002
1.904409e+003,7.246429e-001
1.905374e+003,2.749594e+000
1.906338e+003,4.677325e+000
1.907302e+003,4.523023e+000
1.908266e+003,3.142151e+000
1.909230e+003,2.679507e+000
1.910195e+003,3.290933e+000
1.911159e+003,3.370215e+000
1.912123e+003,2.309369e+000
1.913087e+003,1.730728e+000
1.914052e+003,3.230881e+000
1.915016e+003,5.419415e+000
1.915980e+003,5.260507e+000
1.916944e+003,2.998053e+000
1.917909e+003,1.985391e+000
1.918873e+003,2.504251e+000
1.919837e+003,2.677374e+000
1.920801e+003,2.212549e+000
1.921766e+003,1.606857e+000
1.922730e+003,5.945282e-001
1.923694e+003,7.705688e-002
1.924658e+003,1.289508e+000
1.925622e+003,2.975333e+000
1.926587e+003,3.759137e+000
1.927551e+003,3.729288e+000
1.928515e+003,3.114966e+000
1.929479e+003,1.867331e+000
1.930444e+003,9.945221e-001
1.931408e+003,6.875000e-001
1.932372e+003,9.119018e-001
1.933336e+003,2.324420e+000
1.934301e+003,3.559537e+000
1.935265e+003,3.088669e+000
1.936229e+003,2.011853e+000
1.937193e+003,2.058176e+000
1.938157e+003,2.941611e+000
1.939122e+003,3.201868e+000
1.940086e+003,2.619092e+000
1.941050e+003,2.548850e+000
1.942014e+003,3.763187e+000
1.942979e+003,4.845343e+000
1.943943e+003,3.948529e+000
1.944907e+003,1.963187e+000
1.945871e+003,1.356802e+000
1.946836e+003,2.094369e+000
1.947800e+003,3.203757e+000
1.948764e+003,4.730859e+000
1.949728e+003,5.617105e+000
1.950693e+003,5.588318e+000
1.951657e+003,5.044263e+000
1.952621e+003,3.985632e+000
1.953585e+003,2.943515e+000
1.954549e+003,2.358807e+000
1.955514e+003,2.152692e+000
1.956478e+003,2.204355e+000
1.957442e+003,2.504715e+000
1.958406e+003,2.965372e+000
1.959371e+003,3.768320e+000
1.960335e+003,4.183218e+000
1.961299e+003,3.617538e+000
1.962263e+003,3.375201e+000
1.963228e+003,4.373309e+000
1.964192e+003,5.309552e+000
1.965156e+003,5.065686e+000
1.966120e+003,4.363538e+000
1.967084e+003,4.157239e+000
1.968049e+003,4.409570e+000
1.969013e+003,4.569910e+000
1.969977e+003,4.536654e+000
1.970941e+003,4.867846e+000
1.971906e+003,5.941546e+000
1.972870e+003,6.842944e+000
1.973834e+003,6.555341e+000
1.974798e+003,5.540301e+000
1.975763e+003,4.306979e+000
1.976727e+003,3.032373e+000
1.977691e+003,2.147742e+000
1.978655e+003,1.768454e+000
1.979620e+003,2.724979e+000
1.980584e+003,5.122742e+000
1.981548e+003,6.461197e+000
1.982512e+003,5.332141e+000
1.983476e+003,3.726437e+000
1.984441e+003,3.725195e+000
1.985405e+003,4.693835e+000
1.986369e+003,5.154477e+000
1.987333e+003,5.134949e+000
1.988298e+003,4.961600e+000
1.989262e+003,4.408404e+000
1.990226e+003,4.256690e+000
1.991190e+003,4.833493e+000
1.992155e+003,5.291327e+000
1.993119e+003,5.493338e+000
1.994083e+003,5.466025e+000
1.995047e+003,5.224627e+000
1.996011e+003,4.722583e+000
1.996976e+003,3.367557e+000
1.997940e+003,1.907190e+000
1.998904e+003,2.398285e+000
1.999868e+003,4.910651e+000
2.000833e+003,6.579333e+000
2.001797e+003,6.382010e+000
2.002761e+003,6.002799e+000
2.003725e+003,5.950324e+000
2.004690e+003,6.141043e+000
2.005654e+003,6.562384e+000
2.006618e+003,7.161362e+000
2.007582e+003,8.207135e+000
2.008547e+003,9.228073e+000
2.009511e+003,9.345965e+000
2.010475e+003,8.677988e+000
2.011439e+003,8.089340e+000
2.012403e+003,7.850592e+000
2.013368e+003,7.399750e+000
2.014332e+003,6.307474e+000
2.015296e+003,5.149390e+000
2.016260e+003,4.610519e+000
2.017225e+003,4.631030e+000
2.018189e+003,5.229147e+000
2.019153e+003,6.233066e+000
2.020117e+003,7.102939e+000
2.021082e+003,7.735834e+000
2.022046e+003,7.690964e+000
2.023010e+003,6.895978e+000
2.023974e+003,6.347162e+000
2.024938e+003,6.607193e+000
2.025903e+003,6.780234e+000
2.026867e+003,5.882074e+000
2.027831e+003,4.430041e+000
2.028795e+003,3.598041e+000
2.029760e+003,3.418054e+000
2.030724e+003,4.311838e+000
2.031688e+003,7.079041e+000
2.032652e+003,7.693701e+000
2.033617e+003,4.791797e+000
2.034581e+003,2.564075e+000
2.035545e+003,1.962341e+000
2.036509e+003,2.414331e+000
2.037474e+003,4.364835e+000
2.038438e+003,6.430255e+000
2.039402e+003,7.244306e+000
2.040366e+003,7.109625e+000
2.041330e+003,6.481326e+000
2.042295e+003,5.423193e+000
2.043259e+003,4.742224e+000
2.044223e+003,4.547339e+000
2.045187e+003,4.664026e+000
2.046152e+003,4.961713e+000
2.047116e+003,5.679080e+000
2.048080e+003,7.799167e+000
2.049044e+003,9.350061e+000
2.050009e+003,8.791730e+000
2.050973e+003,7.062304e+000
2.051937e+003,4.367685e+000
2.052901e+003,1.879779e+000
2.053865e+003,2.260593e+000
2.054830e+003,5.378958e+000
2.055794e+003,7.435742e+000
2.056758e+003,6.715253e+000
2.057722e+003,5.387891e+000
2.058687e+003,4.822452e+000
2.059651e+003,4.648248e+000
2.060615e+003,4.636905e+000
2.061579e+003,4.646042e+000
2.062544e+003,4.548370e+000
2.063508e+003,4.356952e+000
2.064472e+003,3.829163e+000
2.065436e+003,3.210351e+000
2.066401e+003,3.681070e+000
2.067365e+003,5.305804e+000
2.068329e+003,6.107776e+000
2.069293e+003,4.860376e+000
2.070258e+003,3.025751e+000
2.071222e+003,2.154926e+000
2.072186e+003,2.312140e+000
2.073150e+003,4.216147e+000
2.074115e+003,7.243484e+000
2.075079e+003,8.516729e+000
2.076043e+003,8.128970e+000
2.077007e+003,7.752719e+000
2.077971e+003,7.671762e+000
2.078936e+003,7.366956e+000
2.079900e+003,6.630456e+000
2.080864e+003,5.712979e+000
2.081828e+003,4.752090e+000
2.082792e+003,4.127313e+000
2.083757e+003,4.417010e+000
2.084721e+003,5.362497e+000
2.085685e+003,6.121121e+000
2.086649e+003,6.713330e+000
2.087614e+003,6.885669e+000
2.088578e+003,6.544412e+000
2.089542e+003,6.237100e+000
2.090506e+003,5.977432e+000
2.091471e+003,5.786878e+000
2.092435e+003,5.732846e+000
2.093399e+003,5.685529e+000
2.094363e+003,5.535211e+000
2.095328e+003,5.388202e+000
2.096292e+003,5.436813e+000
2.097256e+003,5.528272e+000
2.098220e+003,5.126700e+000
2.099185e+003,4.168228e+000
2.100149e+003,3.793027e+000
2.101113e+003,4.266595e+000
2.102077e+003,4.767410e+000
2.103042e+003,5.507926e+000
2.104006e+003,5.936133e+000
2.104970e+003,5.545774e+000
2.105934e+003,5.291718e+000
2.106898e+003,5.946988e+000
2.107863e+003,6.738345e+000
2.108827e+003,6.697192e+000
2.109791e+003,6.267654e+000
2.110755e+003,6.667605e+000
2.111719e+003,7.853082e+000
2.112684e+003,8.050250e+000
2.113648e+003,6.519275e+000
2.114612e+003,5.496594e+000
2.115576e+003,5.654630e+000
2.116541e+003,6.049451e+000
2.117505e+003,6.600543e+000
2.118469e+003,7.020831e+000
2.119433e+003,6.889526e+000
2.120398e+003,6.768088e+000
2.121362e+003,7.578122e+000
2.122326e+003,8.630686e+000
2.123290e+003,8.478787e+000
2.124255e+003,7.218869e+000
2.125219e+003,6.140509e+000
2.126183e+003,5.579980e+000
2.127147e+003,5.481452e+000
2.128112e+003,6.224994e+000
2.129076e+003,6.841525e+000
2.130040e+003,6.627380e+000
2.131004e+003,6.245743e+000
2.131969e+003,6.000531e+000
2.132933e+003,6.040219e+000
2.133897e+003,6.799710e+000
2.134861e+003,7.853681e+000
2.135825e+003,8.537946e+000
2.136790e+003,8.666806e+000
2.137754e+003,7.944556e+000
2.138718e+003,6.455976e+000
2.139682e+003,5.830478e+000
2.140646e+003,7.262073e+000
2.141611e+003,8.857638e+000
2.142575e+003,9.081525e+000
2.143539e+003,8.637179e+000
2.144503e+003,7.991898e+000
2.145468e+003,7.381360e+000
2.146432e+003,6.974417e+000
2.147396e+003,6.849231e+000
2.148360e+003,7.311221e+000
2.149325e+003,8.129267e+000
2.150289e+003,8.502615e+000
2.151253e+003,8.274472e+000
2.152217e+003,8.246363e+000
2.153182e+003,8.906125e+000
2.154146e+003,9.311017e+000
2.155110e+003,8.258746e+000
2.156074e+003,6.955972e+000
2.157039e+003,7.107681e+000
2.158003e+003,7.857416e+000
2.158967e+003,7.702643e+000
2.159931e+003,7.141617e+000
2.160896e+003,7.541910e+000
2.161860e+003,8.715390e+000
2.162824e+003,9.529819e+000
2.163788e+003,9.712698e+000
2.164752e+003,9.725607e+000
2.165717e+003,9.785937e+000
2.166681e+003,9.485367e+000
2.167645e+003,8.358480e+000
2.168609e+003,7.186032e+000
2.169573e+003,7.225202e+000
2.170538e+003,7.897733e+000
2.171502e+003,8.136477e+000
2.172466e+003,8.022360e+000
2.173430e+003,7.654620e+000
2.174395e+003,7.235938e+000
2.175359e+003,7.508734e+000
2.176323e+003,8.353406e+000
2.177287e+003,8.448977e+000
2.178252e+003,7.368039e+000
2.179216e+003,6.181756e+000
2.180180e+003,5.670651e+000
2.181144e+003,5.745017e+000
2.182109e+003,6.368036e+000
2.183073e+003,7.309534e+000
2.184037e+003,8.427444e+000
2.185001e+003,9.399500e+000
2.185966e+003,9.258548e+000
2.186930e+003,8.308423e+000
2.187894e+003,7.240854e+000
2.188858e+003,6.390939e+000
2.189823e+003,6.901389e+000
2.190787e+003,8.741712e+000
2.191751e+003,9.691919e+000
2.192715e+003,8.632578e+000
2.193679e+003,7.023508e+000
2.194644e+003,6.114862e+000
2.195608e+003,6.056601e+000
2.196572e+003,7.725064e+000
2.197536e+003,1.010098e+001
2.198500e+003,1.064543e+001
2.199465e+003,9.813275e+000
2.200429e+003,8.614957e+000
2.201393e+003,7.347864e+000
2.202357e+003,6.654425e+000
2.203322e+003,6.607312e+000
2.204286e+003,7.017432e+000
2.205250e+003,7.693823e+000
2.206214e+003,7.823575e+000
2.207179e+003,6.850360e+000
2.208143e+003,5.729623e+000
2.209107e+003,5.517267e+000
2.210071e+003,6.024231e+000
2.211036e+003,7.280276e+000
2.212000e+003,8.800824e+000
2.212964e+003,9.196164e+000
2.213928e+003,8.844193e+000
2.214893e+003,9.133722e+000
2.215857e+003,1.001441e+001
2.216821e+003,1.032311e+001
2.217785e+003,9.952512e+000
2.218750e+003,1.029867e+001
2.219714e+003,1.190651e+001
2.220678e+003,1.321787e+001
2.221642e+003,1.293029e+001
2.222606e+003,1.240063e+001
2.223571e+003,1.355866e+001
2.224535e+003,1.546602e+001
2.225499e+003,1.684394e+001
2.226463e+003,1.749954e+001
2.227427e+003,1.630521e+001
2.228392e+003,1.427032e+001
2.229356e+003,1.409048e+001
2.230320e+003,1.578531e+001
2.231284e+003,1.792560e+001
2.232249e+003,1.993255e+001
2.233213e+003,2.172537e+001
2.234177e+003,2.326055e+001
2.235141e+003,2.445916e+001
2.236106e+003,2.516933e+001
2.237070e+003,2.573604e+001
2.238034e+003,2.612166e+001
2.238998e+003,2.695372e+001
2.239963e+003,3.000959e+001
2.240927e+003,3.361711e+001
2.241891e+003,3.434309e+001
2.242855e+003,3.346734e+001
2.243820e+003,3.438569e+001
2.244784e+003,3.711037e+001
2.245748e+003,3.930458e+001
2.246712e+003,4.047076e+001
2.247677e+003,4.271859e+001
2.248641e+003,4.726288e+001
2.249605e+003,5.116244e+001
2.250569e+003,5.149973e+001
2.251533e+003,5.107353e+001
2.252498e+003,5.309454e+001
2.253462e+003,5.498339e+001
2.254426e+003,5.361291e+001
2.255390e+003,5.073098e+001
2.256354e+003,4.842457e+001
2.257319e+003,4.679408e+001
2.258283e+003,4.576189e+001
2.259247e+003,4.495583e+001
2.260211e+003,4.333022e+001
2.261176e+003,4.071590e+001
2.262140e+003,3.846772e+001
2.263104e+003,3.740690e+001
2.264068e+003,3.568894e+001
2.265033e+003,3.147738e+001
2.265997e+003,2.738908e+001
2.266961e+003,2.442971e+001
2.267925e+003,2.281181e+001
2.268890e+003,2.402696e+001
2.269854e+003,2.546279e+001
2.270818e+003,2.407626e+001
2.271782e+003,2.102946e+001
2.272747e+003,1.821920e+001
2.273711e+003,1.608996e+001
2.274675e+003,1.514402e+001
2.275639e+003,1.548896e+001
2.276604e+003,1.551113e+001
2.277568e+003,1.459214e+001
2.278532e+003,1.377671e+001
2.279496e+003,1.349139e+001
2.280460e+003,1.303193e+001
2.281425e+003,1.214564e+001
2.282389e+003,1.102447e+001
2.283353e+003,9.218097e+000
2.284317e+003,7.837692e+000
2.285281e+003,8.384891e+000
2.286246e+003,9.784787e+000
2.287210e+003,1.026660e+001
2.288174e+003,9.848480e+000
2.289138e+003,8.995270e+000
2.290103e+003,7.603971e+000
2.291067e+003,6.405927e+000
2.292031e+003,5.404279e+000
2.292995e+003,4.579636e+000
2.293960e+003,3.546085e+000
2.294924e+003,3.421780e+000
2.295888e+003,5.209689e+000
2.296852e+003,6.558816e+000
2.297817e+003,6.049780e+000
2.298781e+003,5.195471e+000
2.299745e+003,5.515189e+000
2.300709e+003,6.115286e+000
2.301674e+003,5.359268e+000
2.302638e+003,3.510559e+000
2.303602e+003,1.853525e+000
2.304566e+003,2.948608e-001
2.305531e+003,4.138916e-001
2.306495e+003,2.610938e+000
2.307459e+003,3.381509e+000
2.308423e+003,2.152286e+000
2.309387e+003,1.921780e+000
2.310352e+003,3.558347e+000
2.311316e+003,4.853915e+000
2.312280e+003,4.742358e+000
2.313244e+003,4.232330e+000
2.314208e+003,4.152960e+000
2.315173e+003,4.012521e+000
2.316137e+003,3.065512e+000
2.317101e+003,1.652402e+000
2.318065e+003,3.960541e-001
2.319030e+003,-4.869965e-001
2.319994e+003,3.323852e-001
2.320958e+003,2.259024e+000
2.321922e+003,2.534143e+000
2.322887e+003,1.430530e+000
2.323851e+003,1.681586e+000
2.324815e+003,3.448056e+000
2.325779e+003,4.283655e+000
2.326744e+003,3.356452e+000
2.327708e+003,2.266129e+000
2.328672e+003,2.021069e+000
2.329636e+003,1.919000e+000
2.330601e+003,1.321405e+000
2.331565e+003,5.189056e-001
2.332529e+003,-3.177765e-001
2.333493e+003,-1.027536e+000
2.334458e+003,-1.180261e+000
2.335422e+003,-1.280234e+000
2.336386e+003,-2.629755e+000
2.337350e+003,-4.067456e+000
2.338314e+003,-2.851999e+000
2.339279e+003,9.520264e-002
2.340243e+003,1.180655e+000
2.341207e+003,-1.608154e-001
2.342171e+003,-1.495203e+000
2.343135e+003,-2.071106e+000
2.344100e+003,-2.455557e+000
2.345064e+003,-3.129700e+000
2.346028e+003,-3.247958e+000
2.346992e+003,-1.775201e+000
2.347957e+003,-6.340424e-001
2.348921e+003,-1.376590e+000
2.349885e+003,-2.131711e+000
2.350849e+003,-8.292359e-001
2.351814e+003,6.600097e-001
2.352778e+003,-4.870697e-001
2.353742e+003,-3.045581e+000
2.354706e+003,-3.885967e+000
2.355671e+003,-3.131723e+000
2.356635e+003,-2.734384e+000
2.357599e+003,-2.952463e+000
2.358563e+003,-2.320938e+000
2.359528e+003,-1.232758e-001
2.360492e+003,3.313355e-001
2.361456e+003,-1.880182e+000
2.362420e+003,-3.478570e+000
2.363385e+003,-3.436499e+000
2.364349e+003,-2.993213e+000
2.365313e+003,-2.735294e+000
2.366277e+003,-2.807925e+000
2.367241e+003,-3.384167e+000
2.368206e+003,-4.144980e+000
2.369170e+003,-4.586257e+000
2.370134e+003,-4.760591e+000
2.371098e+003,-4.785942e+000
2.372063e+003,-4.676390e+000
2.373027e+003,-4.491774e+000
2.373991e+003,-4.188115e+000
2.374955e+003,-3.531021e+000
2.375919e+003,-2.679749e+000
2.376884e+003,-2.270837e+000
2.377848e+003,-2.336304e+000
2.378812e+003,-2.329742e+000
2.379776e+003,-2.084546e+000
2.380741e+003,-2.003967e+000
2.381705e+003,-2.317041e+000
2.382669e+003,-2.522891e+000
2.383633e+003,-2.194000e+000
2.384598e+003,-1.712384e+000
2.385562e+003,-8.618011e-001
2.386526e+003,-6.506042e-001
2.387490e+003,-2.778177e+000
2.388455e+003,-4.992857e+000
2.389419e+003,-4.760260e+000
2.390383e+003,-3.536994e+000
2.391347e+003,-3.405423e+000
2.392312e+003,-4.050758e+000
2.393276e+003,-4.211947e+000
2.394240e+003,-3.883743e+000
2.395204e+003,-4.160912e+000
2.396168e+003,-5.479239e+000
2.397133e+003,-5.815900e+000
2.398097e+003,-4.360275e+000
2.399061e+003,-3.320776e+000
2.400025e+003,-2.943753e+000
2.400990e+003,-2.696649e+000
2.401954e+003,-2.541009e+000
2.402918e+003,-2.283273e+000
2.403882e+003,-1.835187e+000
2.404846e+003,-1.227878e+000
2.405811e+003,-4.200562e-001
2.406775e+003,3.153168e-001
2.407739e+003,5.737000e-001
2.408703e+003,4.022247e-001
2.409668e+003,-1.814941e-001
2.410632e+003,-1.001163e+000
2.411596e+003,-1.075903e+000
2.412560e+003,-6.063598e-001
2.413525e+003,-2.967743e-001
2.414489e+003,-2.492371e-001
2.415453e+003,-8.438690e-001
2.416417e+003,-1.834134e+000
2.417382e+003,-2.089752e+000
2.418346e+003,-1.471423e+000
2.419310e+003,-9.938080e-001
2.420274e+003,-1.105273e+000
2.421239e+003,-1.398099e+000
2.422203e+003,-1.757489e+000
2.423167e+003,-1.711130e+000
2.424131e+003,-4.462128e-001
2.425095e+003,7.045318e-001
2.426060e+003,8.807983e-001
2.427024e+003,5.981781e-001
2.427988e+003,-2.854706e-001
2.428952e+003,-9.133026e-001
2.429917e+003,1.352142e-001
2.430881e+003,1.584598e+000
2.431845e+003,9.435394e-001
2.432809e+003,-1.011380e+000
2.433773e+003,-7.939209e-001
2.434738e+003,1.605682e+000
2.435702e+003,1.972220e+000
2.436666e+003,-6.513245e-001
2.437630e+003,-1.755588e+000
2.438595e+003,-9.921173e-001
2.439559e+003,-3.230530e-001
2.440523e+003,-2.926025e-002
2.441487e+003,7.360229e-001
2.442452e+003,2.258859e+000
2.443416e+003,3.081293e+000
2.444380e+003,2.462604e+000
2.445344e+003,1.689066e+000
2.446309e+003,1.824655e+000
2.447273e+003,2.417862e+000
2.448237e+003,2.894266e+000
2.449201e+003,3.378003e+000
2.450166e+003,4.451163e+000
2.451130e+003,5.406906e+000
2.452094e+003,4.709582e+000
2.453058e+003,3.351965e+000
2.454022e+003,2.969220e+000
2.454987e+003,3.121768e+000
2.455951e+003,2.673840e+000
2.456915e+003,1.847827e+000
2.457879e+003,1.614014e+000
2.458844e+003,2.046326e+000
2.459808e+003,2.435410e+000
2.460772e+003,2.600159e+000
2.461736e+003,2.778039e+000
2.462700e+003,2.683670e+000
2.463665e+003,3.127820e+000
2.464629e+003,5.132281e+000
2.465593e+003,6.173087e+000
2.466557e+003,5.282224e+000
2.467522e+003,4.284659e+000
2.468486e+003,3.754623e+000
2.469450e+003,3.886633e+000
2.470414e+003,4.998212e+000
2.471379e+003,6.139551e+000
2.472343e+003,6.121008e+000
2.473307e+003,5.513040e+000
2.474271e+003,5.503690e+000
2.475236e+003,5.910123e+000
2.476200e+003,6.318198e+000
2.477164e+003,6.569336e+000
2.478128e+003,5.950793e+000
2.479093e+003,4.871939e+000
2.480057e+003,4.231885e+000
2.481021e+003,4.204202e+000
2.481985e+003,5.219220e+000
2.482949e+003,6.874423e+000
2.483914e+003,7.680005e+000
2.484878e+003,7.328238e+000
2.485842e+003,6.978561e+000
2.486806e+003,7.011282e+000
2.487771e+003,7.330206e+000
2.488735e+003,8.390539e+000
2.489699e+003,8.950638e+000
2.490663e+003,8.291995e+000
2.491627e+003,7.593262e+000
2.492592e+003,7.193015e+000
2.493556e+003,6.997208e+000
2.494520e+003,6.981360e+000
2.495484e+003,7.126688e+000
2.496449e+003,7.400238e+000
2.497413e+003,7.793277e+000
2.498377e+003,8.303003e+000
2.499341e+003,8.991556e+000
2.500306e+003,1.028341e+001
2.501270e+003,1.177335e+001
2.502234e+003,1.102264e+001
2.503198e+003,8.877478e+000
2.504163e+003,8.561609e+000
2.505127e+003,9.516602e+000
2.506091e+003,9.364423e+000
2.507055e+003,8.436206e+000
2.508020e+003,8.821734e+000
2.508984e+003,1.057169e+001
2.509948e+003,1.205675e+001
2.510912e+003,1.275540e+001
2.511876e+003,1.307830e+001
2.512841e+003,1.292313e+001
2.513805e+003,1.349333e+001
2.514769e+003,1.648351e+001
2.515733e+003,1.816027e+001
2.516698e+003,1.629038e+001
2.517662e+003,1.482075e+001
2.518626e+003,1.490373e+001
2.519590e+003,1.596101e+001
2.520554e+003,1.810308e+001
2.521519e+003,2.004194e+001
2.522483e+003,2.065913e+001
2.523447e+003,2.040162e+001
2.524411e+003,1.980991e+001
2.525376e+003,1.936867e+001
2.526340e+003,2.048864e+001
2.527304e+003,2.252868e+001
2.528268e+003,2.330502e+001
2.529233e+003,2.350501e+001
2.530197e+003,2.497084e+001
2.531161e+003,2.712334e+001
2.532125e+003,2.838918e+001
2.533090e+003,2.894236e+001
2.534054e+003,2.981533e+001
2.535018e+003,3.105223e+001
2.535982e+003,3.184533e+001
2.536947e+003,3.204611e+001
2.537911e+003,3.262268e+001
2.538875e+003,3.392736e+001
2.539839e+003,3.521627e+001
2.540803e+003,3.657945e+001
2.541768e+003,3.753339e+001
2.542732e+003,3.784977e+001
2.543696e+003,3.803299e+001
2.544660e+003,3.801366e+001
2.545625e+003,3.933368e+001
2.546589e+003,4.296996e+001
2.547553e+003,4.533879e+001
2.548517e+003,4.357203e+001
2.549482e+003,4.074813e+001
2.550446e+003,4.046066e+001
2.551410e+003,4.137957e+001
2.552374e+003,4.164591e+001
2.553339e+003,4.152833e+001
2.554303e+003,4.163036e+001
2.555267e+003,4.146299e+001
2.556231e+003,3.992128e+001
2.557196e+003,3.806934e+001
2.558160e+003,3.789397e+001
2.559124e+003,3.813156e+001
2.560088e+003,3.585042e+001
2.561052e+003,3.200761e+001
2.562017e+003,3.058225e+001
2.562981e+003,3.163766e+001
2.563945e+003,3.167751e+001
2.564909e+003,3.038434e+001
2.565874e+003,2.986197e+001
2.566838e+003,3.028728e+001
2.567802e+003,3.030450e+001
2.568766e+003,2.980860e+001
2.569730e+003,2.887890e+001
2.570695e+003,2.756741e+001
2.571659e+003,2.621053e+001
2.572623e+003,2.494939e+001
2.573587e+003,2.402194e+001
2.574552e+003,2.355015e+001
2.575516e+003,2.270140e+001
2.576480e+003,2.077942e+001
2.577444e+003,1.879023e+001
2.578409e+003,1.682375e+001
2.579373e+003,1.565086e+001
2.580337e+003,1.652727e+001
2.581301e+003,1.735359e+001
2.582266e+003,1.685955e+001
2.583230e+003,1.601770e+001
2.584194e+003,1.536070e+001
2.585158e+003,1.484727e+001
2.586123e+003,1.458213e+001
2.587087e+003,1.418336e+001
2.588051e+003,1.287554e+001
2.589015e+003,1.114070e+001
2.589979e+003,1.051754e+001
2.590944e+003,1.072375e+001
2.591908e+003,1.079258e+001
2.592872e+003,1.070142e+001
2.593836e+003,1.031281e+001
2.594801e+003,9.793912e+000
2.595765e+003,9.570044e+000
2.596729e+003,9.478607e+000
2.597693e+003,9.060742e+000
2.598657e+003,8.279986e+000
2.599622e+003,7.192993e+000
2.600586e+003,5.842380e+000
2.601550e+003,5.062655e+000
2.602514e+003,5.051267e+000
2.603479e+003,5.517362e+000
2.604443e+003,6.955792e+000
2.605407e+003,7.213495e+000
2.606371e+003,5.939148e+000
2.607336e+003,4.704413e+000
2.608300e+003,3.850717e+000
2.609264e+003,3.192343e+000
2.610228e+003,2.641061e+000
2.611193e+003,2.172693e+000
2.612157e+003,1.789050e+000
2.613121e+003,1.635541e+000
2.614085e+003,1.872253e+000
2.615050e+003,2.135037e+000
2.616014e+003,2.031500e+000
2.616978e+003,1.946835e+000
2.617942e+003,2.244424e+000
2.618906e+003,2.542563e+000
2.619871e+003,3.039413e+000
2.620835e+003,2.882346e+000
2.621799e+003,6.270569e-001
2.622763e+003,-1.340042e+000
2.623728e+003,-5.617462e-001
2.624692e+003,1.298749e+000
2.625656e+003,1.590262e+000
2.626620e+003,9.580871e-001
2.627584e+003,1.145538e+000
2.628549e+003,1.864453e+000
2.629513e+003,2.317252e+000
2.630477e+003,2.449637e+000
2.631441e+003,1.819391e+000
2.632406e+003,9.679901e-001
2.633370e+003,1.039160e+000
2.634334e+003,1.677734e+000
2.635298e+003,1.862711e+000
2.636263e+003,1.685825e+000
2.637227e+003,2.090225e+000
2.638191e+003,3.120801e+000
2.639155e+003,3.260864e+000
2.640120e+003,2.284909e+000
2.641084e+003,1.596759e+000
2.642048e+003,1.083905e+000
2.643012e+003,1.695227e+000
2.643977e+003,3.506796e+000
2.644941e+003,3.574628e+000
2.645905e+003,1.673816e+000
2.646869e+003,1.032043e-001
2.647833e+003,-4.521515e-001
2.648798e+003,-3.350128e-001
2.649762e+003,2.411285e-001
2.650726e+003,8.202637e-001
2.651690e+003,1.278976e+000
2.652655e+003,1.052084e+000
2.653619e+003,-1.122412e+000
2.654583e+003,-2.361079e+000
2.655547e+003,-1.253902e+000
2.656511e+003,3.476562e-002
2.657476e+003,1.252679e+000
2.658440e+003,1.676379e+000
2.659404e+003,8.567047e-001
2.660368e+003,-7.777710e-002
2.661333e+003,-3.918732e-001
2.662297e+003,-1.105469e-001
2.663261e+003,8.170837e-001
2.664225e+003,1.549249e+000
2.665190e+003,7.753784e-001
2.666154e+003,-4.238098e-001
2.667118e+003,-1.165135e+000
2.668082e+003,-1.263844e+000
2.669047e+003,8.175354e-002
2.670011e+003,1.417007e+000
2.670975e+003,1.614346e+000
2.671939e+003,8.765717e-001
2.672904e+003,-1.152416e+000
2.673868e+003,-3.005144e+000
2.674832e+003,-2.408534e+000
2.675796e+003,-5.946503e-001
2.676760e+003,-9.006683e-001
2.677725e+003,-2.550027e+000
2.678689e+003,-2.032828e+000
2.679653e+003,-3.156098e-001
2.680617e+003,-4.223114e-001
2.681582e+003,-1.529440e+000
2.682546e+003,-1.809241e+000
2.683510e+003,-1.468051e+000
2.684474e+003,-1.198912e+000
2.685438e+003,-1.124107e+000
2.686403e+003,-1.367961e+000
2.687367e+003,-1.782282e+000
2.688331e+003,-1.431346e+000
2.689295e+003,-2.628998e-001
2.690260e+003,9.398499e-001
2.691224e+003,2.260291e+000
2.692188e+003,2.653507e+000
2.693152e+003,2.147198e+000
2.694117e+003,2.255456e+000
2.695081e+003,2.881897e+000
2.696045e+003,2.375205e+000
2.697009e+003,8.169159e-001
2.697974e+003,-1.990570e-001
2.698938e+003,-2.731811e-001
2.699902e+003,2.869263e-002
2.700866e+003,5.546051e-001
2.701831e+003,7.986664e-001
2.702795e+003,3.973419e-001
2.703759e+003,1.405273e-001
2.704723e+003,-8.192444e-002
2.705688e+003,4.267517e-001
2.706652e+003,1.903152e+000
2.707616e+003,2.955774e+000
2.708580e+003,3.236838e+000
2.709544e+003,2.841110e+000
2.710509e+003,1.870654e+000
2.711473e+003,7.634094e-001
2.712437e+003,-2.390045e-001
2.713401e+003,-7.642319e-001
2.714365e+003,-4.407684e-001
2.715330e+003,1.308960e-001
2.716294e+003,9.430786e-001
2.717258e+003,1.468182e+000
2.718222e+003,1.537799e+000
2.719187e+003,1.198148e+000
2.720151e+003,2.996857e-001
2.721115e+003,-5.723953e-001
2.722079e+003,-1.150391e+000
2.723044e+003,-1.499135e+000
2.724008e+003,-1.664059e+000
2.724972e+003,-1.457329e+000
2.725936e+003,-5.529205e-001
2.726901e+003,2.591095e-001
2.727865e+003,-1.307770e-001
2.728829e+003,-6.782638e-001
2.729793e+003,-3.597397e-001
2.730758e+003,-1.158005e-001
2.731722e+003,-8.446442e-001
2.732686e+003,-1.638902e+000
2.733650e+003,-1.991875e+000
2.734615e+003,-1.776817e+000
2.735579e+003,-6.601852e-001
2.736543e+003,1.952789e-001
2.737507e+003,-8.814102e-001
2.738471e+003,-2.729631e+000
2.739436e+003,-3.330249e+000
2.740400e+003,-3.075012e+000
2.741364e+003,-2.263086e+000
2.742328e+003,-1.341215e+000
2.743292e+003,-6.775513e-001
2.744257e+003,-3.491226e-001
2.745221e+003,-5.017959e-001
2.746185e+003,-9.372391e-001
2.747149e+003,-1.698117e+000
2.748114e+003,-2.250720e+000
2.749078e+003,-1.707283e+000
2.750042e+003,-5.480682e-001
2.751006e+003,-1.083450e-001
2.751971e+003,-1.037140e-001
2.752935e+003,7.346008e-001
2.753899e+003,1.711902e+000
2.754863e+003,9.626251e-001
2.755828e+003,-4.558807e-001
2.756792e+003,-7.194718e-001
2.757756e+003,-4.390274e-001
2.758720e+003,-9.675629e-001
2.759685e+003,-1.845749e+000
2.760649e+003,-1.543196e+000
2.761613e+003,-6.221039e-001
2.762577e+003,-1.056068e+000
2.763542e+003,-2.534381e+000
2.764506e+003,-2.431014e+000
2.765470e+003,-1.115913e+000
2.766434e+003,-5.224655e-001
2.767398e+003,-4.382492e-001
2.768363e+003,-2.363815e-001
2.769327e+003,1.852112e-002
2.770291e+003,1.104202e-001
2.771255e+003,5.462799e-002
2.772219e+003,-9.957580e-002
2.773184e+003,-3.388809e-001
2.774148e+003,-6.918457e-001
2.775112e+003,-1.113930e+000
2.776076e+003,-5.963196e-001
2.777041e+003,8.992218e-001
2.778005e+003,-1.278275e-001
2.778969e+003,-2.902937e+000
2.779933e+003,-2.782027e+000
2.780898e+003,-6.687714e-001
2.781862e+003,-3.968201e-001
2.782826e+003,-1.579242e+000
2.783790e+003,-1.426964e+000
2.784755e+003,3.656006e-003
2.785719e+003,3.384384e-001
2.786683e+003,-7.399262e-001
2.787647e+003,-1.207501e+000
2.788612e+003,-9.580658e-001
2.789576e+003,-1.166765e+000
2.790540e+003,-1.794550e+000
2.791504e+003,-1.648109e+000
2.792469e+003,-1.002464e+000
2.793433e+003,-1.836084e+000
2.794397e+003,-3.712051e+000
2.795361e+003,-4.461411e+000
2.796325e+003,-3.880823e+000
2.797290e+003,-2.889525e+000
2.798254e+003,-1.731876e+000
2.799218e+003,-1.102481e+000
2.800182e+003,-1.218121e+000
2.801146e+003,-6.650696e-001
2.802111e+003,6.740631e-001
2.803075e+003,1.754755e+000
2.804039e+003,2.464813e+000
2.805003e+003,2.519821e+000
2.805968e+003,1.984946e+000
2.806932e+003,1.274744e+000
2.807896e+003,5.763199e-001
2.808860e+003,-2.148117e-001
2.809825e+003,-1.006366e+000
2.810789e+003,-7.593597e-001
2.811753e+003,1.078470e+000
2.812717e+003,1.126210e+000
2.813682e+003,-1.277957e+000
2.814646e+003,-1.937952e+000
2.815610e+003,-8.213943e-001
2.816574e+003,-3.426254e-001
2.817539e+003,-6.020218e-001
2.818503e+003,-3.570450e-001
2.819467e+003,2.435394e-001
2.820431e+003,-3.842819e-001
2.821396e+003,-2.238028e+000
2.822360e+003,-3.479555e+000
2.823324e+003,-3.737747e+000
2.824288e+003,-2.287175e+000
2.825252e+003,2.018982e+000
2.826217e+003,2.744006e+000
2.827181e+003,-2.421143e-001
2.828145e+003,-6.317002e-001
2.829109e+003,1.451326e+000
2.830073e+003,1.666835e+000
2.831038e+003,-1.274323e-001
2.832002e+003,-1.793019e+000
2.832966e+003,-2.557538e+000
2.833930e+003,-1.583850e+000
2.834895e+003,1.288025e+000
2.835859e+003,2.849326e+000
2.836823e+003,2.690472e+000
2.837787e+003,2.090662e+000
2.838752e+003,1.013048e+000
2.839716e+003,1.981384e-001
2.840680e+003,-2.559631e-001
2.841644e+003,1.421417e-001
2.842609e+003,1.066447e+000
2.843573e+003,1.332324e+000
2.844537e+003,8.415481e-001
2.845501e+003,-6.652832e-004
2.846466e+003,-1.019070e+000
2.847430e+003,-1.034225e+000
2.848394e+003,2.599701e-001
2.849358e+003,2.562958e-001
2.850323e+003,-1.176485e+000
2.851287e+003,-6.964234e-001
2.852251e+003,1.305116e+000
2.853215e+003,1.406023e+000
2.854179e+003,-2.768860e-002
2.855144e+003,-5.133942e-001
2.856108e+003,-2.502594e-002
2.857072e+003,-1.127625e-002
2.858036e+003,-6.266419e-001
2.859000e+003,-9.871445e-001
2.859965e+003,-1.032146e+000
2.860929e+003,-1.086467e+000
2.861893e+003,-1.181818e+000
2.862857e+003,-3.614746e-001
2.863822e+003,1.076831e+000
2.864786e+003,1.391621e+000
2.865750e+003,8.803314e-001
2.866714e+003,7.901093e-001
2.867679e+003,1.001115e+000
2.868643e+003,7.966919e-001
2.869607e+003,1.386093e-001
2.870571e+003,-1.046133e+000
2.871536e+003,-2.471524e+000
2.872500e+003,-1.198468e+000
2.873464e+003,2.513251e+000
2.874428e+003,1.901465e+000
2.875393e+003,-1.509245e+000
2.876357e+003,-2.722780e+000
2.877321e+003,-2.139320e+000
2.878285e+003,-9.743134e-001
2.879250e+003,2.361542e-001
2.880214e+003,1.068336e+000
2.881178e+003,1.405672e+000
2.882142e+003,1.169772e+000
2.883106e+003,4.255890e-001
2.884071e+003,-8.711487e-001
2.885035e+003,-2.381011e+000
2.885999e+003,-2.114293e+000
2.886963e+003,-6.671540e-001
2.887927e+003,1.333769e+000
2.888892e+003,2.832901e+000
2.889856e+003,1.291258e+000
2.890820e+003,-1.008005e+000
2.891784e+003,9.916382e-002
2.892749e+003,2.599094e+000
2.893713e+003,2.920249e+000
2.894677e+003,1.777512e+000
2.895641e+003,5.914291e-001
2.896606e+003,-4.637680e-001
2.897570e+003,-1.098004e+000
2.898534e+003,-1.059067e+000
2.899498e+003,1.002696e+000
2.900463e+003,2.979193e+000
2.901427e+003,2.020996e+000
2.902391e+003,1.194504e-001
2.903355e+003,-7.314972e-001
2.904320e+003,-9.177658e-001
2.905284e+003,-7.973129e-001
2.906248e+003,-4.769424e-001
2.907212e+003,-5.557098e-002
2.908177e+003,3.554260e-001
2.909141e+003,4.233063e-001
2.910105e+003,5.200745e-001
2.911069e+003,1.248114e+000
2.912033e+003,1.912003e+000
2.912998e+003,2.235774e+000
2.913962e+003,1.882574e+000
2.914926e+003,3.611359e-001
2.915890e+003,-8.932129e-001
2.916854e+003,-8.030182e-001
2.917819e+003,-3.732056e-001
2.918783e+003,-6.050934e-001
2.919747e+003,-1.049553e+000
2.920711e+003,-1.532936e+000
2.921676e+003,-1.585191e+000
2.922640e+003,-5.077118e-001
2.923604e+003,4.620239e-001
2.924568e+003,9.119522e-001
2.925533e+003,9.354461e-001
2.926497e+003,4.502746e-001
2.927461e+003,5.528396e-001
2.928425e+003,1.851997e+000
2.929390e+003,1.182266e+000
2.930354e+003,-4.280658e+000
2.931318e+003,-8.041960e+000
2.932282e+003,-4.067049e+000
2.933247e+003,-8.659347e-001
2.934211e+003,-7.766190e-001
2.935175e+003,-7.054169e-001
2.936139e+003,-6.000595e-001
2.937104e+003,-5.448944e-001
2.938068e+003,-5.150986e-001
2.939032e+003,-5.780350e-001
2.939996e+003,-6.965088e-001
2.940960e+003,-4.449204e-001
2.941925e+003,3.229538e-001
2.942889e+003,1.050085e+000
2.943853e+003,1.897041e+000
2.944817e+003,1.457814e+000
2.945781e+003,-6.469299e-001
2.946746e+003,-1.991443e+000
2.947710e+003,-2.443178e+000
2.948674e+003,-2.056047e+000
2.949638e+003,-1.128427e+000
2.950603e+003,-6.374054e-001
2.951567e+003,-5.981735e-001
2.952531e+003,-3.876923e-001
2.953495e+003,1.598770e-001
2.954460e+003,1.521880e+000
2.955424e+003,3.698770e+000
2.956388e+003,2.876752e+000
2.957352e+003,-4.416656e-001
2.958317e+003,-1.152745e+000
2.959281e+003,-6.298828e-003
2.960245e+003,8.967697e-001
2.961209e+003,1.316887e+000
2.962174e+003,1.066618e+000
2.963138e+003,5.655365e-001
2.964102e+003,7.483032e-001
2.965066e+003,1.325746e+000
2.966031e+003,1.620668e+000
2.966995e+003,1.709325e+000
2.967959e+003,2.100739e+000
2.968923e+003,2.230064e+000
2.969887e+003,9.524383e-002
2.970852e+003,-2.139908e+000
2.971816e+003,-1.457577e+000
2.972780e+003,1.384583e-001
2.973744e+003,5.177170e-001
2.974708e+003,6.984619e-001
2.975673e+003,1.607690e+000
2.976637e+003,2.556370e+000
2.977601e+003,2.705132e+000
2.978565e+003,2.510764e+000
2.979530e+003,2.930788e+000
2.980494e+003,2.825127e+000
2.981458e+003,2.775024e-001
2.982422e+003,-1.574442e+000
2.983387e+003,-3.731689e-001
2.984351e+003,2.086365e-001
2.985315e+003,-1.229511e+000
2.986279e+003,-2.256674e+000
2.987244e+003,-1.640713e+000
2.988208e+003,-2.453018e-001
2.989172e+003,1.484401e+000
2.990136e+003,2.079479e+000
2.991101e+003,-2.002060e-001
2.992065e+003,-1.825438e+000
2.993029e+003,-2.078546e+000
2.993993e+003,-1.681484e+000
2.994958e+003,-6.924499e-001
2.995922e+003,5.254394e-001
2.996886e+003,1.798543e+000
2.997850e+003,2.682642e+000
2.998814e+003,3.024146e+000
2.999779e+003,2.613419e+000
3.000743e+003,1.414063e+000
3.001707e+003,8.261505e-001
3.002671e+003,1.129668e+000
3.003635e+003,3.971741e-001
3.004600e+003,-1.222591e+000
3.005564e+003,-7.932984e-001
3.006528e+003,1.061241e+000
3.007492e+003,2.297432e+000
3.008457e+003,2.724614e+000
3.009421e+003,2.302040e+000
3.010385e+003,1.489392e+000
3.011349e+003,1.489153e+000
3.012314e+003,1.744734e+000
3.013278e+003,4.160095e-001
3.014242e+003,-1.578534e+000
3.015206e+003,-5.643631e-001
3.016171e+003,1.303346e+000
3.017135e+003,-3.448868e-001
3.018099e+003,-2.462264e+000
3.019063e+003,-1.459686e+000
3.020028e+003,5.814301e-001
3.020992e+003,2.141609e+000
3.021956e+003,2.642343e+000
3.022920e+003,1.451999e+000
3.023885e+003,1.169723e-001
3.024849e+003,4.457062e-001
3.025813e+003,1.045514e+000
3.026777e+003,6.659225e-001
3.027741e+003,-1.452484e-002
3.028706e+003,-1.043883e+000
3.029670e+003,-1.608673e+000
3.030634e+003,-1.490916e+000
3.031598e+003,-9.269989e-001
3.032563e+003,-5.510559e-002
3.033527e+003,6.567581e-001
3.034491e+003,1.008929e+000
3.035455e+003,1.023560e+000
3.036420e+003,6.105133e-001
3.037384e+003,6.171662e-001
3.038348e+003,1.569072e+000
3.039312e+003,1.506276e+000
3.040277e+003,4.130448e-001
3.041241e+003,-2.158814e-002
3.042205e+003,2.662582e-001
3.043169e+003,1.066362e+000
3.044134e+003,1.934462e+000
3.045098e+003,1.685400e+000
3.046062e+003,5.619583e-001
3.047026e+003,5.552109e-001
3.047990e+003,1.263861e+000
3.048955e+003,-2.487427e-001
3.049919e+003,-3.021677e+000
3.050883e+003,-2.393121e+000
3.051847e+003,-3.570007e-001
3.052812e+003,-2.367661e-001
3.053776e+003,-7.956375e-001
3.054740e+003,-2.664322e-001
3.055704e+003,3.812347e-001
3.056668e+003,2.091522e-001
3.057633e+003,-3.661301e-001
3.058597e+003,-9.848022e-001
3.059561e+003,-1.190646e+000
3.060525e+003,-4.205475e-002
3.061490e+003,1.127434e+000
3.062454e+003,1.349385e+000
3.063418e+003,1.188582e+000
3.064382e+003,6.700363e-001
3.065347e+003,2.830521e-001
3.066311e+003,1.658463e-001
3.067275e+003,4.588806e-001
3.068239e+003,1.136134e+000
3.069204e+003,1.448492e+000
3.070168e+003,1.039125e+000
3.071132e+003,5.382248e-001
3.072096e+003,5.024414e-002
3.073061e+003,-1.235565e-001
3.074025e+003,3.039856e-002
3.074989e+003,8.210266e-001
3.075953e+003,1.888467e+000
3.076917e+003,1.260274e+000
3.077882e+003,-4.600525e-001
3.078846e+003,-1.096289e+000
3.079810e+003,-7.386063e-001
3.080774e+003,-8.095551e-001
3.081739e+003,-1.110072e+000
3.082703e+003,-7.006531e-001
3.083667e+003,4.972839e-003
3.084631e+003,-7.343750e-001
3.085595e+003,-1.731476e+000
3.086560e+003,-8.939835e-001
3.087524e+003,5.185318e-001
3.088488e+003,1.373274e+000
3.089452e+003,1.954071e+000
3.090417e+003,2.528369e+000
3.091381e+003,2.825799e+000
3.092345e+003,2.644783e+000
3.093309e+003,1.806396e+000
3.094274e+003,-2.587906e-001
3.095238e+003,-1.597224e+000
3.096202e+003,-4.339294e-001
3.097166e+003,8.346054e-001
3.098131e+003,1.952167e+000
3.099095e+003,2.196596e+000
3.100059e+003,1.488960e+000
3.101023e+003,4.663910e-001
3.101988e+003,-4.513825e-001
3.102952e+003,1.887207e-002
3.103916e+003,1.877141e+000
3.104880e+003,1.667438e+000
3.105844e+003,-1.038988e+000
3.106809e+003,-1.414998e+000
3.107773e+003,2.328583e-001
3.108737e+003,2.491974e-001
3.109701e+003,-8.137085e-001
3.110666e+003,-1.779253e+000
3.111630e+003,-2.324443e+000
3.112594e+003,-1.986581e+000
3.113558e+003,-1.226472e+000
3.114522e+003,-6.061172e-001
3.115487e+003,-1.892288e-001
3.116451e+003,-6.594849e-002
3.117415e+003,-1.371323e-001
3.118379e+003,-4.826798e-001
3.119344e+003,-6.355011e-001
3.120308e+003,9.789123e-002
3.121272e+003,5.454437e-001
3.122236e+003,3.682007e-001
3.123201e+003,-5.134888e-001
3.124165e+003,-2.064842e+000
3.125129e+003,-1.883455e+000
3.126093e+003,6.824722e-001
3.127058e+003,1.747220e+000
3.128022e+003,-6.089447e-001
3.128986e+003,-1.770282e+000
3.129950e+003,-6.892929e-001
3.130915e+003,-5.847168e-003
3.131879e+003,2.536270e-001
3.132843e+003,-4.498154e-001
3.133807e+003,-1.619989e+000
3.134771e+003,-1.921816e+000
3.135736e+003,-1.500121e+000
3.136700e+003,-7.231522e-001
3.137664e+003,-8.092346e-002
3.138628e+003,-4.508194e-001
3.139593e+003,-1.299179e+000
3.140557e+003,-1.674390e+000
3.141521e+003,-1.372363e+000
3.142485e+003,8.463608e-001
3.143449e+003,2.657014e+000
3.144414e+003,2.162784e+000
3.145378e+003,4.967194e-001
3.146342e+003,-2.219060e+000
3.147306e+003,-3.567604e+000
3.148271e+003,-2.461128e+000
3.149235e+003,-5.338959e-001
3.150199e+003,1.383961e+000
3.151163e+003,1.906766e+000
3.152128e+003,-6.525757e-001
3.153092e+003,-1.701364e+000
3.154056e+003,-9.551285e-001
3.155020e+003,-6.246170e-001
3.155985e+003,-7.394440e-001
3.156949e+003,-3.949188e-001
3.157913e+003,1.956573e-001
3.158877e+003,-1.210144e-001
3.159842e+003,-8.592651e-001
3.160806e+003,-1.736328e-001
3.161770e+003,1.175880e+000
3.162734e+003,1.077092e+000
3.163698e+003,1.574768e-001
3.164663e+003,-4.859665e-001
3.165627e+003,-9.069992e-001
3.166591e+003,-1.316110e+000
3.167555e+003,-1.168545e+000
3.168520e+003,8.904572e-002
3.169484e+003,7.175293e-001
3.170448e+003,-8.849487e-002
3.171412e+003,-1.239319e-001
3.172376e+003,1.900566e+000
3.173341e+003,3.535828e+000
3.174305e+003,3.503972e+000
3.175269e+003,2.903178e+000
3.176233e+003,1.808031e+000
3.177198e+003,6.379364e-001
3.178162e+003,-4.834946e-001
3.179126e+003,-8.269272e-001
3.180090e+003,-5.884064e-001
3.181055e+003,-4.860077e-001
3.182019e+003,-5.337204e-001
3.182983e+003,-3.371002e-001
3.183947e+003,-1.504929e-001
3.184912e+003,-7.419586e-001
3.185876e+003,-1.538120e+000
3.186840e+003,-1.108345e+000
3.187804e+003,-3.592560e-001
3.188769e+003,-6.930695e-002
3.189733e+003,-8.500824e-002
3.190697e+003,-2.297775e-001
3.191661e+003,-1.073859e+000
3.192625e+003,-2.839528e+000
3.193590e+003,-3.424819e+000
3.194554e+003,-1.800792e+000
3.195518e+003,-1.378036e-001
3.196482e+003,7.012619e-001
3.197447e+003,5.358276e-001
3.198411e+003,-9.505081e-001
3.199375e+003,-4.349045e-001
3.200339e+003,1.673636e+000
3.201303e+003,2.720151e+000
3.202268e+003,2.682352e+000
3.203232e+003,1.949631e+000
3.204196e+003,9.706391e-001
3.205160e+003,4.284027e-001
3.206125e+003,1.248108e-001
3.207089e+003,-3.285874e-001
3.208053e+003,-7.303711e-001
3.209017e+003,-8.212616e-001
3.209982e+003,-5.771149e-001
3.210946e+003,5.298935e-001
3.211910e+003,1.094795e+000
3.212874e+003,5.167068e-001
3.213839e+003,2.860565e-002
3.214803e+003,1.883240e-002
3.215767e+003,-1.200058e-001
3.216731e+003,-5.838730e-001
3.217696e+003,-8.017227e-001
3.218660e+003,-5.891739e-001
3.219624e+003,8.022614e-002
3.220588e+003,1.228261e+000
3.221552e+003,1.278185e+000
3.222517e+003,5.669724e-001
3.223481e+003,4.185791e-002
3.224445e+003,-3.904114e-001
3.225409e+003,-9.771393e-001
3.226374e+003,-1.739932e+000
3.227338e+003,-2.906448e+000
3.228302e+003,-3.229188e+000
3.229266e+003,-7.837235e-001
3.230230e+003,1.459583e+000
3.231195e+003,-8.029892e-001
3.232159e+003,-2.523186e+000
3.233123e+003,-8.026352e-001
3.234087e+003,4.052612e-001
3.235052e+003,5.205490e-001
3.236016e+003,5.254593e-001
3.236980e+003,6.322739e-001
3.237944e+003,6.755005e-001
3.238909e+003,5.141357e-001
3.239873e+003,-7.892212e-001
3.240837e+003,-2.905029e+000
3.241801e+003,-2.645784e+000
3.242766e+003,-7.741593e-001
3.243730e+003,-2.047745e-001
3.244694e+003,-4.579285e-001
3.245658e+003,-1.391473e+000
3.246623e+003,-1.980385e+000
3.247587e+003,-1.133604e+000
3.248551e+003,-7.101456e-001
3.249515e+003,-1.923004e+000
3.250479e+003,-2.856480e+000
3.251444e+003,-2.031554e+000
3.252408e+003,-9.906998e-001
3.253372e+003,-3.205048e-001
3.254336e+003,-1.468216e-001
3.255301e+003,-4.846481e-001
3.256265e+003,-9.405746e-001
3.257229e+003,-1.334735e+000
3.258193e+003,-1.089575e+000
3.259157e+003,-4.047821e-001
3.260122e+003,5.334320e-002
3.261086e+003,3.771240e-001
3.262050e+003,9.726654e-001
3.263014e+003,1.546863e+000
3.263979e+003,1.271959e+000
3.264943e+003,8.008209e-001
3.265907e+003,1.200876e+000
3.266871e+003,1.261212e+000
3.267836e+003,-2.992554e-002
3.268800e+003,-8.756027e-001
3.269764e+003,-7.436188e-001
3.270728e+003,2.343491e-001
3.271693e+003,1.710097e+000
3.272657e+003,1.359149e+000
3.273621e+003,-1.758995e+000
3.274585e+003,-2.421890e+000
3.275550e+003,-3.189896e-001
3.276514e+003,5.785049e-001
3.277478e+003,6.013581e-001
3.278442e+003,5.241745e-001
3.279406e+003,3.506180e-001
3.280371e+003,-2.244568e-002
3.281335e+003,-6.252411e-001
3.282299e+003,-1.599568e+000
3.283263e+003,-1.923596e+000
3.284228e+003,-5.475128e-001
3.285192e+003,8.705093e-001
3.286156e+003,7.333023e-001
3.287120e+003,7.421997e-001
3.288084e+003,1.255565e+000
3.289049e+003,2.453122e+000
3.290013e+003,4.043820e+000
3.290977e+003,2.764192e+000
3.291941e+003,-5.424134e-001
3.292906e+003,-1.787022e+000
3.293870e+003,-9.448288e-001
3.294834e+003,-3.222000e-001
3.295798e+003,-1.797287e-001
3.296763e+003,-1.800633e+000
3.297727e+003,-3.373668e+000
3.298691e+003,-8.853119e-001
3.299655e+003,1.702794e+000
3.300620e+003,1.099672e+000
3.301584e+003,1.235168e-001
3.302548e+003,-4.891525e-001
3.303512e+003,-5.529541e-001
3.304477e+003,-1.206207e-002
3.305441e+003,1.169338e+000
3.306405e+003,3.001534e+000
3.307369e+003,2.908162e+000
3.308333e+003,6.945648e-001
3.309298e+003,1.190715e+000
3.310262e+003,3.121454e+000
3.311226e+003,2.353485e+000
3.312190e+003,5.837525e-001
3.313155e+003,5.870819e-001
3.314119e+003,8.239304e-001
3.315083e+003,-1.216766e-001
3.316047e+003,-7.482193e-001
3.317011e+003,2.261032e-001
3.317976e+003,1.323027e+000
3.318940e+003,1.640114e+000
3.319904e+003,1.163670e+000
3.320868e+003,-4.175186e-001
3.321833e+003,-4.407105e-001
3.322797e+003,9.775665e-001
3.323761e+003,2.099693e+000
3.324725e+003,2.767316e+000
3.325690e+003,3.616438e+000
3.326654e+003,4.083119e+000
3.327618e+003,2.855580e+000
3.328582e+003,1.036841e+000
3.329547e+003,9.350449e-001
3.330511e+003,1.153758e+000
3.331475e+003,-7.402679e-001
3.332439e+003,-1.325948e+000
3.333404e+003,1.556468e+000
3.334368e+003,2.668633e+000
3.335332e+003,1.080280e+000
3.336296e+003,-1.426132e-001
3.337260e+003,-2.540634e-001
3.338225e+003,-7.152527e-001
3.339189e+003,-1.687415e+000
3.340153e+003,-1.545280e+000
3.341117e+003,-5.222946e-001
3.342082e+003,2.452576e-001
3.343046e+003,7.106048e-001
3.344010e+003,8.922547e-001
3.344974e+003,5.721481e-001
3.345938e+003,-7.397553e-001
3.346903e+003,-1.442229e+000
3.347867e+003,-7.956421e-001
3.348831e+003,8.388825e-002
3.349795e+003,5.953797e-001
3.350760e+003,3.982773e-001
3.351724e+003,-1.230138e+000
3.352688e+003,-6.939285e-001
3.353652e+003,1.644168e+000
3.354617e+003,1.682683e+000
3.355581e+003,3.582687e-001
3.356545e+003,-9.994507e-002
3.357509e+003,1.400299e-002
3.358474e+003,1.677933e-001
3.359438e+003,-1.862671e-001
3.360402e+003,-1.693542e+000
3.361366e+003,-2.417273e+000
3.362331e+003,5.731491e-001
3.363295e+003,1.985844e+000
3.364259e+003,-1.446483e+000
3.365223e+003,-2.032216e+000
3.366188e+003,3.333786e-001
3.367152e+003,3.074799e-002
3.368116e+003,-2.389760e+000
3.369080e+003,-2.755391e+000
3.370044e+003,-1.559731e+000
3.371009e+003,-1.781456e+000
3.371973e+003,-2.381807e+000
3.372937e+003,-1.120790e+000
3.373901e+003,4.083756e-001
3.374865e+003,4.040207e-001
3.375830e+003,-3.329056e-001
3.376794e+003,-1.692934e+000
3.377758e+003,-2.813596e+000
3.378722e+003,-3.447189e+000
3.379687e+003,-2.824205e+000
3.380651e+003,-1.111339e+000
3.381615e+003,1.369568e-001
3.382579e+003,5.797775e-001
3.383544e+003,3.637085e-002
3.384508e+003,-1.091608e+000
3.385472e+003,-1.563138e+000
3.386436e+003,-1.488815e+000
3.387401e+003,-6.709992e-001
3.388365e+003,1.368286e-001
3.389329e+003,6.843567e-001
3.390293e+003,2.477554e-001
3.391258e+003,-1.267323e+000
3.392222e+003,-1.546077e+000
3.393186e+003,3.644455e-001
3.394150e+003,2.037782e+000
3.395115e+003,3.175136e+000
3.396079e+003,2.703973e+000
3.397043e+003,1.425809e+000
3.398007e+003,1.857001e+000
3.398971e+003,3.206215e+000
3.399936e+003,4.799609e+000
3.400900e+003,5.799751e+000
3.401864e+003,5.751733e+000
3.402828e+003,4.926442e+000
3.403792e+003,3.471465e+000
3.404757e+003,2.896053e+000
3.405721e+003,4.482724e+000
3.406685e+003,5.525568e+000
3.407649e+003,5.904584e+000
3.408614e+003,7.067273e+000
3.409578e+003,8.612699e+000
3.410542e+003,9.200574e+000
3.411506e+003,9.313684e+000
3.412471e+003,9.881357e+000
3.413435e+003,1.045329e+001
3.414399e+003,1.054444e+001
3.415363e+003,1.075763e+001
3.416328e+003,1.186402e+001
3.417292e+003,1.276692e+001
3.418256e+003,1.315349e+001
3.419220e+003,1.304381e+001
3.420185e+003,1.251517e+001
3.421149e+003,1.164198e+001
3.422113e+003,1.087654e+001
3.423077e+003,1.164229e+001
3.424042e+003,1.296964e+001
3.425006e+003,1.302837e+001
3.425970e+003,1.237501e+001
3.426934e+003,1.151948e+001
