7.140112e+001,1.766224e+002
7.236536e+001,1.703737e+002
7.332959e+001,1.720754e+002
7.429382e+001,1.796133e+002
7.525806e+001,1.945187e+002
7.622229e+001,2.013665e+002
7.718652e+001,1.894243e+002
7.815076e+001,1.490224e+002
7.911499e+001,1.193831e+002
8.007922e+001,9.459792e+001
8.104346e+001,7.981968e+001
8.200769e+001,8.069650e+001
8.297192e+001,1.077467e+002
8.393616e+001,1.403094e+002
8.490039e+001,1.844002e+002
8.586462e+001,2.294029e+002
8.682886e+001,2.581256e+002
8.779310e+001,2.349840e+002
8.875733e+001,1.940879e+002
8.972157e+001,1.517015e+002
9.068580e+001,1.147716e+002
9.165003e+001,8.454325e+001
9.261427e+001,7.246892e+001
9.357850e+001,7.274846e+001
9.454273e+001,7.671631e+001
9.550697e+001,7.873251e+001
9.647120e+001,7.873374e+001
9.743543e+001,7.721914e+001
9.839967e+001,7.397463e+001
9.936390e+001,6.948796e+001
1.003281e+002,6.394126e+001
1.012924e+002,5.361704e+001
1.022566e+002,4.764612e+001
1.032208e+002,4.963413e+001
1.041851e+002,5.722731e+001
1.051493e+002,6.487264e+001
1.061135e+002,6.939394e+001
1.070778e+002,7.041296e+001
1.080420e+002,6.586936e+001
1.090062e+002,5.592610e+001
1.099705e+002,4.345330e+001
1.109347e+002,3.404686e+001
1.118989e+002,2.746974e+001
1.128632e+002,2.609492e+001
1.138274e+002,3.175795e+001
1.147916e+002,4.609507e+001
1.157559e+002,5.357280e+001
1.167201e+002,5.260481e+001
1.176843e+002,4.836228e+001
1.186486e+002,4.705453e+001
1.196128e+002,5.065975e+001
1.205770e+002,5.498003e+001
1.215413e+002,6.368750e+001
1.225055e+002,7.303701e+001
1.234697e+002,7.515652e+001
1.244340e+002,5.430032e+001
1.253982e+002,3.291600e+001
1.263624e+002,1.559263e+001
1.273267e+002,4.770276e+000
1.282909e+002,1.502905e+000
1.292551e+002,1.721367e+001
1.302194e+002,3.870472e+001
1.311836e+002,5.431460e+001
1.321478e+002,5.662114e+001
1.331121e+002,4.534519e+001
1.340763e+002,3.396348e+001
1.350405e+002,2.145370e+001
1.360048e+002,1.203424e+001
1.369690e+002,1.083752e+001
1.379332e+002,2.611761e+001
1.388975e+002,3.677931e+001
1.398617e+002,4.201467e+001
1.408259e+002,4.299410e+001
1.417902e+002,4.156379e+001
1.427544e+002,3.636168e+001
1.437186e+002,3.087395e+001
1.446829e+002,2.538751e+001
1.456471e+002,2.030004e+001
1.466113e+002,1.608627e+001
1.475756e+002,1.149797e+001
1.485398e+002,9.415930e+000
1.495040e+002,1.491595e+001
1.504683e+002,2.888558e+001
1.514325e+002,4.785204e+001
1.523967e+002,5.019005e+001
1.533610e+002,3.984824e+001
1.543252e+002,2.763917e+001
1.552894e+002,2.135826e+001
1.562537e+002,2.372218e+001
1.572179e+002,2.386866e+001
1.581821e+002,1.892263e+001
1.591464e+002,1.398413e+001
1.601106e+002,1.521714e+001
1.610748e+002,3.124237e+001
1.620391e+002,4.042606e+001
1.630033e+002,3.391094e+001
1.639676e+002,1.878983e+001
1.649318e+002,6.233655e+000
1.658960e+002,9.676440e+000
1.668603e+002,1.685492e+001
1.678245e+002,1.959556e+001
1.687887e+002,1.753224e+001
1.697530e+002,1.359130e+001
1.707172e+002,1.650842e+001
1.716814e+002,2.349589e+001
1.726457e+002,2.785172e+001
1.736099e+002,2.698275e+001
1.745741e+002,2.068887e+001
1.755384e+002,1.395460e+001
1.765026e+002,4.191003e+000
1.774668e+002,-3.388367e+000
1.784311e+002,-4.999084e+000
1.793953e+002,2.206226e+000
1.803595e+002,6.929565e+000
1.813238e+002,6.410620e+000
1.822880e+002,3.905237e+000
1.832522e+002,2.205640e+000
1.842165e+002,3.783972e+000
1.851807e+002,4.193017e+000
1.861449e+002,-1.264514e+000
1.871092e+002,-9.472534e+000
1.880734e+002,-1.651438e+001
1.890376e+002,-1.694901e+001
1.900019e+002,-1.180940e+001
1.909661e+002,-4.844495e+000
1.919303e+002,3.541260e+000
1.928946e+002,1.195271e+001
1.938588e+002,1.543008e+001
1.948230e+002,1.066746e+001
1.957873e+002,8.244482e+000
1.967515e+002,9.893420e+000
1.977157e+002,1.561995e+001
1.986800e+002,2.364622e+001
1.996442e+002,3.547971e+001
2.006084e+002,4.739302e+001
2.015727e+002,6.101951e+001
2.025369e+002,7.656450e+001
2.035011e+002,8.448887e+001
2.044654e+002,7.376577e+001
2.054296e+002,5.684801e+001
2.063938e+002,3.951278e+001
2.073581e+002,2.573262e+001
2.083223e+002,1.612410e+001
2.092865e+002,9.244507e+000
2.102508e+002,5.613586e+000
2.112150e+002,8.893616e+000
2.121792e+002,2.316307e+001
2.131435e+002,5.257359e+001
2.141077e+002,7.008374e+001
2.150719e+002,7.268889e+001
2.160362e+002,6.699861e+001
2.170004e+002,6.248957e+001
2.179646e+002,6.014040e+001
2.189289e+002,5.766145e+001
2.198931e+002,5.093674e+001
2.208573e+002,4.403359e+001
2.218216e+002,4.464671e+001
2.227858e+002,6.422273e+001
2.237500e+002,8.689178e+001
2.247143e+002,1.134006e+002
2.256785e+002,1.386674e+002
2.266427e+002,1.534720e+002
2.276070e+002,1.307270e+002
2.285712e+002,8.959685e+001
2.295354e+002,5.326228e+001
2.304997e+002,2.867661e+001
2.314639e+002,1.486869e+001
2.324281e+002,7.345068e+000
2.333924e+002,6.746253e+000
2.343566e+002,7.687952e+000
2.353208e+002,8.938623e+000
2.362851e+002,1.081287e+001
2.372493e+002,1.053697e+001
2.382135e+002,5.709888e+000
2.391778e+002,1.107385e+000
2.401420e+002,-4.341553e-001
2.411062e+002,2.506934e+000
2.420705e+002,4.970935e+000
2.430347e+002,3.802185e+000
2.439989e+002,1.077991e+000
2.449632e+002,-2.003186e+000
2.459274e+002,-4.584839e+000
2.468916e+002,-6.287451e+000
2.478559e+002,-6.384790e+000
2.488201e+002,-5.436914e+000
2.497843e+002,-4.641479e+000
2.507486e+002,-5.433008e+000
2.517128e+002,-8.365466e+000
2.526770e+002,-8.458044e+000
2.536413e+002,-4.372949e+000
2.546055e+002,1.196753e+000
2.555697e+002,3.932800e+000
2.565340e+002,5.747925e-001
2.574982e+002,-1.197229e+000
2.584625e+002,3.865234e-001
2.594267e+002,3.856860e+000
2.603909e+002,6.609046e+000
2.613552e+002,6.974585e+000
2.623194e+002,5.948975e+000
2.632836e+002,3.053076e+000
2.642479e+002,-8.330566e-001
2.652121e+002,-4.102112e+000
2.661763e+002,-3.568713e+000
2.671406e+002,-1.223682e+000
2.681048e+002,-3.958984e-001
2.690690e+002,-1.607703e+000
2.700333e+002,-3.997034e+000
2.709975e+002,-3.848303e+000
2.719617e+002,1.324463e-002
2.729260e+002,2.568164e+000
2.738902e+002,2.156677e+000
2.748544e+002,-1.182056e+000
2.758187e+002,-3.823743e+000
2.767829e+002,-5.567664e+000
2.777471e+002,-6.834595e+000
2.787114e+002,-7.696460e+000
2.796756e+002,-8.110888e+000
2.806398e+002,-7.775439e+000
2.816041e+002,-5.985510e+000
2.825683e+002,-3.907910e+000
2.835325e+002,-2.033154e+000
2.844968e+002,-6.163330e-001
2.854610e+002,4.057983e-001
2.864252e+002,1.045398e+000
2.873895e+002,1.444421e+000
2.883537e+002,1.989343e+000
2.893179e+002,2.969971e+000
2.902822e+002,4.513782e+000
2.912464e+002,3.718933e+000
2.922106e+002,3.375244e-002
2.931749e+002,-4.183154e+000
2.941391e+002,-7.645801e+000
2.951033e+002,-1.047809e+001
2.960676e+002,-1.223118e+001
2.970318e+002,-1.310433e+001
2.979960e+002,-1.294297e+001
2.989603e+002,-1.163480e+001
2.999245e+002,-9.133862e+000
3.008887e+002,-5.488489e+000
3.018530e+002,5.759522e-001
3.028172e+002,6.868823e+000
3.037814e+002,1.100737e+001
3.047457e+002,1.090504e+001
3.057099e+002,8.091309e+000
3.066741e+002,8.114904e+000
3.076384e+002,1.026521e+001
3.086026e+002,1.224175e+001
3.095668e+002,1.145917e+001
3.105311e+002,6.820886e+000
3.114953e+002,3.210083e+000
3.124595e+002,6.825806e-001
3.134238e+002,-1.174414e+000
3.143880e+002,-2.944385e+000
3.153522e+002,-5.318713e+000
3.163165e+002,-6.261975e+000
3.172807e+002,-4.621094e+000
3.182449e+002,-1.757129e+000
3.192092e+002,7.900391e-001
3.201734e+002,1.880005e+000
3.211376e+002,2.439490e+000
3.221019e+002,3.135120e+000
3.230661e+002,4.056811e+000
3.240303e+002,5.388513e+000
3.249946e+002,7.462146e+000
3.259588e+002,9.840601e+000
3.269230e+002,1.068102e+001
3.278873e+002,9.935901e+000
3.288515e+002,8.242261e+000
3.298157e+002,6.708191e+000
3.307800e+002,5.247058e+000
3.317442e+002,4.573486e+000
3.327084e+002,3.772058e+000
3.336727e+002,3.742932e+000
3.346369e+002,6.482654e+000
3.356011e+002,1.652363e+001
3.365654e+002,2.353354e+001
3.375296e+002,2.400708e+001
3.384938e+002,2.029489e+001
3.394581e+002,1.603726e+001
3.404223e+002,1.377660e+001
3.413865e+002,1.290673e+001
3.423508e+002,1.287228e+001
3.433150e+002,1.356990e+001
3.442792e+002,1.484917e+001
3.452435e+002,1.646222e+001
3.462077e+002,1.852191e+001
3.471719e+002,2.076622e+001
3.481362e+002,2.237439e+001
3.491004e+002,2.526204e+001
3.500646e+002,3.357273e+001
3.510289e+002,4.441437e+001
3.519931e+002,6.772572e+001
3.529573e+002,1.050487e+002
3.539216e+002,1.541795e+002
3.548858e+002,2.150863e+002
3.558500e+002,3.174879e+002
3.568143e+002,3.878051e+002
3.577785e+002,3.955891e+002
3.587427e+002,3.555493e+002
3.597070e+002,2.927765e+002
3.606712e+002,2.225487e+002
3.616354e+002,1.559101e+002
3.625997e+002,1.042570e+002
3.635639e+002,6.798967e+001
3.645281e+002,4.548197e+001
3.654924e+002,3.408634e+001
3.664566e+002,3.772760e+001
3.674208e+002,3.765599e+001
3.683851e+002,3.212228e+001
3.693493e+002,2.341069e+001
3.703135e+002,1.644784e+001
3.712778e+002,1.236555e+001
3.722420e+002,9.247778e+000
3.732062e+002,6.604956e+000
3.741705e+002,4.820068e+000
3.751347e+002,4.684436e+000
3.760989e+002,7.654407e+000
3.770632e+002,1.097833e+001
3.780274e+002,1.356045e+001
3.789916e+002,1.521710e+001
3.799559e+002,1.595204e+001
3.809201e+002,1.583449e+001
3.818844e+002,1.459490e+001
3.828486e+002,1.135678e+001
3.838128e+002,6.442114e+000
3.847771e+002,2.104468e+000
3.857413e+002,1.781287e+000
3.867055e+002,8.004639e+000
3.876698e+002,1.188175e+001
3.886340e+002,1.122484e+001
3.895982e+002,9.227466e+000
3.905625e+002,1.072285e+001
3.915267e+002,1.973944e+001
3.924909e+002,2.564528e+001
3.934552e+002,2.584392e+001
3.944194e+002,2.284775e+001
3.953836e+002,1.897268e+001
3.963479e+002,1.491680e+001
3.973121e+002,1.212814e+001
3.982763e+002,1.218959e+001
3.992406e+002,1.388065e+001
4.002048e+002,1.548771e+001
4.011690e+002,1.533633e+001
4.021333e+002,1.372776e+001
4.030975e+002,1.371010e+001
4.040617e+002,1.533601e+001
4.050260e+002,1.704459e+001
4.059902e+002,1.704574e+001
4.069544e+002,1.410283e+001
4.079187e+002,1.298281e+001
4.088829e+002,1.451354e+001
4.098471e+002,1.665771e+001
4.108114e+002,1.787892e+001
4.117756e+002,1.766127e+001
4.127398e+002,1.756044e+001
4.137041e+002,1.859308e+001
4.146683e+002,1.976346e+001
4.156325e+002,2.024839e+001
4.165968e+002,1.960276e+001
4.175610e+002,1.849141e+001
4.185252e+002,1.767629e+001
4.194895e+002,1.732175e+001
4.204537e+002,1.790065e+001
4.214179e+002,1.969946e+001
4.223822e+002,2.264827e+001
4.233464e+002,2.510156e+001
4.243106e+002,2.719843e+001
4.252749e+002,2.847354e+001
4.262391e+002,2.754928e+001
4.272033e+002,2.392210e+001
4.281676e+002,2.493940e+001
4.291318e+002,3.477981e+001
4.300960e+002,4.512783e+001
4.310603e+002,5.172573e+001
4.320245e+002,5.459950e+001
4.329887e+002,5.998087e+001
4.339530e+002,6.753033e+001
4.349172e+002,8.410176e+001
4.358814e+002,1.189275e+002
4.368457e+002,1.707171e+002
4.378099e+002,2.303454e+002
4.387741e+002,2.872174e+002
4.397384e+002,3.352942e+002
4.407026e+002,3.526942e+002
4.416668e+002,3.326702e+002
4.426311e+002,2.842842e+002
4.435953e+002,2.375188e+002
4.445595e+002,1.883996e+002
4.455238e+002,1.472240e+002
4.464880e+002,1.154528e+002
4.474522e+002,9.181850e+001
4.484165e+002,7.434835e+001
4.493807e+002,6.623006e+001
4.503449e+002,6.065496e+001
4.513092e+002,5.666125e+001
4.522734e+002,5.327051e+001
4.532376e+002,4.948383e+001
4.542019e+002,4.447046e+001
4.551661e+002,3.881360e+001
4.561303e+002,3.285075e+001
4.570946e+002,2.704990e+001
4.580588e+002,2.233038e+001
4.590230e+002,1.970155e+001
4.599873e+002,1.943871e+001
4.609515e+002,1.986425e+001
4.619157e+002,2.113964e+001
4.628800e+002,2.253351e+001
4.638442e+002,2.345900e+001
4.648084e+002,2.389495e+001
4.657727e+002,2.380531e+001
4.667369e+002,2.249429e+001
4.677011e+002,2.154185e+001
4.686654e+002,2.239099e+001
4.696296e+002,2.551838e+001
4.705938e+002,2.789482e+001
4.715581e+002,2.665450e+001
4.725223e+002,2.414392e+001
4.734865e+002,2.166772e+001
4.744508e+002,1.984449e+001
4.754150e+002,1.845870e+001
4.763792e+002,1.686288e+001
4.773435e+002,1.520577e+001
4.783077e+002,1.414104e+001
4.792719e+002,1.400629e+001
4.802362e+002,1.455565e+001
4.812004e+002,1.428014e+001
4.821646e+002,1.219393e+001
4.831289e+002,1.033749e+001
4.840931e+002,8.595343e+000
4.850573e+002,7.109931e+000
4.860216e+002,6.384680e+000
4.869858e+002,7.642297e+000
4.879500e+002,8.718634e+000
4.889143e+002,8.829920e+000
4.898785e+002,8.262939e+000
4.908427e+002,7.451575e+000
4.918070e+002,6.561523e+000
4.927712e+002,5.963800e+000
4.937354e+002,6.580029e+000
4.946997e+002,7.929053e+000
4.956639e+002,8.719202e+000
4.966281e+002,7.596723e+000
4.975924e+002,4.326141e+000
4.985566e+002,2.706714e+000
4.995208e+002,2.770520e+000
5.004851e+002,3.793866e+000
5.014493e+002,5.676294e+000
5.024135e+002,8.854303e+000
5.033778e+002,1.077545e+001
5.043420e+002,1.084234e+001
5.053063e+002,1.036732e+001
5.062705e+002,9.877686e+000
5.072347e+002,9.402326e+000
5.081990e+002,8.415393e+000
5.091632e+002,4.949158e+000
5.101274e+002,1.763031e+000
5.110917e+002,1.159204e+000
5.120559e+002,3.237988e+000
5.130201e+002,6.362701e+000
5.139844e+002,7.288861e+000
5.149486e+002,6.067975e+000
5.159128e+002,4.965454e+000
5.168771e+002,4.306519e+000
5.178413e+002,3.864709e+000
5.188055e+002,3.079627e+000
5.197698e+002,1.297864e+000
5.207340e+002,2.080078e-001
5.216982e+002,4.959900e-001
5.226625e+002,1.097656e+000
5.236267e+002,6.141968e-001
5.245909e+002,-1.929449e+000
5.255552e+002,-3.903076e+000
5.265194e+002,-3.681549e+000
5.274836e+002,-2.573322e+000
5.284479e+002,-1.610846e+000
5.294121e+002,-1.365167e+000
5.303763e+002,-1.523901e+000
5.313406e+002,-1.763141e+000
5.323048e+002,-1.965363e+000
5.332690e+002,-1.515112e+000
5.342333e+002,-3.707886e-002
5.351975e+002,2.201953e+000
5.361617e+002,2.920783e+000
5.371260e+002,6.858032e-001
5.380902e+002,-7.637512e-001
5.390544e+002,-3.266846e-001
5.400187e+002,1.365295e+000
5.409829e+002,2.352673e+000
5.419471e+002,1.658380e+000
5.429114e+002,1.008490e+000
5.438756e+002,9.154114e-001
5.448398e+002,1.123419e+000
5.458041e+002,1.232593e+000
5.467683e+002,9.935181e-001
5.477325e+002,4.802002e-001
5.486968e+002,-4.918945e-001
5.496610e+002,-1.599719e+000
5.506252e+002,-2.088696e+000
5.515895e+002,-1.332178e+000
5.525537e+002,6.251160e-001
5.535179e+002,1.369415e+000
5.544822e+002,8.257568e-001
5.554464e+002,1.049988e-001
5.564106e+002,-2.401306e-001
5.573749e+002,-2.397339e-001
5.583391e+002,-5.918762e-001
5.593033e+002,-1.516840e+000
5.602676e+002,-2.558337e+000
5.612318e+002,-4.107459e+000
5.621960e+002,-5.754901e+000
5.631603e+002,-6.333527e+000
5.641245e+002,-4.023383e+000
5.650887e+002,-1.426746e+000
5.660530e+002,-8.850830e-001
5.670172e+002,-1.898413e+000
5.679814e+002,-3.103461e+000
5.689457e+002,-3.022296e+000
5.699099e+002,-1.794037e+000
5.708741e+002,-1.589185e+000
5.718384e+002,-2.505347e+000
5.728026e+002,-3.436584e+000
5.737668e+002,-3.490643e+000
5.747311e+002,-2.530322e+000
5.756953e+002,-1.457867e+000
5.766595e+002,7.811096e-001
5.776238e+002,2.057263e+000
5.785880e+002,8.067871e-001
5.795522e+002,-2.636627e+000
5.805165e+002,-5.478705e+000
5.814807e+002,-4.874194e+000
5.824449e+002,-3.880280e+000
5.834092e+002,-4.559161e+000
5.843734e+002,-6.469831e+000
5.853376e+002,-7.902265e+000
5.863019e+002,-6.688782e+000
5.872661e+002,-3.382275e+000
5.882303e+002,-1.696735e+000
5.891946e+002,-1.653394e+000
5.901588e+002,-2.113532e+000
5.911230e+002,-1.936591e+000
5.920873e+002,-9.550781e-001
5.930515e+002,-3.442993e-002
5.940157e+002,1.792157e+000
5.949800e+002,2.719452e+000
5.959442e+002,1.024506e+000
5.969084e+002,-3.207251e+000
5.978727e+002,-6.263733e+000
5.988369e+002,-4.733869e+000
5.998011e+002,-2.537647e+000
6.007654e+002,-7.349671e-001
6.017296e+002,3.214294e-001
6.026938e+002,5.065735e-001
6.036581e+002,-5.855286e-001
6.046223e+002,-2.397552e+000
6.055865e+002,-3.033813e+000
6.065508e+002,-2.536932e+000
6.075150e+002,-1.870935e+000
6.084792e+002,-2.157910e+000
6.094435e+002,-3.818323e+000
6.104077e+002,-4.060492e+000
6.113719e+002,-1.913776e+000
6.123362e+002,9.357910e-002
6.133004e+002,5.958496e-001
6.142646e+002,-4.452454e-001
6.152289e+002,-1.603162e+000
6.161931e+002,-2.952820e+000
6.171573e+002,-3.744952e+000
6.181216e+002,-3.103778e+000
6.190858e+002,-1.506201e+000
6.200500e+002,-2.015808e-001
6.210143e+002,-5.098511e-001
6.219785e+002,-1.858252e+000
6.229427e+002,-3.026544e+000
6.239070e+002,-3.939349e+000
6.248712e+002,-4.250983e+000
6.258354e+002,-3.552252e+000
6.267997e+002,-1.613458e+000
6.277639e+002,-3.108032e-001
6.287281e+002,2.088623e-001
6.296924e+002,3.439758e-001
6.306566e+002,1.793213e-002
6.316208e+002,-6.962525e-001
6.325851e+002,-1.006482e+000
6.335493e+002,-2.671448e-001
6.345135e+002,6.846191e-001
6.354778e+002,1.718976e+000
6.364420e+002,2.731775e+000
6.374063e+002,3.663354e+000
6.383705e+002,4.512579e+000
6.393347e+002,5.131470e+000
6.402990e+002,5.674445e+000
6.412632e+002,5.982593e+000
6.422274e+002,5.387964e+000
6.431917e+002,3.329974e+000
6.441559e+002,-9.353638e-002
6.451201e+002,-1.601984e+000
6.460844e+002,-3.477478e-001
6.470486e+002,7.286255e-001
6.480128e+002,6.145752e-001
6.489771e+002,-4.015259e-001
6.499413e+002,-1.116278e+000
6.509055e+002,-1.113525e+000
6.518698e+002,-1.085516e+000
6.528340e+002,-1.323224e+000
6.537982e+002,-1.555969e+000
6.547625e+002,-1.308246e+000
6.557267e+002,-2.312683e-001
6.566909e+002,8.406250e-001
6.576552e+002,2.105957e-001
6.586194e+002,-1.145178e+000
6.595836e+002,-1.541907e+000
6.605479e+002,-1.594543e-001
6.615121e+002,2.388263e+000
6.624763e+002,3.325799e+000
6.634406e+002,1.758618e+000
6.644048e+002,8.521240e-001
6.653690e+002,1.878662e+000
6.663333e+002,3.453619e+000
6.672975e+002,2.682568e+000
6.682617e+002,-2.549030e+000
6.692260e+002,-5.823474e+000
6.701902e+002,-4.780237e+000
6.711544e+002,-2.232513e+000
6.721187e+002,-1.634521e-001
6.730829e+002,6.456116e-001
6.740471e+002,5.537475e-001
6.750114e+002,-1.057904e+000
6.759756e+002,-2.738135e+000
6.769398e+002,-2.532422e+000
6.779041e+002,-2.149719e-001
6.788683e+002,2.857019e+000
6.798325e+002,4.238098e+000
6.807968e+002,3.395221e+000
6.817610e+002,2.336975e+000
6.827252e+002,3.669739e-001
6.836895e+002,-1.263336e+000
6.846537e+002,-1.118719e+000
6.856179e+002,1.239227e+000
6.865822e+002,2.738354e+000
6.875464e+002,2.273492e+000
6.885106e+002,1.280975e+000
6.894749e+002,-7.484131e-002
6.904391e+002,-1.446905e+000
6.914034e+002,-2.202930e+000
6.923676e+002,-1.472668e+000
6.933318e+002,-6.200562e-002
6.942961e+002,1.026331e+000
6.952603e+002,1.712866e+000
6.962245e+002,1.806787e+000
6.971888e+002,1.089710e+000
6.981530e+002,-4.873840e-001
6.991172e+002,-1.243420e+000
7.000815e+002,-1.123022e+000
7.010457e+002,-6.653503e-001
7.020099e+002,3.299316e-001
7.029742e+002,1.681787e+000
7.039384e+002,2.332556e+000
7.049026e+002,1.251257e+000
7.058669e+002,4.573364e-001
7.068311e+002,5.368103e-001
7.077953e+002,1.159003e+000
7.087596e+002,2.060492e+000
7.097238e+002,3.162012e+000
7.106880e+002,4.094812e+000
7.116523e+002,3.943976e+000
7.126165e+002,3.218927e+000
7.135807e+002,2.753186e+000
7.145450e+002,2.875415e+000
7.155092e+002,3.262579e+000
7.164734e+002,2.971625e+000
7.174377e+002,1.568103e+000
7.184019e+002,2.955444e-001
7.193661e+002,-1.424896e+000
7.203304e+002,-2.731946e+000
7.212946e+002,-2.355225e+000
7.222589e+002,3.339905e-001
7.232231e+002,2.382165e+000
7.241873e+002,2.222003e+000
7.251516e+002,1.739557e+000
7.261158e+002,2.091302e+000
7.270800e+002,3.162647e+000
7.280443e+002,3.744464e+000
7.290085e+002,2.231586e+000
7.299727e+002,-9.081421e-002
7.309370e+002,-4.025574e-001
7.319012e+002,1.074255e+000
7.328654e+002,2.739874e+000
7.338297e+002,3.123517e+000
7.347939e+002,2.142102e+000
7.357581e+002,1.544226e+000
7.367224e+002,1.519031e+000
7.376866e+002,1.549658e+000
7.386508e+002,1.599359e+000
7.396151e+002,1.606519e+000
7.405793e+002,1.418585e+000
7.415435e+002,9.909790e-001
7.425078e+002,4.133057e-001
7.434720e+002,-6.987122e-001
7.444362e+002,-1.773682e+000
7.454005e+002,-2.026788e+000
7.463647e+002,-1.163818e+000
7.473289e+002,5.584717e-002
7.482932e+002,6.066284e-002
7.492574e+002,-6.629578e-001
7.502216e+002,-1.013104e+000
7.511859e+002,-7.415894e-001
7.521501e+002,-3.380249e-001
7.531143e+002,-7.080749e-001
7.540786e+002,-2.455115e+000
7.550428e+002,-3.339557e+000
7.560070e+002,-3.237714e+000
7.569713e+002,-2.631989e+000
7.579355e+002,-1.564484e+000
7.588997e+002,-1.456238e-001
7.598640e+002,9.606445e-001
7.608282e+002,1.288061e+000
7.617924e+002,1.317596e+000
7.627567e+002,8.337402e-001
7.637209e+002,2.843689e-001
7.646851e+002,3.444031e-001
7.656494e+002,1.552136e+000
7.666136e+002,3.829797e+000
7.675778e+002,7.755694e+000
7.685421e+002,1.306716e+001
7.695063e+002,1.634381e+001
7.704705e+002,1.566465e+001
7.714348e+002,1.191504e+001
7.723990e+002,8.597425e+000
7.733632e+002,5.773163e+000
7.743275e+002,3.330414e+000
7.752917e+002,1.122449e+000
7.762559e+002,-6.123535e-001
7.772202e+002,-1.506140e+000
7.781844e+002,-1.476990e+000
7.791486e+002,-1.324414e+000
7.801129e+002,-1.929236e+000
7.810771e+002,-2.593890e+000
7.820413e+002,-2.732880e+000
7.830056e+002,-2.371179e+000
7.839698e+002,-1.919519e+000
7.849340e+002,-1.857587e+000
7.858983e+002,-2.185230e+000
7.868625e+002,-2.623260e+000
7.878267e+002,-3.485175e+000
7.887910e+002,-3.620624e+000
7.897552e+002,-1.808490e+000
7.907194e+002,1.617078e+000
7.916837e+002,3.794702e+000
7.926479e+002,4.009894e+000
7.936121e+002,3.318066e+000
7.945764e+002,1.068256e+000
7.955406e+002,-1.524878e+000
7.965048e+002,-3.138251e+000
7.974691e+002,-3.208588e+000
7.984333e+002,-2.526184e+000
7.993975e+002,-1.973700e+000
8.003618e+002,-1.412170e+000
8.013260e+002,-4.608215e-001
8.022902e+002,8.616089e-001
8.032545e+002,1.974377e+000
8.042187e+002,1.985168e+000
8.051829e+002,6.095154e-001
8.061472e+002,-1.267212e-001
8.071114e+002,6.036377e-003
8.080756e+002,3.084412e-001
8.090399e+002,2.732483e-001
8.100041e+002,4.672851e-002
8.109683e+002,5.946472e-001
8.119326e+002,3.185376e+000
8.128968e+002,5.198938e+000
8.138610e+002,5.191156e+000
8.148253e+002,4.303082e+000
8.157895e+002,4.017114e+000
8.167537e+002,5.050372e+000
8.177180e+002,6.596271e+000
8.186822e+002,7.032721e+000
8.196464e+002,6.863489e+000
8.206107e+002,7.248077e+000
8.215749e+002,8.459290e+000
8.225391e+002,9.963715e+000
8.235034e+002,1.097296e+001
8.244676e+002,1.148293e+001
8.254318e+002,1.133285e+001
8.263961e+002,1.008590e+001
8.273603e+002,8.999231e+000
8.283245e+002,8.718677e+000
8.292888e+002,9.074384e+000
8.302530e+002,9.321075e+000
8.312172e+002,8.981054e+000
8.321815e+002,8.688983e+000
8.331457e+002,9.395307e+000
8.341099e+002,1.028110e+001
8.350742e+002,9.937353e+000
8.360384e+002,7.802954e+000
8.370026e+002,5.041150e+000
8.379669e+002,4.551215e+000
8.389311e+002,6.443658e+000
8.398953e+002,7.409430e+000
8.408596e+002,6.985071e+000
8.418238e+002,5.743170e+000
8.427880e+002,4.064618e+000
8.437523e+002,1.670978e+000
8.447165e+002,3.837891e-001
8.456807e+002,1.789233e+000
8.466450e+002,2.820593e+000
8.476092e+002,2.078656e+000
8.485734e+002,1.084900e-001
8.495377e+002,-1.821332e+000
8.505019e+002,-3.077814e+000
8.514661e+002,-3.550000e+000
8.524304e+002,-2.649127e+000
8.533946e+002,-1.127667e+000
8.543588e+002,-2.319214e-001
8.553231e+002,-4.220825e-001
8.562873e+002,-1.182715e+000
8.572515e+002,-1.368744e+000
8.582158e+002,-7.180481e-001
8.591800e+002,-2.651795e-001
8.601442e+002,3.311340e-001
8.611085e+002,3.745117e-001
8.620727e+002,-9.672669e-001
8.630369e+002,-3.515247e+000
8.640012e+002,-5.370715e+000
8.649654e+002,-5.658679e+000
8.659296e+002,-5.375318e+000
8.668939e+002,-4.868945e+000
8.678581e+002,-4.139722e+000
8.688223e+002,-2.948132e+000
8.697866e+002,-1.240027e+000
8.707508e+002,4.498108e-001
8.717150e+002,6.859070e-001
8.726793e+002,-1.531860e-001
8.736435e+002,-9.854126e-002
8.746077e+002,1.400372e+000
8.755720e+002,3.136237e+000
8.765362e+002,3.475915e+000
8.775004e+002,2.077033e+000
8.784647e+002,7.483215e-001
8.794289e+002,-9.505737e-001
8.803931e+002,-2.080926e+000
8.813574e+002,-1.887366e+000
8.823216e+002,-9.922668e-001
8.832858e+002,-6.777710e-001
8.842501e+002,-1.625372e+000
8.852143e+002,-2.716327e+000
8.861785e+002,-2.760022e+000
8.871428e+002,-2.372211e+000
8.881070e+002,-2.215839e+000
8.890712e+002,-2.477765e+000
8.900355e+002,-2.943036e+000
8.909997e+002,-3.279407e+000
8.919639e+002,-3.483356e+000
8.929282e+002,-3.254443e+000
8.938924e+002,-1.999200e+000
8.948566e+002,-1.142554e+000
8.958209e+002,-1.678900e+000
8.967851e+002,-3.258606e+000
8.977493e+002,-4.401239e+000
8.987136e+002,-4.685584e+000
8.996778e+002,-4.732745e+000
9.006420e+002,-4.708880e+000
9.016063e+002,-4.627478e+000
9.025705e+002,-4.367364e+000
9.035347e+002,-3.957867e+000
9.044990e+002,-3.736084e+000
9.054632e+002,-4.309119e+000
9.064274e+002,-5.438898e+000
9.073917e+002,-5.897461e+000
9.083559e+002,-5.617914e+000
9.093201e+002,-5.070136e+000
9.102844e+002,-4.581671e+000
9.112486e+002,-4.158576e+000
9.122128e+002,-3.750427e+000
9.131771e+002,-3.125995e+000
9.141413e+002,-2.857172e+000
9.151055e+002,-3.067767e+000
9.160698e+002,-3.577936e+000
9.170340e+002,-4.498383e+000
9.179982e+002,-5.804266e+000
9.189625e+002,-6.598297e+000
9.199267e+002,-5.799866e+000
9.208909e+002,-4.307983e+000
9.218552e+002,-2.488873e+000
9.228194e+002,-7.264954e-001
9.237836e+002,3.298950e-002
9.247479e+002,-9.821411e-001
9.257121e+002,-3.359857e+000
9.266763e+002,-4.667932e+000
9.276406e+002,-4.538361e+000
9.286048e+002,-4.125628e+000
9.295690e+002,-3.051465e+000
9.305333e+002,-2.034735e+000
9.314975e+002,-2.117401e+000
9.324617e+002,-3.523669e+000
9.334260e+002,-4.523407e+000
9.343902e+002,-4.044330e+000
9.353545e+002,-3.259375e+000
9.363187e+002,-2.023346e+000
9.372830e+002,-9.764587e-001
9.382472e+002,-1.482709e+000
9.392114e+002,-4.305829e+000
9.401757e+002,-7.788019e+000
9.411399e+002,-7.584723e+000
9.421041e+002,-4.306567e+000
9.430684e+002,-1.527075e+000
9.440326e+002,2.001587e-001
9.449968e+002,9.836304e-001
9.459611e+002,7.402344e-001
9.469253e+002,-7.253052e-001
9.478895e+002,-1.501514e+000
9.488538e+002,-1.022113e+000
9.498180e+002,-3.913757e-001
9.507822e+002,2.781433e-001
9.517465e+002,8.116394e-001
9.527107e+002,9.826538e-001
9.536749e+002,7.115113e-001
9.546392e+002,3.679748e-001
9.556034e+002,-2.069702e-002
9.565676e+002,-5.211792e-002
9.575319e+002,1.413367e+000
9.584961e+002,4.286047e+000
9.594603e+002,6.780005e+000
9.604246e+002,6.895307e+000
9.613888e+002,4.589770e+000
9.623530e+002,3.316388e+000
9.633173e+002,3.457684e+000
9.642815e+002,4.064527e+000
9.652457e+002,5.028790e+000
9.662100e+002,6.510388e+000
9.671742e+002,8.595380e+000
9.681384e+002,1.125854e+001
9.691027e+002,1.458746e+001
9.700669e+002,1.314515e+001
9.710311e+002,1.751387e+001
9.719954e+002,3.907948e+001
9.729596e+002,7.246194e+001
9.739238e+002,1.077545e+002
9.748881e+002,1.376910e+002
9.758523e+002,1.574891e+002
9.768165e+002,1.476998e+002
9.777808e+002,1.008944e+002
9.787450e+002,6.360619e+001
9.797092e+002,4.233644e+001
9.806735e+002,3.052871e+001
9.816377e+002,2.356226e+001
9.826019e+002,2.155670e+001
9.835662e+002,2.016696e+001
9.845304e+002,1.852510e+001
9.854946e+002,1.727428e+001
9.864589e+002,1.666751e+001
9.874231e+002,1.657068e+001
9.883873e+002,1.685885e+001
9.893516e+002,1.740245e+001
9.903158e+002,1.792841e+001
9.912800e+002,1.789642e+001
9.922443e+002,1.782405e+001
9.932085e+002,1.919374e+001
9.941727e+002,2.208319e+001
9.951370e+002,2.635605e+001
9.961012e+002,3.144515e+001
9.970654e+002,3.744751e+001
9.980297e+002,4.511986e+001
9.989939e+002,4.248934e+001
9.999581e+002,6.434982e+001
1.000922e+003,1.058330e+002
1.001887e+003,1.770854e+002
1.002851e+003,3.250680e+002
1.003815e+003,5.233557e+002
1.004779e+003,6.527615e+002
1.005744e+003,6.169356e+002
1.006708e+003,4.875261e+002
1.007672e+003,3.608847e+002
1.008636e+003,2.429875e+002
1.009600e+003,1.535739e+002
1.010565e+003,1.015273e+002
1.011529e+003,7.616050e+001
1.012493e+003,5.781111e+001
1.013457e+003,4.841307e+001
1.014422e+003,4.071619e+001
1.015386e+003,3.421907e+001
1.016350e+003,2.952770e+001
1.017314e+003,2.778632e+001
1.018279e+003,2.768212e+001
1.019243e+003,2.672291e+001
1.020207e+003,2.396958e+001
1.021171e+003,2.109620e+001
1.022135e+003,1.928951e+001
1.023100e+003,1.822261e+001
1.024064e+003,1.800935e+001
1.025028e+003,1.834864e+001
1.025992e+003,1.837853e+001
1.026957e+003,1.732765e+001
1.027921e+003,1.550259e+001
1.028885e+003,1.472234e+001
1.029849e+003,1.562499e+001
1.030814e+003,1.612019e+001
1.031778e+003,1.549394e+001
1.032742e+003,1.460615e+001
1.033706e+003,1.429123e+001
1.034671e+003,1.465226e+001
1.035635e+003,1.545732e+001
1.036599e+003,1.724043e+001
1.037563e+003,1.862367e+001
1.038527e+003,1.851766e+001
1.039492e+003,1.772333e+001
1.040456e+003,1.731656e+001
1.041420e+003,1.768691e+001
1.042384e+003,1.833074e+001
1.043349e+003,1.847662e+001
1.044313e+003,1.813165e+001
1.045277e+003,1.837941e+001
1.046241e+003,1.968536e+001
1.047206e+003,2.020614e+001
1.048170e+003,1.829929e+001
1.049134e+003,1.514067e+001
1.050098e+003,1.373521e+001
1.051063e+003,1.488077e+001
1.052027e+003,1.616074e+001
1.052991e+003,1.653210e+001
1.053955e+003,1.688140e+001
1.054919e+003,1.784789e+001
1.055884e+003,1.919297e+001
1.056848e+003,2.047242e+001
1.057812e+003,2.145245e+001
1.058776e+003,2.187238e+001
1.059741e+003,2.051877e+001
1.060705e+003,1.772079e+001
1.061669e+003,1.679270e+001
1.062633e+003,1.870311e+001
1.063598e+003,2.081761e+001
1.064562e+003,2.052990e+001
1.065526e+003,1.809287e+001
1.066490e+003,1.647234e+001
1.067454e+003,1.605734e+001
1.068419e+003,1.620062e+001
1.069383e+003,1.684656e+001
1.070347e+003,1.771771e+001
1.071311e+003,1.897632e+001
1.072276e+003,2.037894e+001
1.073240e+003,2.103658e+001
1.074204e+003,2.008870e+001
1.075168e+003,1.846285e+001
1.076133e+003,1.829564e+001
1.077097e+003,1.926259e+001
1.078061e+003,2.052735e+001
1.079025e+003,2.196444e+001
1.079990e+003,2.322966e+001
1.080954e+003,2.365183e+001
1.081918e+003,2.300368e+001
1.082882e+003,2.310817e+001
1.083846e+003,2.528048e+001
1.084811e+003,2.667964e+001
1.085775e+003,2.628596e+001
1.086739e+003,2.511727e+001
1.087703e+003,2.417131e+001
1.088668e+003,2.377908e+001
1.089632e+003,2.385535e+001
1.090596e+003,2.445632e+001
1.091560e+003,2.517505e+001
1.092525e+003,2.512465e+001
1.093489e+003,2.448127e+001
1.094453e+003,2.408821e+001
1.095417e+003,2.436381e+001
1.096381e+003,2.506890e+001
1.097346e+003,2.568265e+001
1.098310e+003,2.611717e+001
1.099274e+003,2.678026e+001
1.100238e+003,2.821277e+001
1.101203e+003,2.929040e+001
1.102167e+003,2.967169e+001
1.103131e+003,2.944372e+001
1.104095e+003,2.852441e+001
1.105060e+003,2.694572e+001
1.106024e+003,2.545777e+001
1.106988e+003,2.444231e+001
1.107952e+003,2.442815e+001
1.108917e+003,2.669324e+001
1.109881e+003,3.053688e+001
1.110845e+003,3.316059e+001
1.111809e+003,3.297604e+001
1.112773e+003,3.099443e+001
1.113738e+003,2.950225e+001
1.114702e+003,2.843184e+001
1.115666e+003,2.843462e+001
1.116630e+003,3.044189e+001
1.117595e+003,3.206245e+001
1.118559e+003,3.231172e+001
1.119523e+003,3.175367e+001
1.120487e+003,3.106154e+001
1.121452e+003,3.047788e+001
1.122416e+003,3.069125e+001
1.123380e+003,3.320395e+001
1.124344e+003,3.592017e+001
1.125308e+003,3.556279e+001
1.126273e+003,3.288556e+001
1.127237e+003,3.078007e+001
1.128201e+003,3.080590e+001
1.129165e+003,3.230382e+001
1.130130e+003,3.390452e+001
1.131094e+003,3.607238e+001
1.132058e+003,3.655031e+001
1.133022e+003,3.393069e+001
1.133987e+003,3.173853e+001
1.134951e+003,3.133760e+001
1.135915e+003,3.203693e+001
1.136879e+003,3.284636e+001
1.137844e+003,3.348111e+001
1.138808e+003,3.395463e+001
1.139772e+003,3.409683e+001
1.140736e+003,3.406347e+001
1.141700e+003,3.432563e+001
1.142665e+003,3.478801e+001
1.143629e+003,3.490940e+001
1.144593e+003,3.440911e+001
1.145557e+003,3.384846e+001
1.146522e+003,3.437033e+001
1.147486e+003,3.633889e+001
1.148450e+003,3.733086e+001
1.149414e+003,3.660775e+001
1.150379e+003,3.618409e+001
1.151343e+003,3.711398e+001
1.152307e+003,3.832745e+001
1.153271e+003,3.804482e+001
1.154235e+003,3.608205e+001
1.155200e+003,3.474443e+001
1.156164e+003,3.605843e+001
1.157128e+003,3.864139e+001
1.158092e+003,4.089200e+001
1.159057e+003,4.255614e+001
1.160021e+003,4.254316e+001
1.160985e+003,4.035735e+001
1.161949e+003,3.790034e+001
1.162914e+003,3.831733e+001
1.163878e+003,4.211185e+001
1.164842e+003,4.429855e+001
1.165806e+003,4.301868e+001
1.166771e+003,4.233675e+001
1.167735e+003,4.323775e+001
1.168699e+003,4.457806e+001
1.169663e+003,4.544293e+001
1.170627e+003,4.568605e+001
1.171592e+003,4.546073e+001
1.172556e+003,4.475190e+001
1.173520e+003,4.398548e+001
1.174484e+003,4.357146e+001
1.175449e+003,4.353801e+001
1.176413e+003,4.429277e+001
1.177377e+003,4.591264e+001
1.178341e+003,4.736633e+001
1.179306e+003,4.746576e+001
1.180270e+003,4.642445e+001
1.181234e+003,4.642672e+001
1.182198e+003,4.851646e+001
1.183162e+003,4.967832e+001
1.184127e+003,4.871636e+001
1.185091e+003,4.772607e+001
1.186055e+003,4.830668e+001
1.187019e+003,4.997541e+001
1.187984e+003,5.112676e+001
1.188948e+003,5.097256e+001
1.189912e+003,5.059800e+001
1.190876e+003,5.160610e+001
1.191841e+003,5.340364e+001
1.192805e+003,5.466144e+001
1.193769e+003,5.531515e+001
1.194733e+003,5.498613e+001
1.195698e+003,5.296409e+001
1.196662e+003,5.013538e+001
1.197626e+003,4.896047e+001
1.198590e+003,4.987545e+001
1.199554e+003,5.076014e+001
1.200519e+003,5.160247e+001
1.201483e+003,5.226035e+001
1.202447e+003,5.218081e+001
1.203411e+003,5.214421e+001
1.204376e+003,5.334408e+001
1.205340e+003,5.577528e+001
1.206304e+003,5.802269e+001
1.207268e+003,5.898333e+001
1.208233e+003,5.899603e+001
1.209197e+003,5.818533e+001
1.210161e+003,5.661515e+001
1.211125e+003,5.595763e+001
1.212089e+003,5.691026e+001
1.213054e+003,5.827385e+001
1.214018e+003,5.899207e+001
1.214982e+003,5.919723e+001
1.215946e+003,5.883455e+001
1.216911e+003,5.678693e+001
1.217875e+003,5.611254e+001
1.218839e+003,5.915624e+001
1.219803e+003,6.221122e+001
1.220768e+003,6.233091e+001
1.221732e+003,6.022440e+001
1.222696e+003,5.809590e+001
1.223660e+003,5.722803e+001
1.224625e+003,5.762690e+001
1.225589e+003,5.961464e+001
1.226553e+003,6.312177e+001
1.227517e+003,6.453556e+001
1.228481e+003,6.286902e+001
1.229446e+003,6.186627e+001
1.230410e+003,6.410048e+001
1.231374e+003,6.753542e+001
1.232338e+003,6.858219e+001
1.233303e+003,6.693585e+001
1.234267e+003,6.560873e+001
1.235231e+003,6.588863e+001
1.236195e+003,6.628487e+001
1.237160e+003,6.578825e+001
1.238124e+003,6.492430e+001
1.239088e+003,6.441286e+001
1.240052e+003,6.441856e+001
1.241016e+003,6.464763e+001
1.241981e+003,6.480379e+001
1.242945e+003,6.488082e+001
1.243909e+003,6.490398e+001
1.244873e+003,6.495872e+001
1.245838e+003,6.487272e+001
1.246802e+003,6.410234e+001
1.247766e+003,6.372445e+001
1.248730e+003,6.459453e+001
1.249695e+003,6.623286e+001
1.250659e+003,6.772984e+001
1.251623e+003,6.893015e+001
1.252587e+003,6.943601e+001
1.253552e+003,6.807475e+001
1.254516e+003,6.673291e+001
1.255480e+003,6.750321e+001
1.256444e+003,6.974453e+001
1.257408e+003,7.206740e+001
1.258373e+003,7.389648e+001
1.259337e+003,7.507129e+001
1.260301e+003,7.527757e+001
1.261265e+003,7.455754e+001
1.262230e+003,7.420815e+001
1.263194e+003,7.418398e+001
1.264158e+003,7.427431e+001
1.265122e+003,7.476344e+001
1.266087e+003,7.514105e+001
1.267051e+003,7.501077e+001
1.268015e+003,7.457149e+001
1.268979e+003,7.426876e+001
1.269943e+003,7.426113e+001
1.270908e+003,7.441465e+001
1.271872e+003,7.453993e+001
1.272836e+003,7.477751e+001
1.273800e+003,7.549580e+001
1.274765e+003,7.666793e+001
1.275729e+003,7.784113e+001
1.276693e+003,7.892303e+001
1.277657e+003,7.966457e+001
1.278622e+003,7.942332e+001
1.279586e+003,7.806499e+001
1.280550e+003,7.736465e+001
1.281514e+003,7.823274e+001
1.282479e+003,7.894163e+001
1.283443e+003,7.866695e+001
1.284407e+003,7.829617e+001
1.285371e+003,7.842987e+001
1.286335e+003,7.899660e+001
1.287300e+003,7.978387e+001
1.288264e+003,8.071458e+001
1.289228e+003,8.157155e+001
1.290192e+003,8.192412e+001
1.291157e+003,8.175331e+001
1.292121e+003,8.116020e+001
1.293085e+003,7.940404e+001
1.294049e+003,7.895567e+001
1.295014e+003,8.200320e+001
1.295978e+003,8.599436e+001
1.296942e+003,8.767543e+001
1.297906e+003,8.722231e+001
1.298870e+003,8.736194e+001
1.299835e+003,8.931068e+001
1.300799e+003,9.053204e+001
1.301763e+003,8.862793e+001
1.302727e+003,8.583832e+001
1.303692e+003,8.393640e+001
1.304656e+003,8.328093e+001
1.305620e+003,8.379714e+001
1.306584e+003,8.536595e+001
1.307549e+003,8.754036e+001
1.308513e+003,8.955013e+001
1.309477e+003,9.136741e+001
1.310441e+003,9.273541e+001
1.311406e+003,9.374577e+001
1.312370e+003,9.438125e+001
1.313334e+003,9.464789e+001
1.314298e+003,9.455740e+001
1.315263e+003,9.400824e+001
1.316227e+003,9.311013e+001
1.317191e+003,9.188522e+001
1.318155e+003,9.022003e+001
1.319120e+003,8.942467e+001
1.320084e+003,9.177953e+001
1.321048e+003,9.550535e+001
1.322012e+003,9.644027e+001
1.322976e+003,9.472129e+001
1.323941e+003,9.334520e+001
1.324905e+003,9.388361e+001
1.325869e+003,9.516172e+001
1.326833e+003,9.514360e+001
1.327798e+003,9.381162e+001
1.328762e+003,9.364882e+001
1.329726e+003,9.559123e+001
1.330690e+003,9.721810e+001
1.331655e+003,9.759308e+001
1.332619e+003,9.777834e+001
1.333583e+003,9.853165e+001
1.334547e+003,9.963888e+001
1.335511e+003,1.006024e+002
1.336476e+003,1.011743e+002
1.337440e+003,1.014914e+002
1.338404e+003,1.018249e+002
1.339368e+003,1.020335e+002
1.340333e+003,1.002231e+002
1.341297e+003,9.481248e+001
1.342261e+003,9.199680e+001
1.343225e+003,9.436108e+001
1.344190e+003,9.758213e+001
1.345154e+003,9.848899e+001
1.346118e+003,9.804622e+001
1.347082e+003,9.905764e+001
1.348047e+003,1.022170e+002
1.349011e+003,1.046238e+002
1.349975e+003,1.042064e+002
1.350939e+003,1.026783e+002
1.351903e+003,1.015648e+002
1.352868e+003,1.009012e+002
1.353832e+003,1.009562e+002
1.354796e+003,1.017588e+002
1.355760e+003,1.025536e+002
1.356725e+003,1.024740e+002
1.357689e+003,1.019100e+002
1.358653e+003,1.027936e+002
1.359617e+003,1.060314e+002
1.360582e+003,1.080904e+002
1.361546e+003,1.080891e+002
1.362510e+003,1.075423e+002
1.363474e+003,1.064450e+002
1.364438e+003,1.055850e+002
1.365403e+003,1.057187e+002
1.366367e+003,1.067020e+002
1.367331e+003,1.078691e+002
1.368295e+003,1.088261e+002
1.369260e+003,1.093812e+002
1.370224e+003,1.090508e+002
1.371188e+003,1.080690e+002
1.372152e+003,1.087177e+002
1.373117e+003,1.113246e+002
1.374081e+003,1.138883e+002
1.375045e+003,1.163935e+002
1.376009e+003,1.180615e+002
1.376974e+003,1.176843e+002
1.377938e+003,1.156355e+002
1.378902e+003,1.136013e+002
1.379866e+003,1.116771e+002
1.380830e+003,1.106779e+002
1.381795e+003,1.118135e+002
1.382759e+003,1.137203e+002
1.383723e+003,1.155927e+002
1.384687e+003,1.172760e+002
1.385652e+003,1.184072e+002
1.386616e+003,1.188466e+002
1.387580e+003,1.191231e+002
1.388544e+003,1.201033e+002
1.389509e+003,1.214425e+002
1.390473e+003,1.200948e+002
1.391437e+003,1.136783e+002
1.392401e+003,1.103699e+002
1.393365e+003,1.126392e+002
1.394330e+003,1.154006e+002
1.395294e+003,1.167903e+002
1.396258e+003,1.172377e+002
1.397222e+003,1.174991e+002
1.398187e+003,1.179207e+002
1.399151e+003,1.185981e+002
1.400115e+003,1.194887e+002
1.401079e+003,1.202175e+002
1.402044e+003,1.201663e+002
1.403008e+003,1.193400e+002
1.403972e+003,1.189240e+002
1.404936e+003,1.189070e+002
1.405901e+003,1.195438e+002
1.406865e+003,1.215615e+002
1.407829e+003,1.236368e+002
1.408793e+003,1.238519e+002
1.409757e+003,1.228665e+002
1.410722e+003,1.239300e+002
1.411686e+003,1.282679e+002
1.412650e+003,1.318299e+002
1.413614e+003,1.315435e+002
1.414579e+003,1.295514e+002
1.415543e+003,1.275482e+002
1.416507e+003,1.259562e+002
1.417471e+003,1.258438e+002
1.418436e+003,1.274480e+002
1.419400e+003,1.290102e+002
1.420364e+003,1.286455e+002
1.421328e+003,1.271194e+002
1.422292e+003,1.274337e+002
1.423257e+003,1.301104e+002
1.424221e+003,1.322169e+002
1.425185e+003,1.332979e+002
1.426149e+003,1.335769e+002
1.427114e+003,1.324750e+002
1.428078e+003,1.315099e+002
1.429042e+003,1.318614e+002
1.430006e+003,1.334422e+002
1.430971e+003,1.360167e+002
1.431935e+003,1.393121e+002
1.432899e+003,1.419174e+002
1.433863e+003,1.417112e+002
1.434828e+003,1.390537e+002
1.435792e+003,1.375009e+002
1.436756e+003,1.370502e+002
1.437720e+003,1.370230e+002
1.438684e+003,1.384877e+002
1.439649e+003,1.395165e+002
1.440613e+003,1.382092e+002
1.441577e+003,1.361057e+002
1.442541e+003,1.360204e+002
1.443506e+003,1.380876e+002
1.444470e+003,1.397713e+002
1.445434e+003,1.397422e+002
1.446398e+003,1.389031e+002
1.447363e+003,1.377520e+002
1.448327e+003,1.367166e+002
1.449291e+003,1.374484e+002
1.450255e+003,1.401679e+002
1.451219e+003,1.424549e+002
1.452184e+003,1.427225e+002
1.453148e+003,1.423890e+002
1.454112e+003,1.429726e+002
1.455076e+003,1.444933e+002
1.456041e+003,1.477563e+002
1.457005e+003,1.540094e+002
1.457969e+003,1.582275e+002
1.458933e+003,1.567763e+002
1.459898e+003,1.540868e+002
1.460862e+003,1.525013e+002
1.461826e+003,1.515769e+002
1.462790e+003,1.499599e+002
1.463755e+003,1.478455e+002
1.464719e+003,1.477800e+002
1.465683e+003,1.518237e+002
1.466647e+003,1.577066e+002
1.467611e+003,1.600329e+002
1.468576e+003,1.582343e+002
1.469540e+003,1.565262e+002
1.470504e+003,1.543646e+002
1.471468e+003,1.534479e+002
1.472433e+003,1.543399e+002
1.473397e+003,1.560559e+002
1.474361e+003,1.592218e+002
1.475325e+003,1.622940e+002
1.476290e+003,1.624958e+002
1.477254e+003,1.595822e+002
1.478218e+003,1.563168e+002
1.479182e+003,1.549480e+002
1.480146e+003,1.551974e+002
1.481111e+003,1.565041e+002
1.482075e+003,1.590124e+002
1.483039e+003,1.600397e+002
1.484003e+003,1.583892e+002
1.484968e+003,1.573564e+002
1.485932e+003,1.583385e+002
1.486896e+003,1.598588e+002
1.487860e+003,1.608145e+002
1.488825e+003,1.610443e+002
1.489789e+003,1.603741e+002
1.490753e+003,1.588909e+002
1.491717e+003,1.577444e+002
1.492682e+003,1.576362e+002
1.493646e+003,1.583200e+002
1.494610e+003,1.601550e+002
1.495574e+003,1.624329e+002
1.496538e+003,1.624458e+002
1.497503e+003,1.595667e+002
1.498467e+003,1.574700e+002
1.499431e+003,1.586288e+002
1.500395e+003,1.608974e+002
1.501360e+003,1.616910e+002
1.502324e+003,1.613839e+002
1.503288e+003,1.612425e+002
1.504252e+003,1.613261e+002
1.505217e+003,1.615145e+002
1.506181e+003,1.619098e+002
1.507145e+003,1.623150e+002
1.508109e+003,1.625072e+002
1.509073e+003,1.626847e+002
1.510038e+003,1.634072e+002
1.511002e+003,1.645655e+002
1.511966e+003,1.648788e+002
1.512930e+003,1.634512e+002
1.513895e+003,1.614418e+002
1.514859e+003,1.608863e+002
1.515823e+003,1.616230e+002
1.516787e+003,1.613662e+002
1.517752e+003,1.598060e+002
1.518716e+003,1.584930e+002
1.519680e+003,1.579824e+002
1.520644e+003,1.572756e+002
1.521609e+003,1.556468e+002
1.522573e+003,1.537668e+002
1.523537e+003,1.522104e+002
1.524501e+003,1.514188e+002
1.525465e+003,1.522387e+002
1.526430e+003,1.549350e+002
1.527394e+003,1.575646e+002
1.528358e+003,1.570804e+002
1.529322e+003,1.537545e+002
1.530287e+003,1.523604e+002
1.531251e+003,1.548652e+002
1.532215e+003,1.556816e+002
1.533179e+003,1.525351e+002
1.534144e+003,1.503575e+002
1.535108e+003,1.519656e+002
1.536072e+003,1.547353e+002
1.537036e+003,1.561803e+002
1.538000e+003,1.560677e+002
1.538965e+003,1.550414e+002
1.539929e+003,1.533985e+002
1.540893e+003,1.511056e+002
1.541857e+003,1.480510e+002
1.542822e+003,1.449188e+002
1.543786e+003,1.441261e+002
1.544750e+003,1.466032e+002
1.545714e+003,1.478878e+002
1.546679e+003,1.475674e+002
1.547643e+003,1.465235e+002
1.548607e+003,1.443764e+002
1.549571e+003,1.424134e+002
1.550536e+003,1.418090e+002
1.551500e+003,1.421969e+002
1.552464e+003,1.429370e+002
1.553428e+003,1.438492e+002
1.554392e+003,1.440618e+002
1.555357e+003,1.425756e+002
1.556321e+003,1.402782e+002
1.557285e+003,1.388376e+002
1.558249e+003,1.384542e+002
1.559214e+003,1.402299e+002
1.560178e+003,1.459775e+002
1.561142e+003,1.488533e+002
1.562106e+003,1.443852e+002
1.563071e+003,1.380236e+002
1.564035e+003,1.342260e+002
1.564999e+003,1.325802e+002
1.565963e+003,1.316751e+002
1.566927e+003,1.311648e+002
1.567892e+003,1.306957e+002
1.568856e+003,1.299968e+002
1.569820e+003,1.296582e+002
1.570784e+003,1.312473e+002
1.571749e+003,1.332627e+002
1.572713e+003,1.313470e+002
1.573677e+003,1.257183e+002
1.574641e+003,1.224939e+002
1.575606e+003,1.244032e+002
1.576570e+003,1.272542e+002
1.577534e+003,1.284762e+002
1.578498e+003,1.282019e+002
1.579463e+003,1.259299e+002
1.580427e+003,1.218671e+002
1.581391e+003,1.190927e+002
1.582355e+003,1.187246e+002
1.583319e+003,1.187808e+002
1.584284e+003,1.179950e+002
1.585248e+003,1.171224e+002
1.586212e+003,1.172095e+002
1.587176e+003,1.175686e+002
1.588141e+003,1.166961e+002
1.589105e+003,1.144256e+002
1.590069e+003,1.119300e+002
1.591033e+003,1.096221e+002
1.591998e+003,1.076914e+002
1.592962e+003,1.062882e+002
1.593926e+003,1.054840e+002
1.594890e+003,1.062684e+002
1.595854e+003,1.093316e+002
1.596819e+003,1.105446e+002
1.597783e+003,1.074053e+002
1.598747e+003,1.032297e+002
1.599711e+003,9.981466e+001
1.600676e+003,9.724847e+001
1.601640e+003,9.599314e+001
1.602604e+003,9.591553e+001
1.603568e+003,9.645538e+001
1.604533e+003,9.744468e+001
1.605497e+003,9.754649e+001
1.606461e+003,9.477547e+001
1.607425e+003,9.048415e+001
1.608390e+003,8.868091e+001
1.609354e+003,8.953142e+001
1.610318e+003,8.965331e+001
1.611282e+003,8.791542e+001
1.612246e+003,8.650902e+001
1.613211e+003,8.719155e+001
1.614175e+003,8.782747e+001
1.615139e+003,8.718158e+001
1.616103e+003,8.555415e+001
1.617068e+003,8.292263e+001
1.618032e+003,7.963905e+001
1.618996e+003,7.739900e+001
1.619960e+003,7.718723e+001
1.620925e+003,7.786186e+001
1.621889e+003,7.823274e+001
1.622853e+003,7.825053e+001
1.623817e+003,7.713947e+001
1.624781e+003,7.464354e+001
1.625746e+003,7.324359e+001
1.626710e+003,7.474724e+001
1.627674e+003,7.494991e+001
1.628638e+003,6.981870e+001
1.629603e+003,6.424379e+001
1.630567e+003,6.260273e+001
1.631531e+003,6.375348e+001
1.632495e+003,6.508049e+001
1.633460e+003,6.575226e+001
1.634424e+003,6.530106e+001
1.635388e+003,6.317709e+001
1.636352e+003,6.022024e+001
1.637317e+003,5.783410e+001
1.638281e+003,5.600133e+001
1.639245e+003,5.476487e+001
1.640209e+003,5.419804e+001
1.641173e+003,5.389857e+001
1.642138e+003,5.441622e+001
1.643102e+003,5.437585e+001
1.644066e+003,5.235111e+001
1.645030e+003,5.005713e+001
1.645995e+003,4.931195e+001
1.646959e+003,4.971992e+001
1.647923e+003,4.992133e+001
1.648887e+003,4.949216e+001
1.649852e+003,4.895650e+001
1.650816e+003,4.886996e+001
1.651780e+003,4.866460e+001
1.652744e+003,4.656112e+001
1.653708e+003,4.268911e+001
1.654673e+003,4.173109e+001
1.655637e+003,4.523123e+001
1.656601e+003,4.679813e+001
1.657565e+003,4.291925e+001
1.658530e+003,3.893162e+001
1.659494e+003,3.791605e+001
1.660458e+003,3.816740e+001
1.661422e+003,3.797462e+001
1.662387e+003,3.735121e+001
1.663351e+003,3.705508e+001
1.664315e+003,3.733033e+001
1.665279e+003,3.753274e+001
1.666244e+003,3.719516e+001
1.667208e+003,3.636363e+001
1.668172e+003,3.485245e+001
1.669136e+003,3.271059e+001
1.670100e+003,3.110098e+001
1.671065e+003,3.011464e+001
1.672029e+003,2.963812e+001
1.672993e+003,3.012021e+001
1.673957e+003,3.056800e+001
1.674922e+003,3.039474e+001
1.675886e+003,2.973737e+001
1.676850e+003,2.856135e+001
1.677814e+003,2.705101e+001
1.678779e+003,2.570349e+001
1.679743e+003,2.467529e+001
1.680707e+003,2.389215e+001
1.681671e+003,2.340198e+001
1.682635e+003,2.295825e+001
1.683600e+003,2.191321e+001
1.684564e+003,2.049910e+001
1.685528e+003,2.009330e+001
1.686492e+003,2.087789e+001
1.687457e+003,2.176284e+001
1.688421e+003,2.256102e+001
1.689385e+003,2.313323e+001
1.690349e+003,2.351256e+001
1.691314e+003,2.358016e+001
1.692278e+003,2.292332e+001
1.693242e+003,2.169319e+001
1.694206e+003,2.056705e+001
1.695171e+003,1.970060e+001
1.696135e+003,1.904167e+001
1.697099e+003,1.868977e+001
1.698063e+003,1.838409e+001
1.699027e+003,1.769409e+001
1.699992e+003,1.682612e+001
1.700956e+003,1.633383e+001
1.701920e+003,1.625239e+001
1.702884e+003,1.651159e+001
1.703849e+003,1.731396e+001
1.704813e+003,1.748846e+001
1.705777e+003,1.567014e+001
1.706741e+003,1.317053e+001
1.707706e+003,1.244123e+001
1.708670e+003,1.295826e+001
1.709634e+003,1.241807e+001
1.710598e+003,1.028390e+001
1.711563e+003,8.622278e+000
1.712527e+003,8.568957e+000
1.713491e+003,9.010462e+000
1.714455e+003,9.066223e+000
1.715419e+003,9.024908e+000
1.716384e+003,9.627393e+000
1.717348e+003,1.066785e+001
1.718312e+003,1.086431e+001
1.719276e+003,9.808283e+000
1.720241e+003,8.196912e+000
1.721205e+003,6.281787e+000
1.722169e+003,4.802008e+000
1.723133e+003,5.263864e+000
1.724098e+003,7.371216e+000
1.725062e+003,8.372686e+000
1.726026e+003,8.036036e+000
1.726990e+003,7.477191e+000
1.727954e+003,6.554266e+000
1.728919e+003,5.841736e+000
1.729883e+003,5.835666e+000
1.730847e+003,5.981040e+000
1.731811e+003,5.466357e+000
1.732776e+003,4.712982e+000
1.733740e+003,5.104660e+000
1.734704e+003,6.602759e+000
1.735668e+003,7.068671e+000
1.736633e+003,5.262301e+000
1.737597e+003,2.986694e+000
1.738561e+003,2.622617e+000
1.739525e+003,3.890405e+000
1.740490e+003,5.443128e+000
1.741454e+003,7.790735e+000
1.742418e+003,8.355456e+000
1.743382e+003,5.425757e+000
1.744346e+003,3.377090e+000
1.745311e+003,3.837027e+000
1.746275e+003,4.298413e+000
1.747239e+003,3.024228e+000
1.748203e+003,1.119000e+000
1.749168e+003,-8.910217e-002
1.750132e+003,-4.768707e-001
1.751096e+003,-5.716431e-001
1.752060e+003,-5.423767e-001
1.753025e+003,2.855926e-001
1.753989e+003,2.648614e+000
1.754953e+003,5.309171e+000
1.755917e+003,5.159958e+000
1.756881e+003,2.127795e+000
1.757846e+003,3.228638e-001
1.758810e+003,3.461304e-002
1.759774e+003,2.930786e-001
1.760738e+003,1.676608e+000
1.761703e+003,2.473007e+000
1.762667e+003,1.515619e+000
1.763631e+003,2.999634e-001
1.764595e+003,3.507385e-001
1.765560e+003,9.262756e-001
1.766524e+003,2.764252e-001
1.767488e+003,-1.647314e+000
1.768452e+003,-3.051724e+000
1.769417e+003,-2.942581e+000
1.770381e+003,-2.265555e+000
1.771345e+003,-2.010471e+000
1.772309e+003,-2.049850e+000
1.773273e+003,-2.036877e+000
1.774238e+003,-2.007434e+000
1.775202e+003,-2.288895e+000
1.776166e+003,-3.031097e+000
1.777130e+003,-3.037717e+000
1.778095e+003,-1.438950e+000
1.779059e+003,2.198608e-001
1.780023e+003,5.919739e-001
1.780987e+003,1.841675e-001
1.781952e+003,-2.426910e-001
1.782916e+003,-7.182739e-001
1.783880e+003,-1.242691e+000
1.784844e+003,-1.822458e+000
1.785808e+003,-2.202887e+000
1.786773e+003,-2.216888e+000
1.787737e+003,-2.068652e+000
1.788701e+003,-1.919965e+000
1.789665e+003,-1.729718e+000
1.790630e+003,-1.254840e+000
1.791594e+003,-6.740997e-001
1.792558e+003,-6.879608e-001
1.793522e+003,-1.423032e+000
1.794487e+003,-2.100806e+000
1.795451e+003,-2.214160e+000
1.796415e+003,-2.032919e+000
1.797379e+003,-1.937918e+000
1.798344e+003,-1.961520e+000
1.799308e+003,-2.172665e+000
1.800272e+003,-2.843112e+000
1.801236e+003,-2.739188e+000
1.802201e+003,-4.016510e-001
1.803165e+003,5.282410e-001
1.804129e+003,-2.278427e+000
1.805093e+003,-4.494702e+000
1.806057e+003,-3.110553e+000
1.807022e+003,-4.455292e-001
1.807986e+003,1.302628e+000
1.808950e+003,1.777441e+000
1.809914e+003,8.266052e-001
1.810879e+003,-1.246161e+000
1.811843e+003,-2.964612e+000
1.812807e+003,-3.227924e+000
1.813771e+003,-2.764914e+000
1.814736e+003,-2.639359e+000
1.815700e+003,-2.794690e+000
1.816664e+003,-3.095084e+000
1.817628e+003,-3.614148e+000
1.818593e+003,-3.592621e+000
1.819557e+003,-2.562393e+000
1.820521e+003,-2.012622e+000
1.821485e+003,-2.751617e+000
1.822449e+003,-3.808493e+000
1.823414e+003,-4.919101e+000
1.824378e+003,-5.709756e+000
1.825342e+003,-5.361819e+000
1.826306e+003,-4.160147e+000
1.827271e+003,-3.352271e+000
1.828235e+003,-3.234540e+000
1.829199e+003,-3.282513e+000
1.830163e+003,-3.087482e+000
1.831128e+003,-3.100223e+000
1.832092e+003,-4.081622e+000
1.833056e+003,-5.306659e+000
1.834020e+003,-5.540515e+000
1.834984e+003,-4.989563e+000
1.835949e+003,-4.539963e+000
1.836913e+003,-4.359833e+000
1.837877e+003,-4.167529e+000
1.838841e+003,-3.840600e+000
1.839806e+003,-3.244254e+000
1.840770e+003,-2.094760e+000
1.841734e+003,-9.010559e-001
1.842698e+003,-1.311993e+000
1.843663e+003,-3.610577e+000
1.844627e+003,-4.553916e+000
1.845591e+003,-3.079532e+000
1.846555e+003,-1.944357e+000
1.847520e+003,-1.244202e+000
1.848484e+003,-9.472839e-001
1.849448e+003,-1.371555e+000
1.850412e+003,-1.785306e+000
1.851376e+003,-1.361151e+000
1.852341e+003,-6.400482e-001
1.853305e+003,-7.308472e-001
1.854269e+003,-1.612326e+000
1.855233e+003,-2.192557e+000
1.856198e+003,-1.954996e+000
1.857162e+003,-1.669138e+000
1.858126e+003,-2.190515e+000
1.859090e+003,-2.992813e+000
1.860055e+003,-2.944290e+000
1.861019e+003,-2.246292e+000
1.861983e+003,-1.858054e+000
1.862947e+003,-1.811478e+000
1.863911e+003,-2.224951e+000
1.864876e+003,-3.284750e+000
1.865840e+003,-3.913715e+000
1.866804e+003,-3.290674e+000
1.867768e+003,-2.421350e+000
1.868733e+003,-2.614554e+000
1.869697e+003,-3.422476e+000
1.870661e+003,-3.332160e+000
1.871625e+003,-2.334900e+000
1.872590e+003,-2.016266e+000
1.873554e+003,-3.121091e+000
1.874518e+003,-3.688620e+000
1.875482e+003,-2.532639e+000
1.876447e+003,-1.442425e+000
1.877411e+003,-1.572800e+000
1.878375e+003,-2.261200e+000
1.879339e+003,-3.191537e+000
1.880303e+003,-3.907419e+000
1.881268e+003,-3.355212e+000
1.882232e+003,-1.659866e+000
1.883196e+003,-3.991577e-001
1.884160e+003,-3.915039e-001
1.885125e+003,-7.593628e-001
1.886089e+003,-5.193512e-001
1.887053e+003,-7.620239e-003
1.888017e+003,-2.516297e-001
1.888982e+003,-1.256735e+000
1.889946e+003,-1.358841e+000
1.890910e+003,-2.819885e-001
1.891874e+003,3.312927e-001
1.892839e+003,6.108093e-002
1.893803e+003,-5.112152e-001
1.894767e+003,-1.485825e+000
1.895731e+003,-2.169800e+000
1.896695e+003,-1.668427e+000
1.897660e+003,-6.261841e-001
1.898624e+003,2.691650e-002
1.899588e+003,2.266754e-001
1.900552e+003,-1.887116e-001
1.901517e+003,-1.546817e+000
1.902481e+003,-2.501709e+000
1.903445e+003,-2.243472e+000
1.904409e+003,-1.692380e+000
1.905374e+003,-1.395346e+000
1.906338e+003,-1.133585e+000
1.907302e+003,-4.432159e-001
1.908266e+003,2.553253e-001
1.909230e+003,-2.208740e-001
1.910195e+003,-1.650906e+000
1.911159e+003,-2.235684e+000
1.912123e+003,-1.213434e+000
1.913087e+003,2.770935e-001
1.914052e+003,1.171393e+000
1.915016e+003,1.390964e+000
1.915980e+003,6.574829e-001
1.916944e+003,-9.134308e-001
1.917909e+003,-1.826712e+000
1.918873e+003,-2.025540e+000
1.919837e+003,-1.731824e+000
1.920801e+003,-7.550476e-001
1.921766e+003,9.746704e-002
1.922730e+003,6.382660e-001
1.923694e+003,7.779694e-001
1.924658e+003,1.747131e-001
1.925622e+003,-6.195862e-001
1.926587e+003,-8.907868e-001
1.927551e+003,-7.738525e-001
1.928515e+003,-8.957642e-001
1.929479e+003,-1.367313e+000
1.930444e+003,-1.479309e+000
1.931408e+003,-6.843079e-001
1.932372e+003,-8.216552e-002
1.933336e+003,-4.090454e-001
1.934301e+003,-8.756622e-001
1.935265e+003,-7.819580e-001
1.936229e+003,-4.238892e-001
1.937193e+003,-3.278595e-001
1.938157e+003,-4.306244e-001
1.939122e+003,-2.382904e-001
1.940086e+003,2.885437e-001
1.941050e+003,4.950714e-001
1.942014e+003,-1.029663e-002
1.942979e+003,-6.463043e-001
1.943943e+003,-6.867340e-001
1.944907e+003,-2.798797e-001
1.945871e+003,3.124451e-001
1.946836e+003,1.073526e+000
1.947800e+003,8.999969e-001
1.948764e+003,-4.544464e-001
1.949728e+003,-9.317566e-001
1.950693e+003,5.251770e-002
1.951657e+003,1.341113e+000
1.952621e+003,2.854636e+000
1.953585e+003,3.612592e+000
1.954549e+003,2.094977e+000
1.955514e+003,-4.757538e-001
1.956478e+003,-1.334961e+000
1.957442e+003,-6.001343e-001
1.958406e+003,-1.125488e-001
1.959371e+003,6.489563e-002
1.960335e+003,1.236572e-002
1.961299e+003,-9.763092e-001
1.962263e+003,-1.145541e+000
1.963228e+003,1.086792e+000
1.964192e+003,3.241833e+000
1.965156e+003,3.256415e+000
1.966120e+003,2.403577e+000
1.967084e+003,2.439716e+000
1.968049e+003,3.209161e+000
1.969013e+003,3.661905e+000
1.969977e+003,3.523349e+000
1.970941e+003,3.284744e+000
1.971906e+003,3.247406e+000
1.972870e+003,3.116821e+000
1.973834e+003,2.585385e+000
1.974798e+003,1.785391e+000
1.975763e+003,7.003204e-001
1.976727e+003,-4.682373e-001
1.977691e+003,-1.101920e+000
1.978655e+003,-1.155865e+000
1.979620e+003,-4.875702e-001
1.980584e+003,9.085144e-001
1.981548e+003,1.874112e+000
1.982512e+003,1.737463e+000
1.983476e+003,1.501858e+000
1.984441e+003,2.288480e+000
1.985405e+003,3.481256e+000
1.986369e+003,3.562982e+000
1.987333e+003,2.592090e+000
1.988298e+003,2.205759e+000
1.989262e+003,2.776065e+000
1.990226e+003,2.648148e+000
1.991190e+003,9.982361e-001
1.992155e+003,1.301544e-001
1.993119e+003,1.657031e+000
1.994083e+003,2.836362e+000
1.995047e+003,1.447964e+000
1.996011e+003,-3.582916e-001
1.996976e+003,-1.575867e-001
1.997940e+003,1.358279e+000
1.998904e+003,2.446829e+000
1.999868e+003,2.936502e+000
2.000833e+003,3.283319e+000
2.001797e+003,3.642575e+000
2.002761e+003,3.684634e+000
2.003725e+003,2.859024e+000
2.004690e+003,2.210648e+000
2.005654e+003,2.541800e+000
2.006618e+003,3.261700e+000
2.007582e+003,4.149286e+000
2.008547e+003,4.745420e+000
2.009511e+003,4.044937e+000
2.010475e+003,2.439755e+000
2.011439e+003,1.569247e+000
2.012403e+003,1.931821e+000
2.013368e+003,2.556683e+000
2.014332e+003,2.800253e+000
2.015296e+003,2.554901e+000
2.016260e+003,1.183896e+000
2.017225e+003,-4.331390e-001
2.018189e+003,7.167053e-002
2.019153e+003,2.116040e+000
2.020117e+003,3.421222e+000
2.021082e+003,3.827844e+000
2.022046e+003,4.016803e+000
2.023010e+003,4.191195e+000
2.023974e+003,4.386261e+000
2.024938e+003,4.599100e+000
2.025903e+003,4.848285e+000
2.026867e+003,5.239530e+000
2.027831e+003,5.365863e+000
2.028795e+003,4.090878e+000
2.029760e+003,1.562033e+000
2.030724e+003,1.268677e+000
2.031688e+003,4.163159e+000
2.032652e+003,5.585406e+000
2.033617e+003,4.901810e+000
2.034581e+003,3.767075e+000
2.035545e+003,1.608218e+000
2.036509e+003,7.382141e-001
2.037474e+003,3.629044e+000
2.038438e+003,7.143847e+000
2.039402e+003,8.070313e+000
2.040366e+003,7.206384e+000
2.041330e+003,5.919934e+000
2.042295e+003,4.327115e+000
2.043259e+003,3.770996e+000
2.044223e+003,4.915985e+000
2.045187e+003,5.747800e+000
2.046152e+003,5.996970e+000
2.047116e+003,5.676938e+000
2.048080e+003,3.931131e+000
2.049044e+003,2.517297e+000
2.050009e+003,3.345404e+000
2.050973e+003,4.731973e+000
2.051937e+003,4.343149e+000
2.052901e+003,2.875427e+000
2.053865e+003,2.399994e+000
2.054830e+003,3.173499e+000
2.055794e+003,3.829150e+000
2.056758e+003,3.755395e+000
2.057722e+003,3.719363e+000
2.058687e+003,4.282346e+000
2.059651e+003,5.171878e+000
2.060615e+003,6.635348e+000
2.061579e+003,7.783282e+000
2.062544e+003,7.005081e+000
2.063508e+003,5.217893e+000
2.064472e+003,4.197174e+000
2.065436e+003,4.186276e+000
2.066401e+003,5.110562e+000
2.067365e+003,6.661166e+000
2.068329e+003,7.589572e+000
2.069293e+003,7.119644e+000
2.070258e+003,5.888049e+000
2.071222e+003,4.454895e+000
2.072186e+003,3.258954e+000
2.073150e+003,3.558966e+000
2.074115e+003,4.900876e+000
2.075079e+003,5.086123e+000
2.076043e+003,4.239563e+000
2.077007e+003,4.333618e+000
2.077971e+003,5.656744e+000
2.078936e+003,6.704056e+000
2.079900e+003,6.908542e+000
2.080864e+003,6.546057e+000
2.081828e+003,5.747476e+000
2.082792e+003,5.190329e+000
2.083757e+003,5.955380e+000
2.084721e+003,7.370111e+000
2.085685e+003,6.911615e+000
2.086649e+003,4.480246e+000
2.087614e+003,3.335931e+000
2.088578e+003,3.732599e+000
2.089542e+003,4.258371e+000
2.090506e+003,4.809766e+000
2.091471e+003,5.144675e+000
2.092435e+003,5.122559e+000
2.093399e+003,5.147284e+000
2.094363e+003,5.666678e+000
2.095328e+003,6.064767e+000
2.096292e+003,5.210336e+000
2.097256e+003,3.681372e+000
2.098220e+003,3.679288e+000
2.099185e+003,5.412295e+000
2.100149e+003,6.987201e+000
2.101113e+003,8.771853e+000
2.102077e+003,9.626935e+000
2.103042e+003,9.606183e+000
2.104006e+003,8.514661e+000
2.104970e+003,4.605164e+000
2.105934e+003,1.648761e+000
2.106898e+003,2.413895e+000
2.107863e+003,4.455106e+000
2.108827e+003,5.601987e+000
2.109791e+003,5.981943e+000
2.110755e+003,5.902219e+000
2.111719e+003,5.414176e+000
2.112684e+003,5.189593e+000
2.113648e+003,5.624548e+000
2.114612e+003,5.535346e+000
2.115576e+003,4.250153e+000
2.116541e+003,2.932004e+000
2.117505e+003,1.118790e+000
2.118469e+003,4.573578e-001
2.119433e+003,3.378836e+000
2.120398e+003,6.762161e+000
2.121362e+003,7.085684e+000
2.122326e+003,5.467734e+000
2.123290e+003,4.188113e+000
2.124255e+003,3.718838e+000
2.125219e+003,4.279477e+000
2.126183e+003,6.049802e+000
2.127147e+003,7.016183e+000
2.128112e+003,5.535916e+000
2.129076e+003,4.221939e+000
2.130040e+003,4.700607e+000
2.131004e+003,5.626636e+000
2.131969e+003,6.140821e+000
2.132933e+003,6.287641e+000
2.133897e+003,6.146051e+000
2.134861e+003,5.844754e+000
2.135825e+003,5.418256e+000
2.136790e+003,4.946933e+000
2.137754e+003,4.649405e+000
2.138718e+003,4.606555e+000
2.139682e+003,4.748899e+000
2.140646e+003,5.084137e+000
2.141611e+003,5.445971e+000
2.142575e+003,5.731665e+000
2.143539e+003,5.871316e+000
2.144503e+003,5.969858e+000
2.145468e+003,5.830148e+000
2.146432e+003,4.767245e+000
2.147396e+003,3.402368e+000
2.148360e+003,3.152737e+000
2.149325e+003,3.810300e+000
2.150289e+003,4.084216e+000
2.151253e+003,3.585654e+000
2.152217e+003,2.691882e+000
2.153182e+003,1.613544e+000
2.154146e+003,1.229739e+000
2.155110e+003,2.946576e+000
2.156074e+003,4.903738e+000
2.157039e+003,4.255966e+000
2.158003e+003,2.510248e+000
2.158967e+003,2.131149e+000
2.159931e+003,2.734769e+000
2.160896e+003,3.368527e+000
2.161860e+003,3.771317e+000
2.162824e+003,3.723611e+000
2.163788e+003,3.217532e+000
2.164752e+003,2.412311e+000
2.165717e+003,1.431131e+000
2.166681e+003,6.690277e-001
2.167645e+003,4.796661e-001
2.168609e+003,6.210815e-001
2.169573e+003,9.239838e-001
2.170538e+003,1.248499e+000
2.171502e+003,1.183566e+000
2.172466e+003,9.061554e-001
2.173430e+003,9.390747e-001
2.174395e+003,1.237665e+000
2.175359e+003,1.593317e+000
2.176323e+003,1.831995e+000
2.177287e+003,1.357059e+000
2.178252e+003,4.045105e-002
2.179216e+003,-1.249805e+000
2.180180e+003,-1.875958e+000
2.181144e+003,-1.887967e+000
2.182109e+003,-1.282071e+000
2.183073e+003,-2.900238e-001
2.184037e+003,9.095246e-001
2.185001e+003,2.045429e+000
2.185966e+003,2.454840e+000
2.186930e+003,2.230127e+000
2.187894e+003,1.522192e+000
2.188858e+003,4.883240e-001
2.189823e+003,-4.779938e-001
2.190787e+003,-1.240744e+000
2.191751e+003,-1.580658e+000
2.192715e+003,-1.376590e+000
2.193679e+003,-1.158108e+000
2.194644e+003,-1.527936e+000
2.195608e+003,-1.779193e+000
2.196572e+003,-2.686188e-001
2.197536e+003,1.965692e+000
2.198500e+003,2.246704e+000
2.199465e+003,1.156049e+000
2.200429e+003,1.392334e-001
2.201393e+003,-5.801026e-001
2.202357e+003,-4.706207e-001
2.203322e+003,2.624268e-001
2.204286e+003,-5.127869e-002
2.205250e+003,-1.865796e+000
2.206214e+003,-3.362485e+000
2.207179e+003,-3.301147e+000
2.208143e+003,-2.591779e+000
2.209107e+003,-2.269901e+000
2.210071e+003,-2.100812e+000
2.211036e+003,-1.341580e+000
2.212000e+003,-5.526673e-001
2.212964e+003,-1.596701e+000
2.213928e+003,-3.699036e+000
2.214893e+003,-4.308191e+000
2.215857e+003,-3.465832e+000
2.216821e+003,-2.609869e+000
2.217785e+003,-2.201428e+000
2.218750e+003,-2.282346e+000
2.219714e+003,-2.791782e+000
2.220678e+003,-3.000369e+000
2.221642e+003,-2.260184e+000
2.222606e+003,-1.314084e+000
2.223571e+003,-1.120563e+000
2.224535e+003,-1.442194e+000
2.225499e+003,-2.069287e+000
2.226463e+003,-2.747113e+000
2.227427e+003,-2.866458e+000
2.228392e+003,-2.593845e+000
2.229356e+003,-2.392493e+000
2.230320e+003,-2.350012e+000
2.231284e+003,-2.453671e+000
2.232249e+003,-2.685834e+000
2.233213e+003,-3.069424e+000
2.234177e+003,-3.573282e+000
2.235141e+003,-3.636188e+000
2.236106e+003,-2.636560e+000
2.237070e+003,-1.381653e+000
2.238034e+003,-9.751922e-001
2.238998e+003,-8.543274e-001
2.239963e+003,1.333893e-001
2.240927e+003,1.211395e+000
2.241891e+003,6.547912e-001
2.242855e+003,-7.715881e-001
2.243820e+003,-1.111716e+000
2.244784e+003,-3.789398e-001
2.245748e+003,1.301147e-001
2.246712e+003,6.327210e-002
2.247677e+003,1.255737e-001
2.248641e+003,7.089447e-001
2.249605e+003,1.313159e+000
2.250569e+003,1.600336e+000
2.251533e+003,1.616541e+000
2.252498e+003,1.150714e+000
2.253462e+003,6.781067e-001
2.254426e+003,8.087250e-001
2.255390e+003,1.189011e+000
2.256354e+003,1.202039e+000
2.257319e+003,1.097641e+000
2.258283e+003,1.870758e+000
2.259247e+003,3.075320e+000
2.260211e+003,2.772229e+000
2.261176e+003,6.203858e-001
2.262140e+003,-1.347327e+000
2.263104e+003,-2.299960e+000
2.264068e+003,-2.764230e+000
2.265033e+003,-3.055237e+000
2.265997e+003,-2.914670e+000
2.266961e+003,-1.750204e+000
2.267925e+003,-6.009125e-001
2.268890e+003,-1.430450e-001
2.269854e+003,-2.520355e-001
2.270818e+003,-8.021973e-001
2.271782e+003,-1.710379e+000
2.272747e+003,-3.095523e+000
2.273711e+003,-4.744217e+000
2.274675e+003,-6.095816e+000
2.275639e+003,-7.049286e+000
2.276604e+003,-7.092557e+000
2.277568e+003,-5.432324e+000
2.278532e+003,-4.249579e+000
2.279496e+003,-4.604025e+000
2.280460e+003,-4.870132e+000
2.281425e+003,-3.792358e+000
2.282389e+003,-3.273581e+000
2.283353e+003,-5.315094e+000
2.284317e+003,-7.517700e+000
2.285281e+003,-7.545672e+000
2.286246e+003,-6.230985e+000
2.287210e+003,-4.766763e+000
2.288174e+003,-3.350470e+000
2.289138e+003,-2.811871e+000
2.290103e+003,-3.328601e+000
2.291067e+003,-3.921674e+000
2.292031e+003,-4.899765e+000
2.292995e+003,-5.327237e+000
2.293960e+003,-4.847821e+000
2.294924e+003,-4.465500e+000
2.295888e+003,-4.340411e+000
2.296852e+003,-4.508551e+000
2.297817e+003,-5.279739e+000
2.298781e+003,-5.768295e+000
2.299745e+003,-4.910086e+000
2.300709e+003,-3.666241e+000
2.301674e+003,-3.810654e+000
2.302638e+003,-5.002545e+000
2.303602e+003,-5.414884e+000
2.304566e+003,-4.993866e+000
2.305531e+003,-5.011438e+000
2.306495e+003,-5.563501e+000
2.307459e+003,-5.369217e+000
2.308423e+003,-4.199319e+000
2.309387e+003,-3.645062e+000
2.310352e+003,-4.176440e+000
2.311316e+003,-4.563565e+000
2.312280e+003,-4.175076e+000
2.313244e+003,-3.721256e+000
2.314208e+003,-3.842349e+000
2.315173e+003,-4.012720e+000
2.316137e+003,-3.289526e+000
2.317101e+003,-2.370709e+000
2.318065e+003,-3.479669e+000
2.319030e+003,-5.947214e+000
2.319994e+003,-7.278757e+000
2.320958e+003,-7.510806e+000
2.321922e+003,-6.525198e+000
2.322887e+003,-4.748895e+000
2.323851e+003,-3.916284e+000
2.324815e+003,-4.233157e+000
2.325779e+003,-4.712915e+000
2.326744e+003,-4.881448e+000
2.327708e+003,-4.453979e+000
2.328672e+003,-3.226981e+000
2.329636e+003,-2.664624e+000
2.330601e+003,-4.638236e+000
2.331565e+003,-7.093814e+000
2.332529e+003,-8.127276e+000
2.333493e+003,-7.972046e+000
2.334458e+003,-5.810916e+000
2.335422e+003,-3.523462e+000
2.336386e+003,-4.021863e+000
2.337350e+003,-6.029416e+000
2.338314e+003,-7.157248e+000
2.339279e+003,-7.222137e+000
2.340243e+003,-6.884256e+000
2.341207e+003,-6.391303e+000
2.342171e+003,-6.207196e+000
2.343135e+003,-6.635282e+000
2.344100e+003,-6.539755e+000
2.345064e+003,-4.614725e+000
2.346028e+003,-3.464929e+000
2.346992e+003,-4.269632e+000
2.347957e+003,-5.614996e+000
2.348921e+003,-7.723486e+000
2.349885e+003,-9.153836e+000
2.350849e+003,-8.222171e+000
2.351814e+003,-6.592377e+000
2.352778e+003,-6.483939e+000
2.353742e+003,-7.172803e+000
2.354706e+003,-6.487250e+000
2.355671e+003,-4.623383e+000
2.356635e+003,-4.776544e+000
2.357599e+003,-7.903854e+000
2.358563e+003,-8.917221e+000
2.359528e+003,-7.006677e+000
2.360492e+003,-5.681549e+000
2.361456e+003,-5.434442e+000
2.362420e+003,-5.205874e+000
2.363385e+003,-4.662555e+000
2.364349e+003,-4.279593e+000
2.365313e+003,-4.298636e+000
2.366277e+003,-4.617612e+000
2.367241e+003,-5.158182e+000
2.368206e+003,-5.919208e+000
2.369170e+003,-6.997247e+000
2.370134e+003,-8.037509e+000
2.371098e+003,-7.782739e+000
2.372063e+003,-6.607059e+000
2.373027e+003,-6.052411e+000
2.373991e+003,-5.944174e+000
2.374955e+003,-5.641275e+000
2.375919e+003,-5.132437e+000
2.376884e+003,-4.499179e+000
2.377848e+003,-3.900510e+000
2.378812e+003,-3.881833e+000
2.379776e+003,-4.503500e+000
2.380741e+003,-4.947608e+000
2.381705e+003,-4.754630e+000
2.382669e+003,-4.357065e+000
2.383633e+003,-3.989707e+000
2.384598e+003,-3.722195e+000
2.385562e+003,-3.588129e+000
2.386526e+003,-3.672473e+000
2.387490e+003,-4.118787e+000
2.388455e+003,-4.656955e+000
2.389419e+003,-4.897632e+000
2.390383e+003,-5.172678e+000
2.391347e+003,-6.277844e+000
2.392312e+003,-7.686765e+000
2.393276e+003,-8.095312e+000
2.394240e+003,-7.496457e+000
2.395204e+003,-6.847903e+000
2.396168e+003,-6.205206e+000
2.397133e+003,-5.619101e+000
2.398097e+003,-5.073022e+000
2.399061e+003,-4.628455e+000
2.400025e+003,-4.046802e+000
2.400990e+003,-4.163922e+000
2.401954e+003,-5.588971e+000
2.402918e+003,-6.672540e+000
2.403882e+003,-6.583310e+000
2.404846e+003,-6.131537e+000
2.405811e+003,-5.963324e+000
2.406775e+003,-5.724915e+000
2.407739e+003,-4.878342e+000
2.408703e+003,-3.817554e+000
2.409668e+003,-3.712296e+000
2.410632e+003,-4.280386e+000
2.411596e+003,-3.816330e+000
2.412560e+003,-2.778674e+000
2.413525e+003,-3.531003e+000
2.414489e+003,-5.566443e+000
2.415453e+003,-6.219186e+000
2.416417e+003,-5.371591e+000
2.417382e+003,-4.400043e+000
2.418346e+003,-3.837244e+000
2.419310e+003,-3.829367e+000
2.420274e+003,-4.406451e+000
2.421239e+003,-5.076614e+000
2.422203e+003,-5.702033e+000
2.423167e+003,-5.703321e+000
2.424131e+003,-3.885431e+000
2.425095e+003,-2.343091e+000
2.426060e+003,-2.760501e+000
2.427024e+003,-3.607990e+000
2.427988e+003,-3.961182e+000
2.428952e+003,-3.938480e+000
2.429917e+003,-3.499951e+000
2.430881e+003,-2.934869e+000
2.431845e+003,-2.494846e+000
2.432809e+003,-2.350342e+000
2.433773e+003,-3.018637e+000
2.434738e+003,-4.484525e+000
2.435702e+003,-5.949170e+000
2.436666e+003,-8.045462e+000
2.437630e+003,-7.539389e+000
2.438595e+003,-3.456088e+000
2.439559e+003,-1.235437e+000
2.440523e+003,-1.784824e+000
2.441487e+003,-2.341727e+000
2.442452e+003,-2.114475e+000
2.443416e+003,-1.999628e+000
2.444380e+003,-2.446552e+000
2.445344e+003,-3.332788e+000
2.446309e+003,-4.603430e+000
2.447273e+003,-5.342020e+000
2.448237e+003,-4.338647e+000
2.449201e+003,-2.161121e+000
2.450166e+003,1.803625e+000
2.451130e+003,5.060416e+000
2.452094e+003,1.981253e+000
2.453058e+003,-3.454114e+000
2.454022e+003,-4.744546e+000
2.454987e+003,-3.619305e+000
2.455951e+003,-4.387589e+000
2.456915e+003,-6.469031e+000
2.457879e+003,-6.593796e+000
2.458844e+003,-4.638858e+000
2.459808e+003,-3.539548e+000
2.460772e+003,-4.121549e+000
2.461736e+003,-4.260169e+000
2.462700e+003,-2.639947e+000
2.463665e+003,-2.140372e+000
2.464629e+003,-4.130054e+000
2.465593e+003,-5.280099e+000
2.466557e+003,-4.572626e+000
2.467522e+003,-3.906989e+000
2.468486e+003,-4.120233e+000
2.469450e+003,-4.269974e+000
2.470414e+003,-3.544818e+000
2.471379e+003,-3.109973e+000
2.472343e+003,-4.535092e+000
2.473307e+003,-6.465918e+000
2.474271e+003,-5.843179e+000
2.475236e+003,-3.687323e+000
2.476200e+003,-3.521246e+000
2.477164e+003,-4.553662e+000
2.478128e+003,-4.260995e+000
2.479093e+003,-3.186575e+000
2.480057e+003,-3.262149e+000
2.481021e+003,-4.108996e+000
2.481985e+003,-3.918277e+000
2.482949e+003,-2.783328e+000
2.483914e+003,-2.415747e+000
2.484878e+003,-3.171500e+000
2.485842e+003,-3.691623e+000
2.486806e+003,-3.455514e+000
2.487771e+003,-3.088632e+000
2.488735e+003,-2.338004e+000
2.489699e+003,-2.249856e+000
2.490663e+003,-4.175742e+000
2.491627e+003,-5.278440e+000
2.492592e+003,-3.838843e+000
2.493556e+003,-2.447998e+000
2.494520e+003,-2.392276e+000
2.495484e+003,-2.682919e+000
2.496449e+003,-2.507312e+000
2.497413e+003,-2.356375e+000
2.498377e+003,-3.041806e+000
2.499341e+003,-3.885913e+000
2.500306e+003,-2.842593e+000
2.501270e+003,-5.005615e-001
2.502234e+003,3.367584e-001
2.503198e+003,1.736755e-002
2.504163e+003,-4.568604e-001
2.505127e+003,-9.271820e-001
2.506091e+003,-1.035400e+000
2.507055e+003,-9.108795e-001
2.508020e+003,-1.317837e+000
2.508984e+003,-2.010605e+000
2.509948e+003,-1.179581e+000
2.510912e+003,1.435712e+000
2.511876e+003,2.376788e+000
2.512841e+003,-2.496277e-001
2.513805e+003,-2.197232e+000
2.514769e+003,-1.872598e+000
2.515733e+003,-1.031018e+000
2.516698e+003,6.356079e-001
2.517662e+003,1.565372e+000
2.518626e+003,1.001273e+000
2.519590e+003,2.315125e-001
2.520554e+003,-3.413116e-001
2.521519e+003,-2.506561e-001
2.522483e+003,1.127084e+000
2.523447e+003,2.473181e+000
2.524411e+003,1.743616e+000
2.525376e+003,1.314331e-001
2.526340e+003,8.290192e-001
2.527304e+003,2.867654e+000
2.528268e+003,3.190335e+000
2.529233e+003,2.378519e+000
2.530197e+003,1.326617e+000
2.531161e+003,5.550354e-001
2.532125e+003,1.411029e+000
2.533090e+003,3.077981e+000
2.534054e+003,3.386362e+000
2.535018e+003,2.304407e+000
2.535982e+003,9.790894e-001
2.536947e+003,-2.330963e-001
2.537911e+003,-8.503113e-002
2.538875e+003,2.481415e+000
2.539839e+003,4.121671e+000
2.540803e+003,4.002509e+000
2.541768e+003,3.524130e+000
2.542732e+003,2.545139e+000
2.543696e+003,1.787427e+000
2.544660e+003,1.495538e+000
2.545625e+003,1.354135e+000
2.546589e+003,1.195889e+000
2.547553e+003,1.307575e+000
2.548517e+003,1.901804e+000
2.549482e+003,2.755850e+000
2.550446e+003,3.737393e+000
2.551410e+003,4.384726e+000
2.552374e+003,3.433331e+000
2.553339e+003,2.193719e+000
2.554303e+003,3.079471e+000
2.555267e+003,4.417102e+000
2.556231e+003,3.783871e+000
2.557196e+003,2.410782e+000
2.558160e+003,2.046524e+000
2.559124e+003,2.323920e+000
2.560088e+003,2.400894e+000
2.561052e+003,2.273261e+000
2.562017e+003,2.139453e+000
2.562981e+003,2.001462e+000
2.563945e+003,2.106683e+000
2.564909e+003,2.498761e+000
2.565874e+003,2.924640e+000
2.566838e+003,3.460745e+000
2.567802e+003,3.446942e+000
2.568766e+003,2.837109e+000
2.569730e+003,2.552942e+000
2.570695e+003,2.729733e+000
2.571659e+003,2.686234e+000
2.572623e+003,2.215216e+000
2.573587e+003,1.921863e+000
2.574552e+003,2.102734e+000
2.575516e+003,1.595114e+000
2.576480e+003,-8.235626e-001
2.577444e+003,-2.602521e+000
2.578409e+003,-1.220932e+000
2.579373e+003,2.714539e-002
2.580337e+003,-1.285733e+000
2.581301e+003,-2.323691e+000
2.582266e+003,-1.000110e+000
2.583230e+003,6.791779e-001
2.584194e+003,1.541388e+000
2.585158e+003,1.662943e+000
2.586123e+003,1.002222e+000
2.587087e+003,-7.855530e-002
2.588051e+003,-1.118442e+000
2.589015e+003,-1.820996e+000
2.589979e+003,-1.029095e+000
2.590944e+003,7.953491e-001
2.591908e+003,2.092728e+000
2.592872e+003,2.812732e+000
2.593836e+003,2.670465e+000
2.594801e+003,1.953207e+000
2.595765e+003,9.472321e-001
2.596729e+003,3.730469e-002
2.597693e+003,2.046509e-001
2.598657e+003,1.082791e+000
2.599622e+003,6.249908e-001
2.600586e+003,-1.478134e+000
2.601550e+003,-2.216061e+000
2.602514e+003,-5.081787e-001
2.603479e+003,7.299225e-001
2.604443e+003,1.419220e+000
2.605407e+003,1.796310e+000
2.606371e+003,1.943466e+000
2.607336e+003,1.464648e+000
2.608300e+003,2.523254e-001
2.609264e+003,-4.720550e-001
2.610228e+003,-2.898773e-001
2.611193e+003,8.797912e-002
2.612157e+003,2.526855e-001
2.613121e+003,3.207580e-001
2.614085e+003,3.637665e-001
2.615050e+003,3.751709e-001
2.616014e+003,2.868958e-001
2.616978e+003,2.213593e-001
2.617942e+003,5.111939e-001
2.618906e+003,5.916870e-001
2.619871e+003,-2.477783e-001
2.620835e+003,-1.002652e+000
2.621799e+003,-6.967682e-001
2.622763e+003,-4.177399e-001
2.623728e+003,-1.369000e+000
2.624692e+003,-2.413324e+000
2.625656e+003,-1.660272e+000
2.626620e+003,8.122559e-002
2.627584e+003,6.223724e-001
2.628549e+003,3.603027e-001
2.629513e+003,6.621734e-001
2.630477e+003,1.187491e+000
2.631441e+003,9.471466e-001
2.632406e+003,4.722809e-001
2.633370e+003,1.129211e+000
2.634334e+003,2.323746e+000
2.635298e+003,2.452451e+000
2.636263e+003,1.739731e+000
2.637227e+003,1.798422e+000
2.638191e+003,2.734122e+000
2.639155e+003,2.340939e+000
2.640120e+003,9.377442e-002
2.641084e+003,-2.287323e-001
2.642048e+003,1.839984e+000
2.643012e+003,2.401010e+000
2.643977e+003,1.264517e+000
2.644941e+003,7.512573e-001
2.645905e+003,1.110275e+000
2.646869e+003,8.292969e-001
2.647833e+003,-3.594452e-001
2.648798e+003,-1.303076e+000
2.649762e+003,-1.464697e+000
2.650726e+003,-5.231994e-001
2.651690e+003,2.121750e+000
2.652655e+003,3.420895e+000
2.653619e+003,7.453888e-001
2.654583e+003,-1.446716e+000
2.655547e+003,-1.859851e+000
2.656511e+003,-1.608063e+000
2.657476e+003,-7.284271e-001
2.658440e+003,8.729553e-002
2.659404e+003,6.582519e-001
2.660368e+003,4.366455e-001
2.661333e+003,-1.001358e+000
2.662297e+003,-1.936725e+000
2.663261e+003,-6.141205e-001
2.664225e+003,1.220981e+000
2.665190e+003,1.551544e+000
2.666154e+003,8.832306e-001
2.667118e+003,-1.348425e+000
2.668082e+003,-2.886853e+000
2.669047e+003,-4.512543e-001
2.670011e+003,2.244510e+000
2.670975e+003,1.190796e+000
2.671939e+003,-8.865296e-001
2.672904e+003,-7.695862e-001
2.673868e+003,3.674072e-001
2.674832e+003,9.642792e-001
2.675796e+003,1.019006e+000
2.676760e+003,4.285217e-001
2.677725e+003,-5.816070e-001
2.678689e+003,-1.213165e+000
2.679653e+003,-1.358789e+000
2.680617e+003,-2.575104e-001
2.681582e+003,1.212979e+000
2.682546e+003,1.141687e+000
2.683510e+003,1.878540e-001
2.684474e+003,-4.046906e-001
2.685438e+003,-4.225799e-001
2.686403e+003,3.664917e-001
2.687367e+003,1.742413e+000
2.688331e+003,2.334479e+000
2.689295e+003,2.126459e+000
2.690260e+003,2.354416e+000
2.691224e+003,3.155972e+000
2.692188e+003,2.830969e+000
2.693152e+003,1.400381e+000
2.694117e+003,4.236603e-001
2.695081e+003,5.709229e-002
2.696045e+003,1.787720e-002
2.697009e+003,1.893829e-001
2.697974e+003,4.185700e-001
2.698938e+003,6.659638e-001
2.699902e+003,1.106900e+000
2.700866e+003,1.836795e+000
2.701831e+003,2.041678e+000
2.702795e+003,8.160065e-001
2.703759e+003,5.748596e-001
2.704723e+003,2.303519e+000
2.705688e+003,2.386282e+000
2.706652e+003,-6.349792e-002
2.707616e+003,-1.017660e+000
2.708580e+003,5.044953e-001
2.709544e+003,1.463840e+000
2.710509e+003,6.987732e-001
2.711473e+003,-2.315704e-001
2.712437e+003,-4.626160e-001
2.713401e+003,-3.036499e-003
2.714365e+003,1.617978e+000
2.715330e+003,2.695813e+000
2.716294e+003,1.998532e+000
2.717258e+003,1.127054e+000
2.718222e+003,2.454163e-001
2.719187e+003,-1.834106e-003
2.720151e+003,8.977417e-001
2.721115e+003,1.478296e+000
2.722079e+003,9.661957e-001
2.723044e+003,3.149414e-001
2.724008e+003,2.316376e-001
2.724972e+003,5.752869e-001
2.725936e+003,1.248199e+000
2.726901e+003,2.102710e+000
2.727865e+003,3.621204e+000
2.728829e+003,4.411765e+000
2.729793e+003,2.239563e+000
2.730758e+003,2.922211e-001
2.731722e+003,1.335544e+000
2.732686e+003,2.749817e+000
2.733650e+003,2.649719e+000
2.734615e+003,2.155890e+000
2.735579e+003,2.212436e+000
2.736543e+003,2.314078e+000
2.737507e+003,1.730969e+000
2.738471e+003,1.020093e+000
2.739436e+003,1.152579e+000
2.740400e+003,1.924451e+000
2.741364e+003,3.638724e+000
2.742328e+003,5.110678e+000
2.743292e+003,4.809476e+000
2.744257e+003,3.642172e+000
2.745221e+003,2.137292e+000
2.746185e+003,8.580170e-001
2.747149e+003,4.730316e-001
2.748114e+003,5.968384e-001
2.749078e+003,6.740600e-001
2.750042e+003,8.668915e-001
2.751006e+003,1.676639e+000
2.751971e+003,2.784970e+000
2.752935e+003,3.135995e+000
2.753899e+003,2.924771e+000
2.754863e+003,2.523062e+000
2.755828e+003,1.944958e+000
2.756792e+003,8.689026e-001
2.757756e+003,-1.901276e-001
2.758720e+003,-4.008026e-001
2.759685e+003,3.579712e-003
2.760649e+003,4.220428e-001
2.761613e+003,8.586944e-001
2.762577e+003,1.350516e+000
2.763542e+003,1.870062e+000
2.764506e+003,2.557156e+000
2.765470e+003,3.213174e+000
2.766434e+003,2.269660e+000
2.767398e+003,6.410522e-001
2.768363e+003,9.155853e-001
2.769327e+003,2.323654e+000
2.770291e+003,2.987985e+000
2.771255e+003,3.017480e+000
2.772219e+003,3.399670e+000
2.773184e+003,3.995456e+000
2.774148e+003,3.525589e+000
2.775112e+003,2.096582e+000
2.776076e+003,1.799857e+000
2.777041e+003,2.676654e+000
2.778005e+003,2.092786e+000
2.778969e+003,5.219849e-001
2.779933e+003,9.695129e-001
2.780898e+003,2.672818e+000
2.781862e+003,2.316763e+000
2.782826e+003,6.873871e-001
2.783790e+003,1.665048e+000
2.784755e+003,4.729440e+000
2.785719e+003,4.881583e+000
2.786683e+003,1.486594e+000
2.787647e+003,2.699036e-001
2.788612e+003,1.590750e+000
2.789576e+003,1.641403e+000
2.790540e+003,5.263367e-001
2.791504e+003,1.487640e+000
2.792469e+003,4.064908e+000
2.793433e+003,5.051874e+000
2.794397e+003,4.500861e+000
2.795361e+003,4.398935e+000
2.796325e+003,4.769379e+000
2.797290e+003,3.783576e+000
2.798254e+003,1.293442e+000
2.799218e+003,3.725281e-001
2.800182e+003,1.503409e+000
2.801146e+003,2.368744e+000
2.802111e+003,3.006812e+000
2.803075e+003,3.491638e+000
2.804039e+003,3.775760e+000
2.805003e+003,3.786725e+000
2.805968e+003,3.509546e+000
2.806932e+003,3.048023e+000
2.807896e+003,2.606616e+000
2.808860e+003,2.425708e+000
2.809825e+003,2.564749e+000
2.810789e+003,3.283481e+000
2.811753e+003,4.906647e+000
2.812717e+003,4.611142e+000
2.813682e+003,1.653421e+000
2.814646e+003,6.457672e-001
2.815610e+003,1.663861e+000
2.816574e+003,3.774234e+000
2.817539e+003,6.236511e+000
2.818503e+003,6.058563e+000
2.819467e+003,3.554092e+000
2.820431e+003,1.731128e+000
2.821396e+003,1.362933e+000
2.822360e+003,1.795151e+000
2.823324e+003,2.926099e+000
2.824288e+003,4.199158e+000
2.825252e+003,6.236941e+000
2.826217e+003,5.062201e+000
2.827181e+003,5.455444e-001
2.828145e+003,-2.598877e-001
2.829109e+003,2.433505e+000
2.830073e+003,3.608307e+000
2.831038e+003,2.880197e+000
2.832002e+003,2.501126e+000
2.832966e+003,2.875314e+000
2.833930e+003,2.969827e+000
2.834895e+003,2.540179e+000
2.835859e+003,2.838739e+000
2.836823e+003,4.306107e+000
2.837787e+003,4.391348e+000
2.838752e+003,2.943988e+000
2.839716e+003,3.653610e+000
2.840680e+003,6.113434e+000
2.841644e+003,5.745135e+000
2.842609e+003,2.891449e+000
2.843573e+003,1.090933e+000
2.844537e+003,8.890930e-001
2.845501e+003,1.122299e+000
2.846466e+003,1.455658e+000
2.847430e+003,1.474356e+000
2.848394e+003,1.136084e+000
2.849358e+003,4.149017e-001
2.850323e+003,-7.924896e-001
2.851287e+003,6.887299e-001
2.852251e+003,4.168872e+000
2.853215e+003,4.233029e+000
2.854179e+003,1.740353e+000
2.855144e+003,1.727978e+000
2.856108e+003,3.801080e+000
2.857072e+003,3.447977e+000
2.858036e+003,5.403076e-001
2.859000e+003,2.770966e-001
2.859965e+003,2.992288e+000
2.860929e+003,3.830670e+000
2.861893e+003,2.695630e+000
2.862857e+003,2.619559e+000
2.863822e+003,3.351297e+000
2.864786e+003,3.024304e+000
2.865750e+003,1.991113e+000
2.866714e+003,1.548181e+000
2.867679e+003,1.730539e+000
2.868643e+003,2.422293e+000
2.869607e+003,3.323907e+000
2.870571e+003,3.155066e+000
2.871536e+003,2.073776e+000
2.872500e+003,1.544800e+000
2.873464e+003,1.516736e+000
2.874428e+003,1.961682e+000
2.875393e+003,2.580264e+000
2.876357e+003,1.891278e+000
2.877321e+003,7.351776e-001
2.878285e+003,9.841949e-001
2.879250e+003,2.267703e+000
2.880214e+003,3.918176e+000
2.881178e+003,5.348498e+000
2.882142e+003,5.362649e+000
2.883106e+003,4.306479e+000
2.884071e+003,3.239835e+000
2.885035e+003,2.403207e+000
2.885999e+003,3.623395e+000
2.886963e+003,5.780661e+000
2.887927e+003,6.505237e+000
2.888892e+003,6.007159e+000
2.889856e+003,3.907516e+000
2.890820e+003,1.656335e+000
2.891784e+003,1.563559e+000
2.892749e+003,2.628452e+000
2.893713e+003,3.147333e+000
2.894677e+003,3.150818e+000
2.895641e+003,2.483850e+000
2.896606e+003,1.686066e+000
2.897570e+003,2.669205e+000
2.898534e+003,4.216074e+000
2.899498e+003,4.307364e+000
2.900463e+003,3.769919e+000
2.901427e+003,3.305728e+000
2.902391e+003,3.167526e+000
2.903355e+003,4.018353e+000
2.904320e+003,4.455206e+000
2.905284e+003,2.806787e+000
2.906248e+003,8.021332e-001
2.907212e+003,1.136261e+000
2.908177e+003,2.528143e+000
2.909141e+003,3.225284e+000
2.910105e+003,3.305225e+000
2.911069e+003,2.200104e+000
2.912033e+003,1.336871e+000
2.912998e+003,2.404083e+000
2.913962e+003,3.246082e+000
2.914926e+003,2.128272e+000
2.915890e+003,1.847830e+000
2.916854e+003,4.622561e+000
2.917819e+003,7.178229e+000
2.918783e+003,6.123847e+000
2.919747e+003,4.005395e+000
2.920711e+003,3.135413e+000
2.921676e+003,2.801871e+000
2.922640e+003,2.646491e+000
2.923604e+003,2.804025e+000
2.924568e+003,3.612323e+000
2.925533e+003,3.995560e+000
2.926497e+003,3.468170e+000
2.927461e+003,2.561960e+000
2.928425e+003,1.919882e+000
2.929390e+003,3.437665e+000
2.930354e+003,8.096087e+000
2.931318e+003,1.087729e+001
2.932282e+003,7.407279e+000
2.933247e+003,3.953925e+000
2.934211e+003,3.651056e+000
2.935175e+003,3.042984e+000
2.936139e+003,9.768952e-001
2.937104e+003,2.299042e-001
2.938068e+003,1.404477e+000
2.939032e+003,2.747562e+000
2.939996e+003,3.555591e+000
2.940960e+003,3.689172e+000
2.941925e+003,3.103418e+000
2.942889e+003,2.870523e+000
2.943853e+003,3.733081e+000
2.944817e+003,3.674435e+000
2.945781e+003,2.426959e+000
2.946746e+003,1.377026e+000
2.947710e+003,6.595429e-001
2.948674e+003,1.312930e+000
2.949638e+003,2.922668e+000
2.950603e+003,3.276822e+000
2.951567e+003,2.471176e+000
2.952531e+003,2.524066e+000
2.953495e+003,3.734479e+000
2.954460e+003,5.174521e+000
2.955424e+003,6.808816e+000
2.956388e+003,4.644559e+000
2.957352e+003,-5.673248e-001
2.958317e+003,-9.700226e-001
2.959281e+003,1.960495e+000
2.960245e+003,4.588000e+000
2.961209e+003,5.993787e+000
2.962174e+003,4.651590e+000
2.963138e+003,1.996201e+000
2.964102e+003,1.405106e+000
2.965066e+003,1.928992e+000
2.966031e+003,1.123813e+000
2.966995e+003,-2.251709e-001
2.967959e+003,7.525482e-001
2.968923e+003,2.782010e+000
2.969887e+003,3.334503e+000
2.970852e+003,3.155640e+000
2.971816e+003,3.225180e+000
2.972780e+003,3.064813e+000
2.973744e+003,1.559174e+000
2.974708e+003,4.925964e-001
2.975673e+003,1.574271e+000
2.976637e+003,2.735159e+000
2.977601e+003,1.336978e+000
2.978565e+003,-4.396240e-001
2.979530e+003,7.432831e-001
2.980494e+003,2.343347e+000
2.981458e+003,2.340668e+000
2.982422e+003,2.087888e+000
2.983387e+003,2.600430e+000
2.984351e+003,2.002359e+000
2.985315e+003,-6.241394e-001
2.986279e+003,-2.000665e+000
2.987244e+003,-5.191315e-001
2.988208e+003,1.339710e+000
2.989172e+003,2.020303e+000
2.990136e+003,2.440381e+000
2.991101e+003,3.541070e+000
2.992065e+003,3.628436e+000
2.993029e+003,1.593686e+000
2.993993e+003,7.237946e-001
2.994958e+003,1.370163e+000
2.995922e+003,2.754922e+000
2.996886e+003,4.399542e+000
2.997850e+003,4.335996e+000
2.998814e+003,2.529645e+000
2.999779e+003,1.540491e+000
3.000743e+003,2.061682e+000
3.001707e+003,2.450616e+000
3.002671e+003,2.610309e+000
3.003635e+003,2.238977e+000
3.004600e+003,1.375204e+000
3.005564e+003,9.585907e-001
3.006528e+003,8.822479e-001
3.007492e+003,4.470978e-001
3.008457e+003,6.387024e-002
3.009421e+003,1.021551e+000
3.010385e+003,2.749808e+000
3.011349e+003,3.876163e+000
3.012314e+003,3.988590e+000
3.013278e+003,1.482526e+000
3.014242e+003,-2.112744e+000
3.015206e+003,-8.694458e-001
3.016171e+003,2.004691e+000
3.017135e+003,7.622589e-001
3.018099e+003,-1.656177e+000
3.019063e+003,-2.130679e+000
3.020028e+003,-1.843539e+000
3.020992e+003,-1.930746e+000
3.021956e+003,-2.030893e+000
3.022920e+003,-1.868054e+000
3.023885e+003,-1.346106e+000
3.024849e+003,-1.543854e-001
3.025813e+003,7.657501e-001
3.026777e+003,2.353210e-001
3.027741e+003,-4.193390e-001
3.028706e+003,-8.154877e-001
3.029670e+003,-5.446167e-001
3.030634e+003,7.670715e-001
3.031598e+003,1.026233e+000
3.032563e+003,-3.883942e-001
3.033527e+003,-1.630286e+000
3.034491e+003,-1.841592e+000
3.035455e+003,-1.224905e+000
3.036420e+003,3.362702e-001
3.037384e+003,1.294690e+000
3.038348e+003,1.052271e+000
3.039312e+003,1.240713e+000
3.040277e+003,1.895386e+000
3.041241e+003,1.403613e+000
3.042205e+003,8.120728e-003
3.043169e+003,-8.787445e-001
3.044134e+003,-9.669495e-001
3.045098e+003,4.364014e-003
3.046062e+003,1.616336e+000
3.047026e+003,2.447784e+000
3.047990e+003,2.423154e+000
3.048955e+003,6.175415e-001
3.049919e+003,-2.213748e+000
3.050883e+003,-2.759116e+000
3.051847e+003,-1.885889e+000
3.052812e+003,-2.637909e-001
3.053776e+003,1.112680e+000
3.054740e+003,6.613342e-001
3.055704e+003,-4.715271e-002
3.056668e+003,6.189972e-001
3.057633e+003,1.359543e+000
3.058597e+003,6.508301e-001
3.059561e+003,-2.261871e-001
3.060525e+003,8.697937e-001
3.061490e+003,1.565671e+000
3.062454e+003,-1.307571e+000
3.063418e+003,-2.790463e+000
3.064382e+003,-2.953369e-001
3.065347e+003,1.675867e+000
3.066311e+003,1.923282e+000
3.067275e+003,1.300678e+000
3.068239e+003,2.731659e-001
3.069204e+003,-6.318970e-001
3.070168e+003,-1.216803e+000
3.071132e+003,-1.066971e+000
3.072096e+003,6.072693e-001
3.073061e+003,9.058288e-001
3.074025e+003,-3.848480e-001
3.074989e+003,-1.098358e-001
3.075953e+003,1.522501e+000
3.076917e+003,3.327411e+000
3.077882e+003,4.411423e+000
3.078846e+003,2.515332e+000
3.079810e+003,-1.139389e+000
3.080774e+003,-2.325125e+000
3.081739e+003,-1.679236e+000
3.082703e+003,-1.377628e+000
3.083667e+003,-1.325165e+000
3.084631e+003,-1.250052e+000
3.085595e+003,-1.045007e+000
3.086560e+003,-1.776611e-001
3.087524e+003,5.388001e-001
3.088488e+003,-1.558838e-001
3.089452e+003,-7.868592e-001
3.090417e+003,-3.111237e-001
3.091381e+003,3.885071e-001
3.092345e+003,6.510590e-001
3.093309e+003,1.339081e-001
3.094274e+003,-1.932825e+000
3.095238e+003,-3.289786e+000
3.096202e+003,-1.959189e+000
3.097166e+003,-4.661133e-001
3.098131e+003,9.988922e-001
3.099095e+003,1.140109e+000
3.100059e+003,-1.739655e-001
3.101023e+003,-1.352618e+000
3.101988e+003,-1.898535e+000
3.102952e+003,-1.604636e+000
3.103916e+003,-6.150665e-001
3.104880e+003,-5.368988e-001
3.105844e+003,-1.550363e+000
3.106809e+003,-1.665445e+000
3.107773e+003,-1.048007e+000
3.108737e+003,-1.892889e+000
3.109701e+003,-3.549762e+000
3.110666e+003,-4.709509e+000
3.111630e+003,-5.044549e+000
3.112594e+003,-3.657599e+000
3.113558e+003,-1.966766e+000
3.114522e+003,-1.840750e+000
3.115487e+003,-2.293573e+000
3.116451e+003,-1.892804e+000
3.117415e+003,-1.254031e+000
3.118379e+003,-1.161945e+000
3.119344e+003,-1.393674e+000
3.120308e+003,-1.877368e+000
3.121272e+003,-2.647714e+000
3.122236e+003,-4.003006e+000
3.123201e+003,-4.283386e+000
3.124165e+003,-2.990784e+000
3.125129e+003,-1.390750e+000
3.126093e+003,-1.483276e-001
3.127058e+003,-3.561096e-002
3.128022e+003,-1.614780e+000
3.128986e+003,-1.827365e+000
3.129950e+003,4.814941e-001
3.130915e+003,6.787842e-001
3.131879e+003,-1.002176e+000
3.132843e+003,-2.524426e+000
3.133807e+003,-3.348990e+000
3.134771e+003,-1.909692e+000
3.135736e+003,4.485718e-001
3.136700e+003,5.637146e-001
3.137664e+003,-8.479462e-001
3.138628e+003,-2.221478e+000
3.139593e+003,-3.349789e+000
3.140557e+003,-3.905426e+000
3.141521e+003,-3.704089e+000
3.142485e+003,-1.454648e+000
3.143449e+003,3.560669e-001
3.144414e+003,-6.880188e-001
3.145378e+003,-2.217782e+000
3.146342e+003,-3.445593e+000
3.147306e+003,-3.513214e+000
3.148271e+003,-2.115524e+000
3.149235e+003,-1.240808e+000
3.150199e+003,-2.037073e+000
3.151163e+003,-2.748318e+000
3.152128e+003,-2.230396e+000
3.153092e+003,-2.681210e+000
3.154056e+003,-4.374399e+000
3.155020e+003,-4.465567e+000
3.155985e+003,-3.231103e+000
3.156949e+003,-2.724231e+000
3.157913e+003,-2.960010e+000
3.158877e+003,-3.411462e+000
3.159842e+003,-3.779639e+000
3.160806e+003,-3.505780e+000
3.161770e+003,-2.922983e+000
3.162734e+003,-3.059631e+000
3.163698e+003,-3.332867e+000
3.164663e+003,-2.012210e+000
3.165627e+003,-7.586609e-001
3.166591e+003,-1.642374e+000
3.167555e+003,-2.723566e+000
3.168520e+003,-2.856766e+000
3.169484e+003,-3.044794e+000
3.170448e+003,-3.754395e+000
3.171412e+003,-4.012464e+000
3.172376e+003,-3.256180e+000
3.173341e+003,-2.364252e+000
3.174305e+003,-1.639624e+000
3.175269e+003,-1.319556e+000
3.176233e+003,-1.405072e+000
3.177198e+003,-1.786591e+000
3.178162e+003,-2.465079e+000
3.179126e+003,-3.758151e+000
3.180090e+003,-5.185641e+000
3.181055e+003,-5.500984e+000
3.182019e+003,-4.832578e+000
3.182983e+003,-3.862689e+000
3.183947e+003,-2.885995e+000
3.184912e+003,-2.466589e+000
3.185876e+003,-2.493216e+000
3.186840e+003,-2.768945e+000
3.187804e+003,-3.318469e+000
3.188769e+003,-4.237302e+000
3.189733e+003,-5.361505e+000
3.190697e+003,-6.966492e+000
3.191661e+003,-7.560622e+000
3.192625e+003,-6.524533e+000
3.193590e+003,-5.509053e+000
3.194554e+003,-5.360166e+000
3.195518e+003,-5.114661e+000
3.196482e+003,-4.336768e+000
3.197447e+003,-3.163162e+000
3.198411e+003,-1.389334e+000
3.199375e+003,-1.527673e+000
3.200339e+003,-3.042059e+000
3.201303e+003,-2.036884e+000
3.202268e+003,2.454071e-001
3.203232e+003,1.440735e-002
3.204196e+003,-2.029932e+000
3.205160e+003,-3.707336e+000
3.206125e+003,-4.494573e+000
3.207089e+003,-3.246445e+000
3.208053e+003,-1.409357e+000
3.209017e+003,-1.681583e+000
3.209982e+003,-2.324439e+000
3.210946e+003,-1.551193e+000
3.211910e+003,-1.328607e+000
3.212874e+003,-2.510788e+000
3.213839e+003,-3.507065e+000
3.214803e+003,-3.786609e+000
3.215767e+003,-3.580963e+000
3.216731e+003,-3.079404e+000
3.217696e+003,-3.425833e+000
3.218660e+003,-5.319463e+000
3.219624e+003,-5.612608e+000
3.220588e+003,-4.227182e+000
3.221552e+003,-2.922131e+000
3.222517e+003,-1.955722e+000
3.223481e+003,-2.127765e+000
3.224445e+003,-3.001630e+000
3.225409e+003,-4.159869e+000
3.226374e+003,-4.882411e+000
3.227338e+003,-4.392970e+000
3.228302e+003,-3.620627e+000
3.229266e+003,-3.699420e+000
3.230230e+003,-4.076060e+000
3.231195e+003,-4.517901e+000
3.232159e+003,-4.365169e+000
3.233123e+003,-2.805768e+000
3.234087e+003,-1.719293e+000
3.235052e+003,-1.380637e+000
3.236016e+003,-2.226538e+000
3.236980e+003,-3.906108e+000
3.237944e+003,-4.334094e+000
3.238909e+003,-3.180396e+000
3.239873e+003,-1.893610e+000
3.240837e+003,-8.125763e-001
3.241801e+003,-1.630621e+000
3.242766e+003,-3.665166e+000
3.243730e+003,-4.192748e+000
3.244694e+003,-3.948897e+000
3.245658e+003,-3.814473e+000
3.246623e+003,-3.754538e+000
3.247587e+003,-3.621446e+000
3.248551e+003,-3.670825e+000
3.249515e+003,-4.079013e+000
3.250479e+003,-4.378032e+000
3.251444e+003,-4.211034e+000
3.252408e+003,-3.970041e+000
3.253372e+003,-3.698843e+000
3.254336e+003,-3.859126e+000
3.255301e+003,-4.521181e+000
3.256265e+003,-4.361443e+000
3.257229e+003,-3.582530e+000
3.258193e+003,-3.530934e+000
3.259157e+003,-4.157292e+000
3.260122e+003,-5.024728e+000
3.261086e+003,-5.626561e+000
3.262050e+003,-4.997168e+000
3.263014e+003,-3.927348e+000
3.263979e+003,-4.589371e+000
3.264943e+003,-5.369784e+000
3.265907e+003,-3.639053e+000
3.266871e+003,-2.305620e+000
3.267836e+003,-3.364470e+000
3.268800e+003,-4.010292e+000
3.269764e+003,-3.430054e+000
3.270728e+003,-2.724744e+000
3.271693e+003,-2.429986e+000
3.272657e+003,-3.340949e+000
3.273621e+003,-5.830879e+000
3.274585e+003,-6.004196e+000
3.275550e+003,-3.622253e+000
3.276514e+003,-2.389395e+000
3.277478e+003,-2.274878e+000
3.278442e+003,-4.177695e+000
3.279406e+003,-6.260390e+000
3.280371e+003,-5.666026e+000
3.281335e+003,-3.929924e+000
3.282299e+003,-2.347935e+000
3.283263e+003,-1.346054e+000
3.284228e+003,-1.370883e+000
3.285192e+003,-1.841440e+000
3.286156e+003,-2.752832e+000
3.287120e+003,-2.890212e+000
3.288084e+003,-1.547228e+000
3.289049e+003,-1.429802e+000
3.290013e+003,-2.586946e+000
3.290977e+003,-3.221034e+000
3.291941e+003,-3.116872e+000
3.292906e+003,-2.367998e+000
3.293870e+003,-1.521765e+000
3.294834e+003,-1.953430e+000
3.295798e+003,-3.138091e+000
3.296763e+003,-3.969058e+000
3.297727e+003,-4.254121e+000
3.298691e+003,-3.498386e+000
3.299655e+003,-2.224083e+000
3.300620e+003,-1.398178e-001
3.301584e+003,1.024699e+000
3.302548e+003,7.658203e-001
3.303512e+003,-7.783783e-001
3.304477e+003,-3.147429e+000
3.305441e+003,-3.227805e+000
3.306405e+003,1.435104e-001
3.307369e+003,6.242218e-001
3.308333e+003,-2.265411e+000
3.309298e+003,-2.471085e+000
3.310262e+003,-1.065608e+000
3.311226e+003,-1.307417e+000
3.312190e+003,-2.204601e+000
3.313155e+003,-2.283740e+000
3.314119e+003,-1.823055e+000
3.315083e+003,-1.035692e+000
3.316047e+003,-4.961410e-001
3.317011e+003,-6.969070e-001
3.317976e+003,-1.128949e+000
3.318940e+003,-1.625410e+000
3.319904e+003,-1.724013e+000
3.320868e+003,-1.163988e+000
3.321833e+003,-1.584917e+000
3.322797e+003,-2.708786e+000
3.323761e+003,-1.946210e+000
3.324725e+003,4.582825e-002
3.325690e+003,7.445999e-001
3.326654e+003,4.550720e-001
3.327618e+003,5.692261e-001
3.328582e+003,7.610138e-001
3.329547e+003,4.231628e-001
3.330511e+003,-1.544601e-001
3.331475e+003,-1.293555e+000
3.332439e+003,-1.343762e+000
3.333404e+003,1.032764e+000
3.334368e+003,1.765460e+000
3.335332e+003,1.537628e-001
3.336296e+003,-1.362697e+000
3.337260e+003,-2.043213e+000
3.338225e+003,-2.273334e+000
3.339189e+003,-2.084601e+000
3.340153e+003,-1.219084e+000
3.341117e+003,3.662872e-002
3.342082e+003,-2.545380e-001
3.343046e+003,-1.044275e+000
3.344010e+003,-1.889343e-001
3.344974e+003,2.553894e-001
3.345938e+003,-1.902066e+000
3.346903e+003,-2.816516e+000
3.347867e+003,-7.014740e-001
3.348831e+003,1.097803e+000
3.349795e+003,7.343765e-001
3.350760e+003,2.489197e-001
3.351724e+003,3.449310e-001
3.352688e+003,4.917816e-001
3.353652e+003,6.339462e-001
3.354617e+003,-4.349899e-001
3.355581e+003,-1.771797e+000
3.356545e+003,-1.130782e+000
3.357509e+003,5.176910e-001
3.358474e+003,2.008986e+000
3.359438e+003,2.439331e+000
3.360402e+003,8.037979e-001
3.361366e+003,-4.402191e-001
3.362331e+003,1.768819e+000
3.363295e+003,3.097214e+000
3.364259e+003,1.159091e+000
3.365223e+003,9.151657e-001
3.366188e+003,2.489780e+000
3.367152e+003,2.827286e+000
3.368116e+003,2.075658e+000
3.369080e+003,2.381219e+000
3.370044e+003,2.983414e+000
3.371009e+003,1.198340e+000
3.371973e+003,-9.489151e-001
3.372937e+003,1.108755e+000
3.373901e+003,3.655858e+000
3.374865e+003,1.478212e+000
3.375830e+003,-6.235397e-001
3.376794e+003,-7.256790e-001
3.377758e+003,-4.075561e-001
3.378722e+003,-2.600708e-002
3.379687e+003,4.482147e-001
3.380651e+003,1.032053e+000
3.381615e+003,1.674123e+000
3.382579e+003,2.449640e+000
3.383544e+003,4.009637e+000
3.384508e+003,5.792238e+000
3.385472e+003,5.771002e+000
3.386436e+003,4.754938e+000
3.387401e+003,3.049431e+000
3.388365e+003,1.759103e+000
3.389329e+003,1.377628e+000
3.390293e+003,1.298466e+000
3.391258e+003,1.303459e+000
3.392222e+003,1.913821e+000
3.393186e+003,3.352840e+000
3.394150e+003,4.887197e+000
3.395115e+003,6.443849e+000
3.396079e+003,5.601270e+000
3.397043e+003,3.630444e+000
3.398007e+003,5.182220e+000
3.398971e+003,7.633695e+000
3.399936e+003,7.237480e+000
3.400900e+003,5.599971e+000
3.401864e+003,3.679314e+000
3.402828e+003,2.739076e+000
3.403792e+003,3.691267e+000
3.404757e+003,4.923930e+000
3.405721e+003,5.968027e+000
3.406685e+003,5.530974e+000
3.407649e+003,3.624091e+000
3.408614e+003,3.492650e+000
3.409578e+003,4.606771e+000
3.410542e+003,5.445006e+000
3.411506e+003,5.745171e+000
3.412471e+003,5.272571e+000
3.413435e+003,4.827083e+000
3.414399e+003,5.187538e+000
3.415363e+003,5.790396e+000
3.416328e+003,6.281093e+000
3.417292e+003,6.293260e+000
3.418256e+003,5.467630e+000
3.419220e+003,4.944824e+000
3.420185e+003,4.892797e+000
3.421149e+003,6.402603e+000
3.422113e+003,8.397723e+000
3.423077e+003,7.249023e+000
3.424042e+003,4.919701e+000
3.425006e+003,5.532365e+000
3.425970e+003,7.150743e+000
3.426934e+003,6.587916e+000
