7.140112e+001,1.555526e+002
7.236536e+001,1.491019e+002
7.332959e+001,1.459730e+002
7.429382e+001,1.476014e+002
7.525806e+001,1.547643e+002
7.622229e+001,1.575985e+002
7.718652e+001,1.494982e+002
7.815076e+001,1.248731e+002
7.911499e+001,1.064358e+002
8.007922e+001,9.189858e+001
8.104346e+001,8.267702e+001
8.200769e+001,8.023433e+001
8.297192e+001,8.748000e+001
8.393616e+001,9.980237e+001
8.490039e+001,1.234715e+002
8.586462e+001,1.508487e+002
8.682886e+001,1.689812e+002
8.779310e+001,1.522298e+002
8.875733e+001,1.249846e+002
8.972157e+001,9.991061e+001
9.068580e+001,8.182944e+001
9.165003e+001,7.054014e+001
9.261427e+001,7.056480e+001
9.357850e+001,7.788859e+001
9.454273e+001,8.339458e+001
9.550697e+001,8.037355e+001
9.647120e+001,6.510716e+001
9.743543e+001,5.596196e+001
9.839967e+001,5.567366e+001
9.936390e+001,5.853151e+001
1.003281e+002,5.760258e+001
1.012924e+002,4.675928e+001
1.022566e+002,3.916903e+001
1.032208e+002,3.750112e+001
1.041851e+002,4.072223e+001
1.051493e+002,4.586423e+001
1.061135e+002,5.457801e+001
1.070778e+002,6.104518e+001
1.080420e+002,6.177854e+001
1.090062e+002,5.611132e+001
1.099705e+002,4.649065e+001
1.109347e+002,3.717534e+001
1.118989e+002,2.876727e+001
1.128632e+002,2.368462e+001
1.138274e+002,2.372490e+001
1.147916e+002,3.004274e+001
1.157559e+002,3.286333e+001
1.167201e+002,3.060227e+001
1.176843e+002,2.731128e+001
1.186486e+002,2.811455e+001
1.196128e+002,3.736511e+001
1.205770e+002,4.494519e+001
1.215413e+002,5.198272e+001
1.225055e+002,5.699650e+001
1.234697e+002,5.708107e+001
1.244340e+002,4.336912e+001
1.253982e+002,2.934177e+001
1.263624e+002,1.765525e+001
1.273267e+002,9.819446e+000
1.282909e+002,6.688672e+000
1.292551e+002,1.601962e+001
1.302194e+002,2.912566e+001
1.311836e+002,3.826519e+001
1.321478e+002,3.851328e+001
1.331121e+002,2.965979e+001
1.340763e+002,2.064907e+001
1.350405e+002,1.060846e+001
1.360048e+002,3.165356e+000
1.369690e+002,2.789087e+000
1.379332e+002,1.691715e+001
1.388975e+002,2.631572e+001
1.398617e+002,2.978463e+001
1.408259e+002,2.903147e+001
1.417902e+002,2.671045e+001
1.427544e+002,2.191139e+001
1.437186e+002,1.781244e+001
1.446829e+002,1.547040e+001
1.456471e+002,1.467369e+001
1.466113e+002,1.435391e+001
1.475756e+002,1.193544e+001
1.485398e+002,9.930713e+000
1.495040e+002,1.124286e+001
1.504683e+002,1.656069e+001
1.514325e+002,2.429852e+001
1.523967e+002,2.433838e+001
1.533610e+002,1.847439e+001
1.543252e+002,1.207601e+001
1.552894e+002,9.056372e+000
1.562537e+002,1.094540e+001
1.572179e+002,1.164044e+001
1.581821e+002,1.001372e+001
1.591464e+002,8.226171e+000
1.601106e+002,8.874170e+000
1.610748e+002,1.553812e+001
1.620391e+002,1.914808e+001
1.630033e+002,1.524883e+001
1.639676e+002,7.597436e+000
1.649318e+002,2.192065e+000
1.658960e+002,7.458862e+000
1.668603e+002,1.440110e+001
1.678245e+002,1.662983e+001
1.687887e+002,1.413385e+001
1.697530e+002,9.713977e+000
1.707172e+002,1.168457e+001
1.716814e+002,1.742711e+001
1.726457e+002,2.043342e+001
1.736099e+002,1.809814e+001
1.745741e+002,1.015646e+001
1.755384e+002,4.032422e+000
1.765026e+002,-9.544800e-001
1.774668e+002,-4.273694e+000
1.784311e+002,-5.137122e+000
1.793953e+002,-2.547632e+000
1.803595e+002,-1.013916e-001
1.813238e+002,1.822315e+000
1.822880e+002,3.066699e+000
1.832522e+002,3.466687e+000
1.842165e+002,2.793115e+000
1.851807e+002,1.697571e+000
1.861449e+002,2.828491e-001
1.871092e+002,-1.128113e+000
1.880734e+002,-2.239124e+000
1.890376e+002,-2.749109e+000
1.900019e+002,-2.333679e+000
1.909661e+002,-5.749512e-003
1.919303e+002,4.214783e+000
1.928946e+002,9.130432e+000
1.938588e+002,1.061534e+001
1.948230e+002,6.178979e+000
1.957873e+002,3.813147e+000
1.967515e+002,5.078577e+000
1.977157e+002,9.954529e+000
1.986800e+002,1.607371e+001
1.996442e+002,2.350133e+001
2.006084e+002,3.139990e+001
2.015727e+002,4.189339e+001
2.025369e+002,5.538616e+001
2.035011e+002,6.307481e+001
2.044654e+002,5.506010e+001
2.054296e+002,4.210935e+001
2.063938e+002,2.958663e+001
2.073581e+002,2.112772e+001
2.083223e+002,1.638220e+001
2.092865e+002,1.261531e+001
2.102508e+002,1.030839e+001
2.112150e+002,1.172982e+001
2.121792e+002,1.935836e+001
2.131435e+002,3.539075e+001
2.141077e+002,4.679402e+001
2.150719e+002,5.366331e+001
2.160362e+002,5.671912e+001
2.170004e+002,5.657777e+001
2.179646e+002,4.948198e+001
2.189289e+002,4.400618e+001
2.198931e+002,3.882087e+001
2.208573e+002,3.571107e+001
2.218216e+002,3.795150e+001
2.227858e+002,5.285534e+001
2.237500e+002,6.896539e+001
2.247143e+002,8.576440e+001
2.256785e+002,1.003806e+002
2.266427e+002,1.080761e+002
2.276070e+002,9.408452e+001
2.285712e+002,6.905223e+001
2.295354e+002,4.555148e+001
2.304997e+002,2.742122e+001
2.314639e+002,1.440657e+001
2.324281e+002,6.167334e+000
2.333924e+002,2.956336e+000
2.343566e+002,1.559338e+000
2.353208e+002,1.291382e+000
2.362851e+002,2.377380e+000
2.372493e+002,3.064709e+000
2.382135e+002,3.000830e+000
2.391778e+002,2.809289e+000
2.401420e+002,2.943713e+000
2.411062e+002,3.670581e+000
2.420705e+002,3.814185e+000
2.430347e+002,2.338233e+000
2.439989e+002,2.736450e-001
2.449632e+002,-1.772412e+000
2.459274e+002,-3.363806e+000
2.468916e+002,-4.191406e+000
2.478559e+002,-3.513709e+000
2.488201e+002,-1.925049e+000
2.497843e+002,-6.660522e-001
2.507486e+002,-1.206348e+000
2.517128e+002,-4.097034e+000
2.526770e+002,-5.532458e+000
2.536413e+002,-5.545923e+000
2.546055e+002,-4.476489e+000
2.555697e+002,-2.770545e+000
2.565340e+002,1.612183e-001
2.574982e+002,3.122900e+000
2.584625e+002,7.470752e+000
2.594267e+002,1.176648e+001
2.603909e+002,1.330831e+001
2.613552e+002,7.229871e+000
2.623194e+002,1.458789e+000
2.632836e+002,1.209961e-001
2.642479e+002,2.365039e+000
2.652121e+002,5.468152e+000
2.661763e+002,5.359595e+000
2.671406e+002,3.352612e+000
2.681048e+002,1.075500e+000
2.690690e+002,-1.086645e+000
2.700333e+002,-2.827124e+000
2.709975e+002,-2.567786e+000
2.719617e+002,7.750244e-001
2.729260e+002,2.619934e+000
2.738902e+002,9.134033e-001
2.748544e+002,-4.274133e+000
2.758187e+002,-7.185400e+000
2.767829e+002,-5.534253e+000
2.777471e+002,-3.871899e+000
2.787114e+002,-3.839160e+000
2.796756e+002,-5.579126e+000
2.806398e+002,-6.443665e+000
2.816041e+002,-3.467236e+000
2.825683e+002,1.019409e-001
2.835325e+002,2.508533e+000
2.844968e+002,3.015710e+000
2.854610e+002,2.582617e+000
2.864252e+002,3.889331e+000
2.873895e+002,5.951343e+000
2.883537e+002,7.306018e+000
2.893179e+002,7.056702e+000
2.902822e+002,5.158227e+000
2.912464e+002,2.534595e+000
2.922106e+002,-1.382825e+000
2.931749e+002,-5.031360e+000
2.941391e+002,-7.474646e+000
2.951033e+002,-8.607434e+000
2.960676e+002,-8.914881e+000
2.970318e+002,-8.370813e+000
2.979960e+002,-7.191186e+000
2.989603e+002,-5.544238e+000
2.999245e+002,-3.546484e+000
3.008887e+002,-1.019800e+000
3.018530e+002,2.943054e+000
3.028172e+002,7.031494e+000
3.037814e+002,9.991040e+000
3.047457e+002,1.076303e+001
3.057099e+002,9.717908e+000
3.066741e+002,8.509436e+000
3.076384e+002,7.071033e+000
3.086026e+002,5.193811e+000
3.095668e+002,2.600305e+000
3.105311e+002,-1.085364e+000
3.114953e+002,-3.472205e+000
3.124595e+002,-4.450269e+000
3.134238e+002,-4.540454e+000
3.143880e+002,-4.351575e+000
3.153522e+002,-4.068677e+000
3.163165e+002,-3.183545e+000
3.172807e+002,-8.278198e-001
3.182449e+002,1.972473e+000
3.192092e+002,3.996069e+000
3.201734e+002,4.142908e+000
3.211376e+002,3.587366e+000
3.221019e+002,3.007837e+000
3.230661e+002,2.680737e+000
3.240303e+002,3.113940e+000
3.249946e+002,5.102685e+000
3.259588e+002,8.017993e+000
3.269230e+002,8.365051e+000
3.278873e+002,6.026953e+000
3.288515e+002,2.782080e+000
3.298157e+002,1.805652e+000
3.307800e+002,5.426489e+000
3.317442e+002,7.756518e+000
3.327084e+002,7.705786e+000
3.336727e+002,6.551270e+000
3.346369e+002,6.688513e+000
3.356011e+002,1.037961e+001
3.365654e+002,1.294396e+001
3.375296e+002,1.235648e+001
3.384938e+002,1.016249e+001
3.394581e+002,8.923523e+000
3.404223e+002,1.149674e+001
3.413865e+002,1.485945e+001
3.423508e+002,1.625656e+001
3.433150e+002,1.595190e+001
3.442792e+002,1.472385e+001
3.452435e+002,1.351927e+001
3.462077e+002,1.263770e+001
3.471719e+002,1.380583e+001
3.481362e+002,1.696521e+001
3.491004e+002,2.231034e+001
3.500646e+002,3.018033e+001
3.510289e+002,3.671593e+001
3.519931e+002,5.300607e+001
3.529573e+002,8.093340e+001
3.539216e+002,1.180776e+002
3.548858e+002,1.628924e+002
3.558500e+002,2.360668e+002
3.568143e+002,2.851742e+002
3.577785e+002,2.873848e+002
3.587427e+002,2.544947e+002
3.597070e+002,2.064761e+002
3.606712e+002,1.567382e+002
3.616354e+002,1.116117e+002
3.625997e+002,7.747687e+001
3.635639e+002,5.425553e+001
3.645281e+002,4.006865e+001
3.654924e+002,3.170665e+001
3.664566e+002,3.103892e+001
3.674208e+002,2.953791e+001
3.683851e+002,2.691808e+001
3.693493e+002,2.346897e+001
3.703135e+002,1.981223e+001
3.712778e+002,1.534786e+001
3.722420e+002,1.193528e+001
3.732062e+002,9.446228e+000
3.741705e+002,8.081409e+000
3.751347e+002,8.343994e+000
3.760989e+002,1.175209e+001
3.770632e+002,1.505824e+001
3.780274e+002,1.677715e+001
3.789916e+002,1.701852e+001
3.799559e+002,1.609923e+001
3.809201e+002,1.421426e+001
3.818844e+002,1.168185e+001
3.828486e+002,9.031408e+000
3.838128e+002,6.400415e+000
3.847771e+002,4.664563e+000
3.857413e+002,5.177002e+000
3.867055e+002,9.421252e+000
3.876698e+002,1.217258e+001
3.886340e+002,1.179576e+001
3.895982e+002,1.062020e+001
3.905625e+002,1.221282e+001
3.915267e+002,1.970592e+001
3.924909e+002,2.486572e+001
3.934552e+002,2.583329e+001
3.944194e+002,2.432925e+001
3.953836e+002,2.197977e+001
3.963479e+002,1.932881e+001
3.973121e+002,1.707649e+001
3.982763e+002,1.598355e+001
3.992406e+002,1.559573e+001
4.002048e+002,1.524747e+001
4.011690e+002,1.427494e+001
4.021333e+002,1.279418e+001
4.030975e+002,1.190450e+001
4.040617e+002,1.160878e+001
4.050260e+002,1.182239e+001
4.059902e+002,1.250244e+001
4.069544e+002,1.382382e+001
4.079187e+002,1.510389e+001
4.088829e+002,1.700414e+001
4.098471e+002,1.834838e+001
4.108114e+002,1.784544e+001
4.117756e+002,1.459344e+001
4.127398e+002,1.230502e+001
4.137041e+002,1.262007e+001
4.146683e+002,1.409387e+001
4.156325e+002,1.611948e+001
4.165968e+002,1.833184e+001
4.175610e+002,1.998332e+001
4.185252e+002,1.933130e+001
4.194895e+002,1.762703e+001
4.204537e+002,1.622595e+001
4.214179e+002,1.599850e+001
4.223822e+002,1.696649e+001
4.233464e+002,1.976535e+001
4.243106e+002,2.507916e+001
4.252749e+002,2.894354e+001
4.262391e+002,2.829751e+001
4.272033e+002,2.249424e+001
4.281676e+002,2.055556e+001
4.291318e+002,2.472285e+001
4.300960e+002,3.070043e+001
4.310603e+002,3.663017e+001
4.320245e+002,4.239008e+001
4.329887e+002,5.032281e+001
4.339530e+002,6.014054e+001
4.349172e+002,7.491191e+001
4.358814e+002,9.876621e+001
4.368457e+002,1.312314e+002
4.378099e+002,1.687755e+002
4.387741e+002,2.105203e+002
4.397384e+002,2.502565e+002
4.407026e+002,2.665943e+002
4.416668e+002,2.535715e+002
4.426311e+002,2.179417e+002
4.435953e+002,1.819934e+002
4.445595e+002,1.398214e+002
4.455238e+002,1.059469e+002
4.464880e+002,8.312392e+001
4.474522e+002,6.880133e+001
4.484165e+002,5.802542e+001
4.493807e+002,5.183105e+001
4.503449e+002,4.692651e+001
4.513092e+002,4.241923e+001
4.522734e+002,3.827106e+001
4.532376e+002,3.464198e+001
4.542019e+002,3.180457e+001
4.551661e+002,2.950444e+001
4.561303e+002,2.713021e+001
4.570946e+002,2.484440e+001
4.580588e+002,2.303221e+001
4.590230e+002,2.212923e+001
4.599873e+002,2.223787e+001
4.609515e+002,2.154738e+001
4.619157e+002,1.968148e+001
4.628800e+002,1.773745e+001
4.638442e+002,1.663771e+001
4.648084e+002,1.648783e+001
4.657727e+002,1.703763e+001
4.667369e+002,1.914678e+001
4.677011e+002,2.114785e+001
4.686654e+002,2.187951e+001
4.696296e+002,2.093989e+001
4.705938e+002,1.956892e+001
4.715581e+002,1.848857e+001
4.725223e+002,1.753317e+001
4.734865e+002,1.670388e+001
4.744508e+002,1.598604e+001
4.754150e+002,1.529337e+001
4.763792e+002,1.410741e+001
4.773435e+002,1.269088e+001
4.783077e+002,1.199064e+001
4.792719e+002,1.242857e+001
4.802362e+002,1.376259e+001
4.812004e+002,1.451788e+001
4.821646e+002,1.462476e+001
4.831289e+002,1.404824e+001
4.840931e+002,1.186793e+001
4.850573e+002,8.853564e+000
4.860216e+002,7.253808e+000
4.869858e+002,9.681799e+000
4.879500e+002,1.153280e+001
4.889143e+002,1.089780e+001
4.898785e+002,8.738385e+000
4.908427e+002,6.692492e+000
4.918070e+002,6.110168e+000
4.927712e+002,6.273065e+000
4.937354e+002,5.879016e+000
4.946997e+002,5.111823e+000
4.956639e+002,4.435632e+000
4.966281e+002,4.330328e+000
4.975924e+002,4.877350e+000
4.985566e+002,4.495703e+000
4.995208e+002,2.390735e+000
5.004851e+002,6.851867e-001
5.014493e+002,1.277454e+000
5.024135e+002,4.893909e+000
5.033778e+002,7.387073e+000
5.043420e+002,8.014557e+000
5.053063e+002,8.112744e+000
5.062705e+002,8.045880e+000
5.072347e+002,7.876660e+000
5.081990e+002,7.581848e+000
5.091632e+002,6.965289e+000
5.101274e+002,6.418805e+000
5.110917e+002,6.461908e+000
5.120559e+002,7.045239e+000
5.130201e+002,7.582343e+000
5.139844e+002,6.657935e+000
5.149486e+002,4.400061e+000
5.159128e+002,3.230939e+000
5.168771e+002,3.756812e+000
5.178413e+002,5.111487e+000
5.188055e+002,5.309625e+000
5.197698e+002,3.003510e+000
5.207340e+002,1.548297e+000
5.216982e+002,1.588202e+000
5.226625e+002,2.144617e+000
5.236267e+002,2.112073e+000
5.245909e+002,1.007849e+000
5.255552e+002,-2.995178e-001
5.265194e+002,-1.848737e+000
5.274836e+002,-3.040088e+000
5.284479e+002,-3.037787e+000
5.294121e+002,-1.425433e+000
5.303763e+002,8.205749e-001
5.313406e+002,1.055762e+000
5.323048e+002,8.146362e-002
5.332690e+002,-5.594910e-001
5.342333e+002,-9.039917e-002
5.351975e+002,1.306097e+000
5.361617e+002,2.048010e+000
5.371260e+002,1.569952e+000
5.380902e+002,1.421185e+000
5.390544e+002,1.902930e+000
5.400187e+002,2.833136e+000
5.409829e+002,3.769836e+000
5.419471e+002,5.022357e+000
5.429114e+002,5.893799e+000
5.438756e+002,5.958154e+000
5.448398e+002,5.540515e+000
5.458041e+002,5.190356e+000
5.467683e+002,5.391626e+000
5.477325e+002,5.628369e+000
5.486968e+002,4.981153e+000
5.496610e+002,3.796381e+000
5.506252e+002,2.781390e+000
5.515895e+002,2.520337e+000
5.525537e+002,2.981415e+000
5.535179e+002,2.630756e+000
5.544822e+002,1.158099e+000
5.554464e+002,1.379395e-001
5.564106e+002,7.089966e-001
5.573749e+002,2.855060e+000
5.583391e+002,3.944824e+000
5.593033e+002,2.803473e+000
5.602676e+002,1.594287e+000
5.612318e+002,7.209839e-001
5.621960e+002,2.431519e-001
5.631603e+002,6.666259e-002
5.641245e+002,2.273865e-001
5.650887e+002,6.316651e-001
5.660530e+002,1.398242e+000
5.670172e+002,2.305530e+000
5.679814e+002,2.839679e+000
5.689457e+002,2.402771e+000
5.699099e+002,1.131140e+000
5.708741e+002,1.299585e+000
5.718384e+002,3.216504e+000
5.728026e+002,4.934119e+000
5.737668e+002,4.552209e+000
5.747311e+002,1.397137e+000
5.756953e+002,-6.366760e-001
5.766595e+002,-7.336060e-001
5.776238e+002,-7.023621e-001
5.785880e+002,-1.372687e+000
5.795522e+002,-2.687756e+000
5.805165e+002,-3.664093e+000
5.814807e+002,-3.041315e+000
5.824449e+002,-2.347278e+000
5.834092e+002,-2.919006e+000
5.843734e+002,-4.298578e+000
5.853376e+002,-5.010461e+000
5.863019e+002,-3.112714e+000
5.872661e+002,7.551941e-001
5.882303e+002,2.559491e+000
5.891946e+002,2.261060e+000
5.901588e+002,1.520435e+000
5.911230e+002,2.155811e+000
5.920873e+002,4.828845e+000
5.930515e+002,6.102685e+000
5.940157e+002,5.801733e+000
5.949800e+002,4.872168e+000
5.959442e+002,3.317523e+000
5.969084e+002,1.232776e+000
5.978727e+002,-1.360840e-001
5.988369e+002,1.074182e+000
5.998011e+002,2.260901e+000
6.007654e+002,2.157678e+000
6.017296e+002,9.615051e-001
6.026938e+002,-3.620728e-001
6.036581e+002,-8.272156e-001
6.046223e+002,-4.625305e-001
6.055865e+002,5.921631e-001
6.065508e+002,2.274298e+000
6.075150e+002,3.637079e+000
6.084792e+002,3.544257e+000
6.094435e+002,1.468787e+000
6.104077e+002,8.231140e-001
6.113719e+002,2.809546e+000
6.123362e+002,4.418872e+000
6.133004e+002,3.638013e+000
6.142646e+002,4.581238e-001
6.152289e+002,-1.880634e+000
6.161931e+002,-1.002679e+000
6.171573e+002,2.656860e-002
6.181216e+002,1.977173e-001
6.190858e+002,-3.687866e-001
6.200500e+002,-1.019367e+000
6.210143e+002,-1.256488e+000
6.219785e+002,-1.095355e+000
6.229427e+002,-5.221680e-001
6.239070e+002,3.391601e-001
6.248712e+002,1.017328e+000
6.258354e+002,1.053650e+000
6.267997e+002,3.921875e-001
6.277639e+002,5.811402e-001
6.287281e+002,2.132050e+000
6.296924e+002,3.423724e+000
6.306566e+002,3.690570e+000
6.316208e+002,3.006940e+000
6.325851e+002,2.213373e+000
6.335493e+002,9.430481e-001
6.345135e+002,3.941101e-001
6.354778e+002,1.220471e+000
6.364420e+002,2.972107e+000
6.374063e+002,4.900409e+000
6.383705e+002,6.630890e+000
6.393347e+002,7.745978e+000
6.402990e+002,7.671088e+000
6.412632e+002,6.763422e+000
6.422274e+002,5.737799e+000
6.431917e+002,5.112213e+000
6.441559e+002,4.841931e+000
6.451201e+002,4.435651e+000
6.460844e+002,3.657416e+000
6.470486e+002,3.170477e+000
6.480128e+002,3.518365e+000
6.489771e+002,4.426068e+000
6.499413e+002,4.661810e+000
6.509055e+002,3.549805e+000
6.518698e+002,2.195837e+000
6.528340e+002,2.462402e-001
6.537982e+002,-1.477295e+000
6.547625e+002,-1.755316e+000
6.557267e+002,2.913025e-001
6.566909e+002,2.858368e+000
6.576552e+002,3.158984e+000
6.586194e+002,2.155048e+000
6.595836e+002,1.116364e+000
6.605479e+002,7.182190e-001
6.615121e+002,9.260742e-001
6.624763e+002,1.489081e+000
6.634406e+002,2.765515e+000
6.644048e+002,3.385101e+000
6.653690e+002,2.494153e+000
6.663333e+002,8.855591e-001
6.672975e+002,2.017334e-001
6.682617e+002,1.164191e+000
6.692260e+002,2.158734e+000
6.701902e+002,3.004749e+000
6.711544e+002,3.573376e+000
6.721187e+002,3.514752e+000
6.730829e+002,2.739331e+000
6.740471e+002,1.942499e+000
6.750114e+002,2.376062e+000
6.759756e+002,3.358014e+000
6.769398e+002,4.538696e+000
6.779041e+002,5.682996e+000
6.788683e+002,6.150879e+000
6.798325e+002,4.677216e+000
6.807968e+002,2.355408e-001
6.817610e+002,-1.692200e+000
6.827252e+002,7.547852e-001
6.836895e+002,4.051849e+000
6.846537e+002,4.806470e+000
6.856179e+002,2.364471e+000
6.865822e+002,8.901245e-001
6.875464e+002,2.529578e+000
6.885106e+002,4.167609e+000
6.894749e+002,4.297071e+000
6.904391e+002,3.066205e+000
6.914034e+002,1.745807e+000
6.923676e+002,1.387524e+000
6.933318e+002,1.776489e+000
6.942961e+002,2.920605e+000
6.952603e+002,4.453192e+000
6.962245e+002,5.172442e+000
6.971888e+002,3.906531e+000
6.981530e+002,5.706970e-001
6.991172e+002,-8.655396e-001
7.000815e+002,3.666992e-002
7.010457e+002,1.282910e+000
7.020099e+002,2.595819e+000
7.029742e+002,3.867578e+000
7.039384e+002,4.375238e+000
7.049026e+002,3.264807e+000
7.058669e+002,2.160309e+000
7.068311e+002,1.179394e+000
7.077953e+002,5.617920e-001
7.087596e+002,8.643738e-001
7.097238e+002,2.478540e+000
7.106880e+002,4.182684e+000
7.116523e+002,3.063623e+000
7.126165e+002,8.278748e-001
7.135807e+002,3.703491e-001
7.145450e+002,2.767145e+000
7.155092e+002,6.721906e+000
7.164734e+002,8.647497e+000
7.174377e+002,7.346295e+000
7.184019e+002,6.199750e+000
7.193661e+002,5.120062e+000
7.203304e+002,4.150549e+000
7.212946e+002,3.317706e+000
7.222589e+002,2.611224e+000
7.232231e+002,2.379376e+000
7.241873e+002,3.038513e+000
7.251516e+002,3.859424e+000
7.261158e+002,4.502801e+000
7.270800e+002,4.862134e+000
7.280443e+002,5.015570e+000
7.290085e+002,5.101495e+000
7.299727e+002,5.032672e+000
7.309370e+002,4.562818e+000
7.319012e+002,3.766089e+000
7.328654e+002,3.038928e+000
7.338297e+002,2.764575e+000
7.347939e+002,2.972119e+000
7.357581e+002,2.625348e+000
7.367224e+002,8.451172e-001
7.376866e+002,-3.020325e-001
7.386508e+002,3.915405e-002
7.396151e+002,1.423352e+000
7.405793e+002,2.679730e+000
7.415435e+002,3.752557e+000
7.425078e+002,4.236237e+000
7.434720e+002,3.295727e+000
7.444362e+002,2.035950e+000
7.454005e+002,1.851819e+000
7.463647e+002,3.297003e+000
7.473289e+002,5.213470e+000
7.482932e+002,5.301202e+000
7.492574e+002,4.174866e+000
7.502216e+002,2.971161e+000
7.511859e+002,1.864471e+000
7.521501e+002,8.645386e-001
7.531143e+002,3.269653e-002
7.540786e+002,-6.619385e-001
7.550428e+002,-8.582581e-001
7.560070e+002,-2.438354e-001
7.569713e+002,4.330567e-001
7.579355e+002,7.072937e-001
7.588997e+002,5.462769e-001
7.598640e+002,2.879211e-001
7.608282e+002,-1.383911e-001
7.617924e+002,-2.505310e-001
7.627567e+002,3.397217e-001
7.637209e+002,1.403870e+000
7.646851e+002,2.424414e+000
7.656494e+002,2.965198e+000
7.666136e+002,3.331586e+000
7.675778e+002,5.398267e+000
7.685421e+002,8.898468e+000
7.695063e+002,1.084954e+001
7.704705e+002,9.450824e+000
7.714348e+002,5.636029e+000
7.723990e+002,3.200183e+000
7.733632e+002,3.511590e+000
7.743275e+002,3.090625e+000
7.752917e+002,9.068298e-001
7.762559e+002,-1.468091e+000
7.772202e+002,-2.520734e+000
7.781844e+002,-1.875690e+000
7.791486e+002,-9.413940e-001
7.801129e+002,-9.887268e-001
7.810771e+002,-1.241779e+000
7.820413e+002,-9.943787e-001
7.830056e+002,-3.274414e-001
7.839698e+002,8.862305e-002
7.849340e+002,-5.650085e-001
7.858983e+002,-2.229272e+000
7.868625e+002,-3.165625e+000
7.878267e+002,-3.506280e+000
7.887910e+002,-3.139709e+000
7.897552e+002,-1.265301e+000
7.907194e+002,1.777527e+000
7.916837e+002,2.972785e+000
7.926479e+002,5.194702e-002
7.936121e+002,-2.258521e+000
7.945764e+002,-2.975360e+000
7.955406e+002,-2.716736e+000
7.965048e+002,-2.015949e+000
7.974691e+002,-1.049341e+000
7.984333e+002,-1.097839e-001
7.993975e+002,1.881104e-002
8.003618e+002,-1.025269e-001
8.013260e+002,3.590698e-001
8.022902e+002,1.464502e+000
8.032545e+002,2.446088e+000
8.042187e+002,2.125745e+000
8.051829e+002,1.683044e-001
8.061472e+002,-1.025501e+000
8.071114e+002,-1.219611e+000
8.080756e+002,-1.171747e+000
8.090399e+002,-1.345752e+000
8.100041e+002,-1.624701e+000
8.109683e+002,-1.289551e+000
8.119326e+002,6.010559e-001
8.128968e+002,2.085669e+000
8.138610e+002,1.981085e+000
8.148253e+002,1.280896e+000
8.157895e+002,1.343103e+000
8.167537e+002,2.810626e+000
8.177180e+002,4.762854e+000
8.186822e+002,5.419690e+000
8.196464e+002,5.271527e+000
8.206107e+002,5.279968e+000
8.215749e+002,5.629309e+000
8.225391e+002,6.163440e+000
8.235034e+002,6.619458e+000
8.244676e+002,6.819696e+000
8.254318e+002,7.464270e+000
8.263961e+002,9.562164e+000
8.273603e+002,1.106284e+001
8.283245e+002,1.051669e+001
8.292888e+002,8.386963e+000
8.302530e+002,6.781726e+000
8.312172e+002,7.082080e+000
8.321815e+002,7.429980e+000
8.331457e+002,6.163544e+000
8.341099e+002,4.373218e+000
8.350742e+002,3.502643e+000
8.360384e+002,4.246020e+000
8.370026e+002,6.078418e+000
8.379669e+002,8.096026e+000
8.389311e+002,1.025837e+001
8.398953e+002,1.066162e+001
8.408596e+002,8.461939e+000
8.418238e+002,5.309906e+000
8.427880e+002,3.134778e+000
8.437523e+002,2.143518e+000
8.447165e+002,1.136658e+000
8.456807e+002,-5.266052e-001
8.466450e+002,-1.678394e+000
8.476092e+002,-1.470435e+000
8.485734e+002,-5.227661e-001
8.495377e+002,-2.717773e-001
8.505019e+002,-1.751770e+000
8.514661e+002,-3.323688e+000
8.524304e+002,-2.195648e+000
8.533946e+002,1.584106e-001
8.543588e+002,1.365649e+000
8.553231e+002,5.369568e-001
8.562873e+002,-1.462860e+000
8.572515e+002,-2.737701e+000
8.582158e+002,-3.087073e+000
8.591800e+002,-3.152802e+000
8.601442e+002,-2.761255e+000
8.611085e+002,-2.368140e+000
8.620727e+002,-2.184692e+000
8.630369e+002,-2.185052e+000
8.640012e+002,-2.380866e+000
8.649654e+002,-3.271271e+000
8.659296e+002,-3.795490e+000
8.668939e+002,-3.062225e+000
8.678581e+002,-1.845221e+000
8.688223e+002,-1.371381e+000
8.697866e+002,-2.207861e+000
8.707508e+002,-3.411627e+000
8.717150e+002,-2.694366e+000
8.726793e+002,-5.879577e-001
8.736435e+002,3.082947e-001
8.746077e+002,-6.255798e-001
8.755720e+002,-2.140265e+000
8.765362e+002,-2.500556e+000
8.775004e+002,-1.249878e+000
8.784647e+002,-8.195190e-001
8.794289e+002,-2.246613e+000
8.803931e+002,-3.342523e+000
8.813574e+002,-2.917847e+000
8.823216e+002,-1.758429e+000
8.832858e+002,-1.649261e+000
8.842501e+002,-3.638641e+000
8.852143e+002,-5.708887e+000
8.861785e+002,-5.750305e+000
8.871428e+002,-4.801141e+000
8.881070e+002,-3.769946e+000
8.890712e+002,-3.022217e+000
8.900355e+002,-2.659283e+000
8.909997e+002,-2.868396e+000
8.919639e+002,-3.748645e+000
8.929282e+002,-4.288135e+000
8.938924e+002,-4.416028e+000
8.948566e+002,-4.382806e+000
8.958209e+002,-4.215106e+000
8.967851e+002,-3.958557e+000
8.977493e+002,-3.823596e+000
8.987136e+002,-3.864520e+000
8.996778e+002,-4.144897e+000
9.006420e+002,-4.951111e+000
9.016063e+002,-5.756982e+000
9.025705e+002,-5.995593e+000
9.035347e+002,-5.542389e+000
9.044990e+002,-4.808948e+000
9.054632e+002,-4.312646e+000
9.064274e+002,-4.107123e+000
9.073917e+002,-4.072980e+000
9.083559e+002,-4.180505e+000
9.093201e+002,-4.157763e+000
9.102844e+002,-3.760260e+000
9.112486e+002,-3.024231e+000
9.122128e+002,-2.435169e+000
9.131771e+002,-1.967120e+000
9.141413e+002,-1.716833e+000
9.151055e+002,-1.620300e+000
9.160698e+002,-1.751562e+000
9.170340e+002,-2.408099e+000
9.179982e+002,-3.630450e+000
9.189625e+002,-4.635053e+000
9.199267e+002,-4.605927e+000
9.208909e+002,-4.092279e+000
9.218552e+002,-3.184613e+000
9.228194e+002,-2.223675e+000
9.237836e+002,-2.237207e+000
9.247479e+002,-4.066022e+000
9.257121e+002,-7.131989e+000
9.266763e+002,-7.924414e+000
9.276406e+002,-4.879901e+000
9.286048e+002,-3.093262e+000
9.295690e+002,-3.937103e+000
9.305333e+002,-5.664185e+000
9.314975e+002,-6.354394e+000
9.324617e+002,-5.795056e+000
9.334260e+002,-4.974011e+000
9.343902e+002,-3.613422e+000
9.353545e+002,-2.731457e+000
9.363187e+002,-3.301453e+000
9.372830e+002,-4.615991e+000
9.382472e+002,-5.275506e+000
9.392114e+002,-4.399591e+000
9.401757e+002,-2.716419e+000
9.411399e+002,-2.091028e+000
9.421041e+002,-2.414197e+000
9.430684e+002,-2.809723e+000
9.440326e+002,-3.285919e+000
9.449968e+002,-3.581933e+000
9.459611e+002,-3.186316e+000
9.469253e+002,-1.865277e+000
9.478895e+002,-8.312988e-001
9.488538e+002,-1.476379e-001
9.498180e+002,1.244629e-001
9.507822e+002,-6.107544e-001
9.517465e+002,-1.618646e+000
9.527107e+002,-1.593073e+000
9.536749e+002,4.968262e-002
9.546392e+002,1.726367e+000
9.556034e+002,4.503418e-001
9.565676e+002,-1.610779e+000
9.575319e+002,-1.029083e+000
9.584961e+002,2.326740e+000
9.594603e+002,5.597547e+000
9.604246e+002,5.635681e+000
9.613888e+002,2.386023e+000
9.623530e+002,6.517944e-001
9.633173e+002,1.246112e+000
9.642815e+002,2.183850e+000
9.652457e+002,3.597333e+000
9.662100e+002,5.170813e+000
9.671742e+002,5.951648e+000
9.681384e+002,5.595514e+000
9.691027e+002,6.738428e+000
9.700669e+002,8.334271e+000
9.710311e+002,1.479016e+001
9.719954e+002,3.264925e+001
9.729596e+002,5.795053e+001
9.739238e+002,8.377495e+001
9.748881e+002,1.050730e+002
9.758523e+002,1.186875e+002
9.768165e+002,1.116192e+002
9.777808e+002,7.870783e+001
9.787450e+002,5.225185e+001
9.797092e+002,3.702864e+001
9.806735e+002,2.799788e+001
9.816377e+002,2.084603e+001
9.826019e+002,1.559078e+001
9.835662e+002,1.272955e+001
9.845304e+002,1.495937e+001
9.854946e+002,1.678155e+001
9.864589e+002,1.559831e+001
9.874231e+002,1.329033e+001
9.883873e+002,1.226321e+001
9.893516e+002,1.336941e+001
9.903158e+002,1.554017e+001
9.912800e+002,1.764608e+001
9.922443e+002,1.966738e+001
9.932085e+002,2.092022e+001
9.941727e+002,2.126552e+001
9.951370e+002,2.242877e+001
9.961012e+002,2.509539e+001
9.970654e+002,2.928602e+001
9.980297e+002,3.565392e+001
9.989939e+002,3.686904e+001
9.999581e+002,5.466065e+001
1.000922e+003,7.869529e+001
1.001887e+003,1.283595e+002
1.002851e+003,2.498394e+002
1.003815e+003,4.221867e+002
1.004779e+003,5.456752e+002
1.005744e+003,5.453038e+002
1.006708e+003,4.648842e+002
1.007672e+003,3.577554e+002
1.008636e+003,2.386861e+002
1.009600e+003,1.452387e+002
1.010565e+003,9.378340e+001
1.011529e+003,7.143834e+001
1.012493e+003,5.410438e+001
1.013457e+003,4.275066e+001
1.014422e+003,3.453173e+001
1.015386e+003,3.009320e+001
1.016350e+003,2.713736e+001
1.017314e+003,2.550194e+001
1.018279e+003,2.441931e+001
1.019243e+003,2.233094e+001
1.020207e+003,1.838032e+001
1.021171e+003,1.525089e+001
1.022135e+003,1.654226e+001
1.023100e+003,1.892892e+001
1.024064e+003,1.936354e+001
1.025028e+003,1.778766e+001
1.025992e+003,1.601762e+001
1.026957e+003,1.573465e+001
1.027921e+003,1.670722e+001
1.028885e+003,1.704141e+001
1.029849e+003,1.622089e+001
1.030814e+003,1.597389e+001
1.031778e+003,1.699904e+001
1.032742e+003,1.803357e+001
1.033706e+003,1.777364e+001
1.034671e+003,1.626880e+001
1.035635e+003,1.501479e+001
1.036599e+003,1.449326e+001
1.037563e+003,1.450468e+001
1.038527e+003,1.496921e+001
1.039492e+003,1.577477e+001
1.040456e+003,1.698058e+001
1.041420e+003,1.850650e+001
1.042384e+003,1.995185e+001
1.043349e+003,2.068483e+001
1.044313e+003,2.068374e+001
1.045277e+003,2.085913e+001
1.046241e+003,2.136542e+001
1.047206e+003,2.156098e+001
1.048170e+003,2.076599e+001
1.049134e+003,1.952725e+001
1.050098e+003,1.928809e+001
1.051063e+003,2.054584e+001
1.052027e+003,2.181125e+001
1.052991e+003,2.273065e+001
1.053955e+003,2.317183e+001
1.054919e+003,2.290891e+001
1.055884e+003,2.211853e+001
1.056848e+003,2.101688e+001
1.057812e+003,1.978928e+001
1.058776e+003,1.898306e+001
1.059741e+003,1.999936e+001
1.060705e+003,2.242764e+001
1.061669e+003,2.346050e+001
1.062633e+003,2.230897e+001
1.063598e+003,2.082719e+001
1.064562e+003,2.101986e+001
1.065526e+003,2.279980e+001
1.066490e+003,2.368296e+001
1.067454e+003,2.279077e+001
1.068419e+003,2.204722e+001
1.069383e+003,2.143306e+001
1.070347e+003,2.127874e+001
1.071311e+003,2.226122e+001
1.072276e+003,2.414454e+001
1.073240e+003,2.582549e+001
1.074204e+003,2.648006e+001
1.075168e+003,2.635713e+001
1.076133e+003,2.569722e+001
1.077097e+003,2.471011e+001
1.078061e+003,2.434634e+001
1.079025e+003,2.504459e+001
1.079990e+003,2.599274e+001
1.080954e+003,2.584080e+001
1.081918e+003,2.430666e+001
1.082882e+003,2.367200e+001
1.083846e+003,2.445829e+001
1.084811e+003,2.565596e+001
1.085775e+003,2.801666e+001
1.086739e+003,3.012363e+001
1.087703e+003,3.011795e+001
1.088668e+003,2.793989e+001
1.089632e+003,2.598567e+001
1.090596e+003,2.634757e+001
1.091560e+003,2.797993e+001
1.092525e+003,2.877032e+001
1.093489e+003,2.884949e+001
1.094453e+003,2.883246e+001
1.095417e+003,2.897339e+001
1.096381e+003,2.939746e+001
1.097346e+003,3.047187e+001
1.098310e+003,3.265071e+001
1.099274e+003,3.384545e+001
1.100238e+003,3.335209e+001
1.101203e+003,3.291653e+001
1.102167e+003,3.298864e+001
1.103131e+003,3.336314e+001
1.104095e+003,3.385301e+001
1.105060e+003,3.434410e+001
1.106024e+003,3.437461e+001
1.106988e+003,3.302354e+001
1.107952e+003,3.170924e+001
1.108917e+003,3.287006e+001
1.109881e+003,3.591962e+001
1.110845e+003,3.841181e+001
1.111809e+003,3.896037e+001
1.112773e+003,3.837374e+001
1.113738e+003,3.877969e+001
1.114702e+003,4.120553e+001
1.115666e+003,4.190992e+001
1.116630e+003,3.922558e+001
1.117595e+003,3.697128e+001
1.118559e+003,3.683859e+001
1.119523e+003,3.778781e+001
1.120487e+003,3.813038e+001
1.121452e+003,3.742314e+001
1.122416e+003,3.666401e+001
1.123380e+003,3.663253e+001
1.124344e+003,3.697995e+001
1.125308e+003,3.735589e+001
1.126273e+003,3.779685e+001
1.127237e+003,3.841767e+001
1.128201e+003,3.931191e+001
1.129165e+003,4.010372e+001
1.130130e+003,3.971305e+001
1.131094e+003,3.712641e+001
1.132058e+003,3.628511e+001
1.133022e+003,3.835490e+001
1.133987e+003,4.046071e+001
1.134951e+003,4.206721e+001
1.135915e+003,4.309684e+001
1.136879e+003,4.329192e+001
1.137844e+003,4.262562e+001
1.138808e+003,4.201283e+001
1.139772e+003,4.212832e+001
1.140736e+003,4.254030e+001
1.141700e+003,4.296433e+001
1.142665e+003,4.337356e+001
1.143629e+003,4.344686e+001
1.144593e+003,4.301383e+001
1.145557e+003,4.262032e+001
1.146522e+003,4.334712e+001
1.147486e+003,4.549307e+001
1.148450e+003,4.680006e+001
1.149414e+003,4.739626e+001
1.150379e+003,4.739515e+001
1.151343e+003,4.611492e+001
1.152307e+003,4.468740e+001
1.153271e+003,4.438912e+001
1.154235e+003,4.536016e+001
1.155200e+003,4.689671e+001
1.156164e+003,4.914711e+001
1.157128e+003,5.105358e+001
1.158092e+003,5.074620e+001
1.159057e+003,4.895373e+001
1.160021e+003,4.746126e+001
1.160985e+003,4.690863e+001
1.161949e+003,4.684956e+001
1.162914e+003,4.655874e+001
1.163878e+003,4.594087e+001
1.164842e+003,4.668409e+001
1.165806e+003,5.064885e+001
1.166771e+003,5.349120e+001
1.167735e+003,5.431705e+001
1.168699e+003,5.410752e+001
1.169663e+003,5.341811e+001
1.170627e+003,5.253612e+001
1.171592e+003,5.196209e+001
1.172556e+003,5.203493e+001
1.173520e+003,5.257938e+001
1.174484e+003,5.363690e+001
1.175449e+003,5.481615e+001
1.176413e+003,5.519717e+001
1.177377e+003,5.454938e+001
1.178341e+003,5.379735e+001
1.179306e+003,5.387785e+001
1.180270e+003,5.479606e+001
1.181234e+003,5.605618e+001
1.182198e+003,5.802471e+001
1.183162e+003,5.951989e+001
1.184127e+003,6.048143e+001
1.185091e+003,6.092165e+001
1.186055e+003,6.028584e+001
1.187019e+003,5.935818e+001
1.187984e+003,6.005124e+001
1.188948e+003,6.322931e+001
1.189912e+003,6.642352e+001
1.190876e+003,6.627713e+001
1.191841e+003,6.391308e+001
1.192805e+003,6.223658e+001
1.193769e+003,6.140018e+001
1.194733e+003,6.029659e+001
1.195698e+003,5.767575e+001
1.196662e+003,5.470900e+001
1.197626e+003,5.501200e+001
1.198590e+003,6.000242e+001
1.199554e+003,6.295535e+001
1.200519e+003,6.123093e+001
1.201483e+003,5.971702e+001
1.202447e+003,5.966522e+001
1.203411e+003,6.086143e+001
1.204376e+003,6.345616e+001
1.205340e+003,6.692205e+001
1.206304e+003,6.917234e+001
1.207268e+003,6.819437e+001
1.208233e+003,6.554292e+001
1.209197e+003,6.560201e+001
1.210161e+003,6.788245e+001
1.211125e+003,6.946220e+001
1.212089e+003,6.909380e+001
1.213054e+003,6.821083e+001
1.214018e+003,6.879117e+001
1.214982e+003,7.083543e+001
1.215946e+003,7.206358e+001
1.216911e+003,7.156149e+001
1.217875e+003,7.120490e+001
1.218839e+003,7.164961e+001
1.219803e+003,7.215459e+001
1.220768e+003,7.253811e+001
1.221732e+003,7.268108e+001
1.222696e+003,7.206950e+001
1.223660e+003,7.045221e+001
1.224625e+003,6.889439e+001
1.225589e+003,6.943780e+001
1.226553e+003,7.207533e+001
1.227517e+003,7.394426e+001
1.228481e+003,7.497893e+001
1.229446e+003,7.571532e+001
1.230410e+003,7.609377e+001
1.231374e+003,7.639805e+001
1.232338e+003,7.734837e+001
1.233303e+003,7.912328e+001
1.234267e+003,8.041466e+001
1.235231e+003,8.065748e+001
1.236195e+003,8.024360e+001
1.237160e+003,7.865254e+001
1.238124e+003,7.688432e+001
1.239088e+003,7.638075e+001
1.240052e+003,7.730580e+001
1.241016e+003,7.855304e+001
1.241981e+003,7.902798e+001
1.242945e+003,7.901732e+001
1.243909e+003,7.996120e+001
1.244873e+003,8.297352e+001
1.245838e+003,8.424824e+001
1.246802e+003,8.262120e+001
1.247766e+003,8.044377e+001
1.248730e+003,7.826062e+001
1.249695e+003,7.665807e+001
1.250659e+003,7.725856e+001
1.251623e+003,8.065334e+001
1.252587e+003,8.365068e+001
1.253552e+003,8.391380e+001
1.254516e+003,8.285743e+001
1.255480e+003,8.103716e+001
1.256444e+003,7.924325e+001
1.257408e+003,7.947370e+001
1.258373e+003,8.244633e+001
1.259337e+003,8.634700e+001
1.260301e+003,8.875684e+001
1.261265e+003,8.974696e+001
1.262230e+003,8.978023e+001
1.263194e+003,8.724609e+001
1.264158e+003,8.556332e+001
1.265122e+003,8.550822e+001
1.266087e+003,8.587834e+001
1.267051e+003,8.607133e+001
1.268015e+003,8.607208e+001
1.268979e+003,8.580045e+001
1.269943e+003,8.518086e+001
1.270908e+003,8.516022e+001
1.271872e+003,8.743240e+001
1.272836e+003,9.056746e+001
1.273800e+003,9.062386e+001
1.274765e+003,8.789532e+001
1.275729e+003,8.661019e+001
1.276693e+003,8.918845e+001
1.277657e+003,9.325790e+001
1.278622e+003,9.520125e+001
1.279586e+003,9.485337e+001
1.280550e+003,9.404710e+001
1.281514e+003,9.235352e+001
1.282479e+003,9.165996e+001
1.283443e+003,9.310961e+001
1.284407e+003,9.488728e+001
1.285371e+003,9.569035e+001
1.286335e+003,9.540475e+001
1.287300e+003,9.416640e+001
1.288264e+003,9.223128e+001
1.289228e+003,9.090200e+001
1.290192e+003,9.230096e+001
1.291157e+003,9.627928e+001
1.292121e+003,9.917720e+001
1.293085e+003,1.011295e+002
1.294049e+003,1.012801e+002
1.295014e+003,9.769834e+001
1.295978e+003,9.368074e+001
1.296942e+003,9.357322e+001
1.297906e+003,9.709903e+001
1.298870e+003,9.998756e+001
1.299835e+003,1.006713e+002
1.300799e+003,1.008431e+002
1.301763e+003,1.010122e+002
1.302727e+003,1.016062e+002
1.303692e+003,1.042054e+002
1.304656e+003,1.079495e+002
1.305620e+003,1.095227e+002
1.306584e+003,1.069875e+002
1.307549e+003,1.025458e+002
1.308513e+003,1.004328e+002
1.309477e+003,1.007212e+002
1.310441e+003,1.022466e+002
1.311406e+003,1.075760e+002
1.312370e+003,1.107025e+002
1.313334e+003,1.089506e+002
1.314298e+003,1.062794e+002
1.315263e+003,1.064987e+002
1.316227e+003,1.088612e+002
1.317191e+003,1.096071e+002
1.318155e+003,1.070004e+002
1.319120e+003,1.038749e+002
1.320084e+003,1.031315e+002
1.321048e+003,1.041541e+002
1.322012e+003,1.059434e+002
1.322976e+003,1.083163e+002
1.323941e+003,1.096551e+002
1.324905e+003,1.089710e+002
1.325869e+003,1.077429e+002
1.326833e+003,1.084415e+002
1.327798e+003,1.109913e+002
1.328762e+003,1.115491e+002
1.329726e+003,1.076356e+002
1.330690e+003,1.057486e+002
1.331655e+003,1.095370e+002
1.332619e+003,1.138932e+002
1.333583e+003,1.153574e+002
1.334547e+003,1.146187e+002
1.335511e+003,1.136656e+002
1.336476e+003,1.134107e+002
1.337440e+003,1.135390e+002
1.338404e+003,1.137475e+002
1.339368e+003,1.139953e+002
1.340333e+003,1.132544e+002
1.341297e+003,1.104639e+002
1.342261e+003,1.095990e+002
1.343225e+003,1.127403e+002
1.344190e+003,1.162977e+002
1.345154e+003,1.175263e+002
1.346118e+003,1.173635e+002
1.347082e+003,1.185256e+002
1.348047e+003,1.216860e+002
1.349011e+003,1.238094e+002
1.349975e+003,1.225817e+002
1.350939e+003,1.201288e+002
1.351903e+003,1.180836e+002
1.352868e+003,1.167646e+002
1.353832e+003,1.173438e+002
1.354796e+003,1.200043e+002
1.355760e+003,1.225335e+002
1.356725e+003,1.226903e+002
1.357689e+003,1.210975e+002
1.358653e+003,1.205039e+002
1.359617e+003,1.211283e+002
1.360582e+003,1.221400e+002
1.361546e+003,1.240885e+002
1.362510e+003,1.255459e+002
1.363474e+003,1.262097e+002
1.364438e+003,1.263273e+002
1.365403e+003,1.255403e+002
1.366367e+003,1.241683e+002
1.367331e+003,1.234870e+002
1.368295e+003,1.243689e+002
1.369260e+003,1.261828e+002
1.370224e+003,1.281444e+002
1.371188e+003,1.303633e+002
1.372152e+003,1.307905e+002
1.373117e+003,1.281718e+002
1.374081e+003,1.264438e+002
1.375045e+003,1.276670e+002
1.376009e+003,1.299682e+002
1.376974e+003,1.317515e+002
1.377938e+003,1.328899e+002
1.378902e+003,1.325161e+002
1.379866e+003,1.296701e+002
1.380830e+003,1.273993e+002
1.381795e+003,1.284350e+002
1.382759e+003,1.306389e+002
1.383723e+003,1.325244e+002
1.384687e+003,1.340488e+002
1.385652e+003,1.353237e+002
1.386616e+003,1.363739e+002
1.387580e+003,1.371652e+002
1.388544e+003,1.376409e+002
1.389509e+003,1.377058e+002
1.390473e+003,1.371717e+002
1.391437e+003,1.358497e+002
1.392401e+003,1.348326e+002
1.393365e+003,1.331480e+002
1.394330e+003,1.327146e+002
1.395294e+003,1.352910e+002
1.396258e+003,1.388133e+002
1.397222e+003,1.410005e+002
1.398187e+003,1.417221e+002
1.399151e+003,1.423582e+002
1.400115e+003,1.437060e+002
1.401079e+003,1.450052e+002
1.402044e+003,1.448473e+002
1.403008e+003,1.432494e+002
1.403972e+003,1.431807e+002
1.404936e+003,1.454940e+002
1.405901e+003,1.475020e+002
1.406865e+003,1.478711e+002
1.407829e+003,1.477937e+002
1.408793e+003,1.486545e+002
1.409757e+003,1.503293e+002
1.410722e+003,1.518317e+002
1.411686e+003,1.528306e+002
1.412650e+003,1.529987e+002
1.413614e+003,1.517600e+002
1.414579e+003,1.502484e+002
1.415543e+003,1.496050e+002
1.416507e+003,1.497609e+002
1.417471e+003,1.503403e+002
1.418436e+003,1.511307e+002
1.419400e+003,1.520399e+002
1.420364e+003,1.531854e+002
1.421328e+003,1.545951e+002
1.422292e+003,1.558257e+002
1.423257e+003,1.566637e+002
1.424221e+003,1.574781e+002
1.425185e+003,1.586915e+002
1.426149e+003,1.591594e+002
1.427114e+003,1.581777e+002
1.428078e+003,1.571432e+002
1.429042e+003,1.568398e+002
1.430006e+003,1.574307e+002
1.430971e+003,1.594859e+002
1.431935e+003,1.631283e+002
1.432899e+003,1.664049e+002
1.433863e+003,1.664075e+002
1.434828e+003,1.635734e+002
1.435792e+003,1.622113e+002
1.436756e+003,1.626930e+002
1.437720e+003,1.629643e+002
1.438684e+003,1.625290e+002
1.439649e+003,1.627715e+002
1.440613e+003,1.651334e+002
1.441577e+003,1.684210e+002
1.442541e+003,1.704648e+002
1.443506e+003,1.708551e+002
1.444470e+003,1.708550e+002
1.445434e+003,1.713573e+002
1.446398e+003,1.718625e+002
1.447363e+003,1.709140e+002
1.448327e+003,1.693608e+002
1.449291e+003,1.701539e+002
1.450255e+003,1.736498e+002
1.451219e+003,1.760751e+002
1.452184e+003,1.747345e+002
1.453148e+003,1.723617e+002
1.454112e+003,1.730572e+002
1.455076e+003,1.760756e+002
1.456041e+003,1.764110e+002
1.457005e+003,1.724228e+002
1.457969e+003,1.702420e+002
1.458933e+003,1.739981e+002
1.459898e+003,1.787075e+002
1.460862e+003,1.820681e+002
1.461826e+003,1.838095e+002
1.462790e+003,1.831416e+002
1.463755e+003,1.805081e+002
1.464719e+003,1.783696e+002
1.465683e+003,1.785434e+002
1.466647e+003,1.804318e+002
1.467611e+003,1.826791e+002
1.468576e+003,1.852499e+002
1.469540e+003,1.878570e+002
1.470504e+003,1.921898e+002
1.471468e+003,1.940811e+002
1.472433e+003,1.915997e+002
1.473397e+003,1.879884e+002
1.474361e+003,1.838128e+002
1.475325e+003,1.805910e+002
1.476290e+003,1.807506e+002
1.477254e+003,1.842780e+002
1.478218e+003,1.882614e+002
1.479182e+003,1.904570e+002
1.480146e+003,1.914688e+002
1.481111e+003,1.925728e+002
1.482075e+003,1.938371e+002
1.483039e+003,1.929202e+002
1.484003e+003,1.874400e+002
1.484968e+003,1.838993e+002
1.485932e+003,1.847772e+002
1.486896e+003,1.874621e+002
1.487860e+003,1.904539e+002
1.488825e+003,1.930581e+002
1.489789e+003,1.943939e+002
1.490753e+003,1.943185e+002
1.491717e+003,1.931613e+002
1.492682e+003,1.905480e+002
1.493646e+003,1.880131e+002
1.494610e+003,1.888480e+002
1.495574e+003,1.918366e+002
1.496538e+003,1.931308e+002
1.497503e+003,1.922211e+002
1.498467e+003,1.911504e+002
1.499431e+003,1.903434e+002
1.500395e+003,1.902103e+002
1.501360e+003,1.920613e+002
1.502324e+003,1.954472e+002
1.503288e+003,1.973108e+002
1.504252e+003,1.966904e+002
1.505217e+003,1.961996e+002
1.506181e+003,1.982225e+002
1.507145e+003,1.994967e+002
1.508109e+003,1.959475e+002
1.509073e+003,1.907009e+002
1.510038e+003,1.889756e+002
1.511002e+003,1.912552e+002
1.511966e+003,1.943334e+002
1.512930e+003,1.964110e+002
1.513895e+003,1.978504e+002
1.514859e+003,1.991668e+002
1.515823e+003,2.001762e+002
1.516787e+003,2.000078e+002
1.517752e+003,1.983883e+002
1.518716e+003,1.969467e+002
1.519680e+003,1.963120e+002
1.520644e+003,1.952559e+002
1.521609e+003,1.921643e+002
1.522573e+003,1.890330e+002
1.523537e+003,1.886048e+002
1.524501e+003,1.908624e+002
1.525465e+003,1.941390e+002
1.526430e+003,1.971847e+002
1.527394e+003,1.985898e+002
1.528358e+003,1.960710e+002
1.529322e+003,1.899544e+002
1.530287e+003,1.860105e+002
1.531251e+003,1.850982e+002
1.532215e+003,1.851105e+002
1.533179e+003,1.865286e+002
1.534144e+003,1.878300e+002
1.535108e+003,1.888677e+002
1.536072e+003,1.890996e+002
1.537036e+003,1.875625e+002
1.538000e+003,1.848448e+002
1.538965e+003,1.824602e+002
1.539929e+003,1.810789e+002
1.540893e+003,1.805378e+002
1.541857e+003,1.808627e+002
1.542822e+003,1.818690e+002
1.543786e+003,1.820780e+002
1.544750e+003,1.811431e+002
1.545714e+003,1.798381e+002
1.546679e+003,1.775298e+002
1.547643e+003,1.755364e+002
1.548607e+003,1.742435e+002
1.549571e+003,1.737626e+002
1.550536e+003,1.740780e+002
1.551500e+003,1.749627e+002
1.552464e+003,1.766819e+002
1.553428e+003,1.793033e+002
1.554392e+003,1.812602e+002
1.555357e+003,1.812537e+002
1.556321e+003,1.791511e+002
1.557285e+003,1.736377e+002
1.558249e+003,1.653706e+002
1.559214e+003,1.632260e+002
1.560178e+003,1.701824e+002
1.561142e+003,1.753784e+002
1.562106e+003,1.738540e+002
1.563071e+003,1.701245e+002
1.564035e+003,1.679245e+002
1.564999e+003,1.670024e+002
1.565963e+003,1.661059e+002
1.566927e+003,1.649694e+002
1.567892e+003,1.641227e+002
1.568856e+003,1.639036e+002
1.569820e+003,1.638943e+002
1.570784e+003,1.640981e+002
1.571749e+003,1.638975e+002
1.572713e+003,1.612682e+002
1.573677e+003,1.564297e+002
1.574641e+003,1.537195e+002
1.575606e+003,1.555468e+002
1.576570e+003,1.573378e+002
1.577534e+003,1.549012e+002
1.578498e+003,1.504466e+002
1.579463e+003,1.481233e+002
1.580427e+003,1.479310e+002
1.581391e+003,1.476311e+002
1.582355e+003,1.465560e+002
1.583319e+003,1.456730e+002
1.584284e+003,1.459537e+002
1.585248e+003,1.466928e+002
1.586212e+003,1.466445e+002
1.587176e+003,1.458739e+002
1.588141e+003,1.454601e+002
1.589105e+003,1.458145e+002
1.590069e+003,1.450688e+002
1.591033e+003,1.413910e+002
1.591998e+003,1.365511e+002
1.592962e+003,1.327617e+002
1.593926e+003,1.300513e+002
1.594890e+003,1.288628e+002
1.595854e+003,1.295417e+002
1.596819e+003,1.304976e+002
1.597783e+003,1.314384e+002
1.598747e+003,1.317135e+002
1.599711e+003,1.305156e+002
1.600676e+003,1.286242e+002
1.601640e+003,1.268898e+002
1.602604e+003,1.255336e+002
1.603568e+003,1.247580e+002
1.604533e+003,1.246050e+002
1.605497e+003,1.242937e+002
1.606461e+003,1.227369e+002
1.607425e+003,1.206697e+002
1.608390e+003,1.206110e+002
1.609354e+003,1.227705e+002
1.610318e+003,1.231407e+002
1.611282e+003,1.201611e+002
1.612246e+003,1.170628e+002
1.613211e+003,1.156526e+002
1.614175e+003,1.143257e+002
1.615139e+003,1.121318e+002
1.616103e+003,1.094270e+002
1.617068e+003,1.064807e+002
1.618032e+003,1.035022e+002
1.618996e+003,1.012598e+002
1.619960e+003,1.001868e+002
1.620925e+003,9.948988e+001
1.621889e+003,9.819328e+001
1.622853e+003,9.644070e+001
1.623817e+003,9.461784e+001
1.624781e+003,9.262799e+001
1.625746e+003,9.203749e+001
1.626710e+003,9.471952e+001
1.627674e+003,9.590501e+001
1.628638e+003,9.137234e+001
1.629603e+003,8.597144e+001
1.630567e+003,8.418822e+001
1.631531e+003,8.474675e+001
1.632495e+003,8.432265e+001
1.633460e+003,8.219247e+001
1.634424e+003,7.978480e+001
1.635388e+003,7.792650e+001
1.636352e+003,7.677010e+001
1.637317e+003,7.706324e+001
1.638281e+003,7.863403e+001
1.639245e+003,7.898375e+001
1.640209e+003,7.791441e+001
1.641173e+003,7.598756e+001
1.642138e+003,7.240721e+001
1.643102e+003,6.950465e+001
1.644066e+003,6.935619e+001
1.645030e+003,6.956497e+001
1.645995e+003,6.723454e+001
1.646959e+003,6.329504e+001
1.647923e+003,6.075099e+001
1.648887e+003,6.048490e+001
1.649852e+003,6.067178e+001
1.650816e+003,5.982467e+001
1.651780e+003,5.841260e+001
1.652744e+003,5.740975e+001
1.653708e+003,5.679119e+001
1.654673e+003,5.599473e+001
1.655637e+003,5.467545e+001
1.656601e+003,5.437175e+001
1.657565e+003,5.713647e+001
1.658530e+003,5.892023e+001
1.659494e+003,5.684736e+001
1.660458e+003,5.317015e+001
1.661422e+003,4.938541e+001
1.662387e+003,4.631204e+001
1.663351e+003,4.597706e+001
1.664315e+003,4.891715e+001
1.665279e+003,5.125892e+001
1.666244e+003,4.945021e+001
1.667208e+003,4.539390e+001
1.668172e+003,4.248685e+001
1.669136e+003,4.071714e+001
1.670100e+003,4.086256e+001
1.671065e+003,4.369570e+001
1.672029e+003,4.521008e+001
1.672993e+003,4.349376e+001
1.673957e+003,4.126885e+001
1.674922e+003,4.000056e+001
1.675886e+003,3.927294e+001
1.676850e+003,3.886025e+001
1.677814e+003,3.858714e+001
1.678779e+003,3.800174e+001
1.679743e+003,3.696772e+001
1.680707e+003,3.593370e+001
1.681671e+003,3.523862e+001
1.682635e+003,3.471296e+001
1.683600e+003,3.429516e+001
1.684564e+003,3.391111e+001
1.685528e+003,3.254130e+001
1.686492e+003,2.979691e+001
1.687457e+003,2.762006e+001
1.688421e+003,2.657857e+001
1.689385e+003,2.665437e+001
1.690349e+003,2.915908e+001
1.691314e+003,3.202039e+001
1.692278e+003,3.259034e+001
1.693242e+003,3.119346e+001
1.694206e+003,2.961741e+001
1.695171e+003,2.830194e+001
1.696135e+003,2.672108e+001
1.697099e+003,2.371495e+001
1.698063e+003,2.109493e+001
1.699027e+003,2.210220e+001
1.699992e+003,2.531406e+001
1.700956e+003,2.567621e+001
1.701920e+003,2.276119e+001
1.702884e+003,2.166577e+001
1.703849e+003,2.475590e+001
1.704813e+003,2.754578e+001
1.705777e+003,2.616938e+001
1.706741e+003,2.289563e+001
1.707706e+003,2.152702e+001
1.708670e+003,2.157295e+001
1.709634e+003,2.086875e+001
1.710598e+003,1.893741e+001
1.711563e+003,1.747235e+001
1.712527e+003,1.789291e+001
1.713491e+003,1.825381e+001
1.714455e+003,1.637454e+001
1.715419e+003,1.373053e+001
1.716384e+003,1.311324e+001
1.717348e+003,1.428687e+001
1.718312e+003,1.479971e+001
1.719276e+003,1.387368e+001
1.720241e+003,1.289872e+001
1.721205e+003,1.294100e+001
1.722169e+003,1.328542e+001
1.723133e+003,1.275178e+001
1.724098e+003,1.152907e+001
1.725062e+003,1.055879e+001
1.726026e+003,9.592962e+000
1.726990e+003,9.510107e+000
1.727954e+003,1.127548e+001
1.728919e+003,1.286052e+001
1.729883e+003,1.347365e+001
1.730847e+003,1.340474e+001
1.731811e+003,1.258478e+001
1.732776e+003,1.145478e+001
1.733740e+003,1.093805e+001
1.734704e+003,1.114309e+001
1.735668e+003,1.139585e+001
1.736633e+003,1.128856e+001
1.737597e+003,1.075606e+001
1.738561e+003,9.686597e+000
1.739525e+003,8.301135e+000
1.740490e+003,7.444458e+000
1.741454e+003,7.180921e+000
1.742418e+003,7.022723e+000
1.743382e+003,7.019763e+000
1.744346e+003,7.011627e+000
1.745311e+003,7.174457e+000
1.746275e+003,7.095435e+000
1.747239e+003,6.123297e+000
1.748203e+003,5.118903e+000
1.749168e+003,5.305359e+000
1.750132e+003,6.438886e+000
1.751096e+003,7.369098e+000
1.752060e+003,7.632898e+000
1.753025e+003,7.826520e+000
1.753989e+003,8.571851e+000
1.754953e+003,9.149890e+000
1.755917e+003,7.569568e+000
1.756881e+003,3.753290e+000
1.757846e+003,1.943542e+000
1.758810e+003,2.979846e+000
1.759774e+003,3.817956e+000
1.760738e+003,3.720020e+000
1.761703e+003,3.623437e+000
1.762667e+003,4.186877e+000
1.763631e+003,4.594965e+000
1.764595e+003,4.010663e+000
1.765560e+003,2.945050e+000
1.766524e+003,2.435858e+000
1.767488e+003,2.487415e+000
1.768452e+003,1.943640e+000
1.769417e+003,1.159607e-001
1.770381e+003,-1.364722e+000
1.771345e+003,-1.899048e-001
1.772309e+003,2.414209e+000
1.773273e+003,3.203064e+000
1.774238e+003,2.327930e+000
1.775202e+003,1.866418e+000
1.776166e+003,2.112054e+000
1.777130e+003,3.084857e+000
1.778095e+003,5.545007e+000
1.779059e+003,7.202393e+000
1.780023e+003,5.390821e+000
1.780987e+003,1.961774e+000
1.781952e+003,-4.090332e-001
1.782916e+003,-1.737207e+000
1.783880e+003,-1.636499e+000
1.784844e+003,3.323914e-001
1.785808e+003,2.162488e+000
1.786773e+003,3.143890e+000
1.787737e+003,3.579474e+000
1.788701e+003,3.396478e+000
1.789665e+003,2.973401e+000
1.790630e+003,2.942114e+000
1.791594e+003,3.204437e+000
1.792558e+003,3.193225e+000
1.793522e+003,2.771564e+000
1.794487e+003,2.342346e+000
1.795451e+003,2.191711e+000
1.796415e+003,2.273328e+000
1.797379e+003,2.561951e+000
1.798344e+003,2.781500e+000
1.799308e+003,1.661609e+000
1.800272e+003,-1.725323e+000
1.801236e+003,-2.979047e+000
1.802201e+003,-9.438477e-002
1.803165e+003,1.806219e+000
1.804129e+003,1.585559e+000
1.805093e+003,7.012451e-001
1.806057e+003,-8.045288e-001
1.807022e+003,-2.022894e+000
1.807986e+003,-1.678662e+000
1.808950e+003,-2.864807e-001
1.809914e+003,7.740784e-001
1.810879e+003,1.026587e+000
1.811843e+003,6.852295e-001
1.812807e+003,-1.338257e-001
1.813771e+003,-9.434875e-001
1.814736e+003,-8.848999e-001
1.815700e+003,-7.366333e-002
1.816664e+003,9.230164e-001
1.817628e+003,2.259491e+000
1.818593e+003,1.828625e+000
1.819557e+003,-1.427191e+000
1.820521e+003,-3.818109e+000
1.821485e+003,-3.611652e+000
1.822449e+003,-2.725800e+000
1.823414e+003,-2.532654e+000
1.824378e+003,-2.632300e+000
1.825342e+003,-2.382245e+000
1.826306e+003,-1.851819e+000
1.827271e+003,-1.569147e+000
1.828235e+003,-1.676874e+000
1.829199e+003,-1.827728e+000
1.830163e+003,-1.981177e+000
1.831128e+003,-1.892932e+000
1.832092e+003,-1.237451e+000
1.833056e+003,-3.164734e-001
1.834020e+003,3.587769e-001
1.834984e+003,8.309021e-001
1.835949e+003,1.717828e+000
1.836913e+003,3.049188e+000
1.837877e+003,3.358746e+000
1.838841e+003,1.762799e+000
1.839806e+003,-1.142517e-001
1.840770e+003,-4.327454e-001
1.841734e+003,3.033447e-001
1.842698e+003,6.928772e-001
1.843663e+003,8.002625e-001
1.844627e+003,6.119202e-001
1.845591e+003,-7.780823e-001
1.846555e+003,-1.084100e+000
1.847520e+003,7.484802e-001
1.848484e+003,2.244586e+000
1.849448e+003,2.569324e+000
1.850412e+003,2.259167e+000
1.851376e+003,1.337122e+000
1.852341e+003,3.161865e-001
1.853305e+003,-5.787964e-002
1.854269e+003,2.068909e-001
1.855233e+003,5.824463e-001
1.856198e+003,8.494934e-001
1.857162e+003,1.080170e+000
1.858126e+003,1.315967e+000
1.859090e+003,1.601691e+000
1.860055e+003,2.045727e+000
1.861019e+003,2.519971e+000
1.861983e+003,2.495453e+000
1.862947e+003,1.949420e+000
1.863911e+003,1.886292e+000
1.864876e+003,2.789771e+000
1.865840e+003,3.232312e+000
1.866804e+003,2.079755e+000
1.867768e+003,6.188294e-001
1.868733e+003,3.293213e-001
1.869697e+003,8.204834e-001
1.870661e+003,1.118787e+000
1.871625e+003,1.231848e+000
1.872590e+003,1.077002e+000
1.873554e+003,4.621643e-001
1.874518e+003,3.424682e-002
1.875482e+003,5.415039e-002
1.876447e+003,2.428833e-001
1.877411e+003,4.121460e-001
1.878375e+003,7.143432e-001
1.879339e+003,1.389154e+000
1.880303e+003,2.203345e+000
1.881268e+003,2.766797e+000
1.882232e+003,3.007599e+000
1.883196e+003,3.120953e+000
1.884160e+003,3.215112e+000
1.885125e+003,3.013843e+000
1.886089e+003,2.108740e+000
1.887053e+003,8.307190e-001
1.888017e+003,1.972717e-001
1.888982e+003,2.350891e-001
1.889946e+003,4.986267e-001
1.890910e+003,1.081238e+000
1.891874e+003,1.412329e+000
1.892839e+003,1.110760e+000
1.893803e+003,1.098492e+000
1.894767e+003,2.238617e+000
1.895731e+003,3.417194e+000
1.896695e+003,3.591467e+000
1.897660e+003,3.112695e+000
1.898624e+003,2.489398e+000
1.899588e+003,1.753601e+000
1.900552e+003,7.861389e-001
1.901517e+003,-7.458679e-001
1.902481e+003,-1.501025e+000
1.903445e+003,-1.885620e-001
1.904409e+003,1.233728e+000
1.905374e+003,1.281604e+000
1.906338e+003,9.829162e-001
1.907302e+003,1.537842e+000
1.908266e+003,2.592255e+000
1.909230e+003,3.362469e+000
1.910195e+003,3.682953e+000
1.911159e+003,3.625556e+000
1.912123e+003,3.314050e+000
1.913087e+003,3.348334e+000
1.914052e+003,4.318518e+000
1.915016e+003,5.365381e+000
1.915980e+003,4.564612e+000
1.916944e+003,2.130652e+000
1.917909e+003,8.028992e-001
1.918873e+003,6.237976e-001
1.919837e+003,1.748499e+000
1.920801e+003,5.215528e+000
1.921766e+003,7.002801e+000
1.922730e+003,4.253369e+000
1.923694e+003,1.499689e+000
1.924658e+003,2.900861e+000
1.925622e+003,5.519397e+000
1.926587e+003,5.896491e+000
1.927551e+003,4.470795e+000
1.928515e+003,2.639978e+000
1.929479e+003,4.415466e-001
1.930444e+003,-6.851501e-001
1.931408e+003,1.930664e-001
1.932372e+003,1.315613e+000
1.933336e+003,2.084149e+000
1.934301e+003,2.567548e+000
1.935265e+003,2.704529e+000
1.936229e+003,2.708765e+000
1.937193e+003,2.568366e+000
1.938157e+003,2.559454e+000
1.939122e+003,3.671088e+000
1.940086e+003,5.833295e+000
1.941050e+003,7.246387e+000
1.942014e+003,6.830652e+000
1.942979e+003,5.713855e+000
1.943943e+003,5.292017e+000
1.944907e+003,5.327362e+000
1.945871e+003,5.129010e+000
1.946836e+003,4.747040e+000
1.947800e+003,4.350836e+000
1.948764e+003,3.833484e+000
1.949728e+003,3.814575e+000
1.950693e+003,4.569293e+000
1.951657e+003,5.223138e+000
1.952621e+003,5.611835e+000
1.953585e+003,5.379144e+000
1.954549e+003,3.447095e+000
1.955514e+003,1.088171e+000
1.956478e+003,1.589685e+000
1.957442e+003,4.695001e+000
1.958406e+003,6.177002e+000
1.959371e+003,5.046838e+000
1.960335e+003,4.752337e+000
1.961299e+003,7.127191e+000
1.962263e+003,8.543055e+000
1.963228e+003,6.844037e+000
1.964192e+003,4.726178e+000
1.965156e+003,3.793506e+000
1.966120e+003,3.770331e+000
1.967084e+003,4.816535e+000
1.968049e+003,6.143805e+000
1.969013e+003,5.610938e+000
1.969977e+003,3.147284e+000
1.970941e+003,1.885693e+000
1.971906e+003,3.711798e+000
1.972870e+003,6.422357e+000
1.973834e+003,8.099573e+000
1.974798e+003,8.825647e+000
1.975763e+003,8.406293e+000
1.976727e+003,7.136706e+000
1.977691e+003,5.714685e+000
1.978655e+003,4.352911e+000
1.979620e+003,4.036340e+000
1.980584e+003,4.995459e+000
1.981548e+003,6.235034e+000
1.982512e+003,7.220197e+000
1.983476e+003,7.783374e+000
1.984441e+003,7.800873e+000
1.985405e+003,7.183148e+000
1.986369e+003,5.534705e+000
1.987333e+003,2.955115e+000
1.988298e+003,2.435413e+000
1.989262e+003,4.909094e+000
1.990226e+003,6.487854e+000
1.991190e+003,6.551636e+000
1.992155e+003,6.690857e+000
1.993119e+003,7.656122e+000
1.994083e+003,8.393793e+000
1.995047e+003,8.082721e+000
1.996011e+003,7.425092e+000
1.996976e+003,7.356848e+000
1.997940e+003,7.532031e+000
1.998904e+003,6.901788e+000
1.999868e+003,5.417761e+000
2.000833e+003,4.159753e+000
2.001797e+003,3.133813e+000
2.002761e+003,2.961670e+000
2.003725e+003,4.585059e+000
2.004690e+003,6.312494e+000
2.005654e+003,7.173175e+000
2.006618e+003,7.489820e+000
2.007582e+003,7.873175e+000
2.008547e+003,7.890161e+000
2.009511e+003,6.057214e+000
2.010475e+003,3.102728e+000
2.011439e+003,1.933069e+000
2.012403e+003,3.351569e+000
2.013368e+003,5.137598e+000
2.014332e+003,5.751337e+000
2.015296e+003,5.641950e+000
2.016260e+003,4.988190e+000
2.017225e+003,4.345075e+000
2.018189e+003,5.148291e+000
2.019153e+003,7.061426e+000
2.020117e+003,9.092505e+000
2.021082e+003,1.100449e+001
2.022046e+003,1.171023e+001
2.023010e+003,1.099714e+001
2.023974e+003,1.012565e+001
2.024938e+003,9.716266e+000
2.025903e+003,9.700434e+000
2.026867e+003,1.009662e+001
2.027831e+003,1.058214e+001
2.028795e+003,1.040290e+001
2.029760e+003,9.636480e+000
2.030724e+003,8.882642e+000
2.031688e+003,8.013769e+000
2.032652e+003,7.262964e+000
2.033617e+003,6.794397e+000
2.034581e+003,6.133356e+000
2.035545e+003,4.627978e+000
2.036509e+003,3.932428e+000
2.037474e+003,5.510065e+000
2.038438e+003,7.591723e+000
2.039402e+003,8.500391e+000
2.040366e+003,8.558832e+000
2.041330e+003,8.375280e+000
2.042295e+003,8.007837e+000
2.043259e+003,7.562469e+000
2.044223e+003,6.654309e+000
2.045187e+003,6.683862e+000
2.046152e+003,8.687549e+000
2.047116e+003,1.056509e+001
2.048080e+003,1.181448e+001
2.049044e+003,1.227116e+001
2.050009e+003,1.148292e+001
2.050973e+003,1.024039e+001
2.051937e+003,9.307398e+000
2.052901e+003,8.748792e+000
2.053865e+003,8.496161e+000
2.054830e+003,8.406238e+000
2.055794e+003,7.913617e+000
2.056758e+003,6.667499e+000
2.057722e+003,6.147394e+000
2.058687e+003,8.435083e+000
2.059651e+003,1.083044e+001
2.060615e+003,9.999176e+000
2.061579e+003,8.113977e+000
2.062544e+003,8.406140e+000
2.063508e+003,1.006101e+001
2.064472e+003,1.071799e+001
2.065436e+003,1.038810e+001
2.066401e+003,1.086290e+001
2.067365e+003,1.247061e+001
2.068329e+003,1.337996e+001
2.069293e+003,1.245997e+001
2.070258e+003,1.095272e+001
2.071222e+003,1.026826e+001
2.072186e+003,1.017435e+001
2.073150e+003,1.017583e+001
2.074115e+003,1.028531e+001
2.075079e+003,1.040280e+001
2.076043e+003,1.057121e+001
2.077007e+003,1.203933e+001
2.077971e+003,1.491500e+001
2.078936e+003,1.562342e+001
2.079900e+003,1.276745e+001
2.080864e+003,1.003768e+001
2.081828e+003,1.009042e+001
2.082792e+003,1.155054e+001
2.083757e+003,1.263788e+001
2.084721e+003,1.318072e+001
2.085685e+003,1.239249e+001
2.086649e+003,1.019615e+001
2.087614e+003,9.595245e+000
2.088578e+003,1.097542e+001
2.089542e+003,1.215195e+001
2.090506e+003,1.288238e+001
2.091471e+003,1.310650e+001
2.092435e+003,1.262847e+001
2.093399e+003,1.228746e+001
2.094363e+003,1.298297e+001
2.095328e+003,1.354535e+001
2.096292e+003,1.208543e+001
2.097256e+003,9.329059e+000
2.098220e+003,7.967932e+000
2.099185e+003,8.170654e+000
2.100149e+003,8.855738e+000
2.101113e+003,1.046414e+001
2.102077e+003,1.159847e+001
2.103042e+003,1.247534e+001
2.104006e+003,1.249589e+001
2.104970e+003,1.060986e+001
2.105934e+003,8.968878e+000
2.106898e+003,9.021338e+000
2.107863e+003,9.573407e+000
2.108827e+003,9.189349e+000
2.109791e+003,8.480230e+000
2.110755e+003,8.989202e+000
2.111719e+003,1.068621e+001
2.112684e+003,1.197112e+001
2.113648e+003,1.280169e+001
2.114612e+003,1.278442e+001
2.115576e+003,1.076678e+001
2.116541e+003,9.301783e+000
2.117505e+003,9.918848e+000
2.118469e+003,1.068883e+001
2.119433e+003,1.031431e+001
2.120398e+003,9.581385e+000
2.121362e+003,9.288965e+000
2.122326e+003,9.262329e+000
2.123290e+003,8.853223e+000
2.124255e+003,8.266223e+000
2.125219e+003,9.006671e+000
2.126183e+003,1.166635e+001
2.127147e+003,1.297299e+001
2.128112e+003,1.017929e+001
2.129076e+003,7.732343e+000
2.130040e+003,8.644342e+000
2.131004e+003,1.010886e+001
2.131969e+003,9.670550e+000
2.132933e+003,8.670825e+000
2.133897e+003,8.848871e+000
2.134861e+003,9.861536e+000
2.135825e+003,1.103818e+001
2.136790e+003,1.190004e+001
2.137754e+003,1.159451e+001
2.138718e+003,9.978894e+000
2.139682e+003,8.221155e+000
2.140646e+003,6.827985e+000
2.141611e+003,6.102033e+000
2.142575e+003,6.364398e+000
2.143539e+003,7.236890e+000
2.144503e+003,9.149567e+000
2.145468e+003,1.093737e+001
2.146432e+003,1.040400e+001
2.147396e+003,8.722509e+000
2.148360e+003,8.563495e+000
2.149325e+003,9.764685e+000
2.150289e+003,1.045279e+001
2.151253e+003,1.002366e+001
2.152217e+003,8.901514e+000
2.153182e+003,7.334290e+000
2.154146e+003,6.385828e+000
2.155110e+003,7.699707e+000
2.156074e+003,9.164185e+000
2.157039e+003,7.191644e+000
2.158003e+003,4.065765e+000
2.158967e+003,3.675659e+000
2.159931e+003,5.223108e+000
2.160896e+003,6.985980e+000
2.161860e+003,8.364777e+000
2.162824e+003,8.503369e+000
2.163788e+003,7.420050e+000
2.164752e+003,6.180902e+000
2.165717e+003,5.360761e+000
2.166681e+003,4.974573e+000
2.167645e+003,5.064301e+000
2.168609e+003,5.439154e+000
2.169573e+003,6.150751e+000
2.170538e+003,6.813275e+000
2.171502e+003,6.322211e+000
2.172466e+003,5.205365e+000
2.173430e+003,5.156726e+000
2.174395e+003,5.785022e+000
2.175359e+003,4.745477e+000
2.176323e+003,2.203516e+000
2.177287e+003,1.558533e+000
2.178252e+003,3.836273e+000
2.179216e+003,5.899981e+000
2.180180e+003,5.516156e+000
2.181144e+003,3.736047e+000
2.182109e+003,1.192267e+000
2.183073e+003,-9.533447e-001
2.184037e+003,6.219605e-001
2.185001e+003,3.990619e+000
2.185966e+003,3.879395e+000
2.186930e+003,1.305902e+000
2.187894e+003,-2.723389e-002
2.188858e+003,2.845215e-001
2.189823e+003,1.402063e+000
2.190787e+003,2.803357e+000
2.191751e+003,3.519623e+000
2.192715e+003,3.119666e+000
2.193679e+003,2.323413e+000
2.194644e+003,1.685846e+000
2.195608e+003,1.476404e+000
2.196572e+003,2.635211e+000
2.197536e+003,4.297595e+000
2.198500e+003,4.094293e+000
2.199465e+003,2.705780e+000
2.200429e+003,2.128973e+000
2.201393e+003,2.298474e+000
2.202357e+003,2.335938e+000
2.203322e+003,2.032764e+000
2.204286e+003,1.340839e+000
2.205250e+003,3.479248e-001
2.206214e+003,-2.552551e-001
2.207179e+003,3.271484e-003
2.208143e+003,5.781677e-001
2.209107e+003,8.572937e-001
2.210071e+003,9.404602e-001
2.211036e+003,9.757263e-001
2.212000e+003,9.739746e-001
2.212964e+003,1.038678e+000
2.213928e+003,1.039410e+000
2.214893e+003,6.107605e-001
2.215857e+003,-1.391296e-001
2.216821e+003,-9.990479e-001
2.217785e+003,-1.783771e+000
2.218750e+003,-1.720233e+000
2.219714e+003,-5.625366e-001
2.220678e+003,3.841003e-001
2.221642e+003,6.509399e-002
2.222606e+003,-6.406921e-001
2.223571e+003,-8.108215e-001
2.224535e+003,-4.651489e-001
2.225499e+003,1.013940e+000
2.226463e+003,2.662530e+000
2.227427e+003,1.995978e+000
2.228392e+003,-1.213196e-001
2.229356e+003,-1.323950e+000
2.230320e+003,-1.265894e+000
2.231284e+003,4.037476e-002
2.232249e+003,2.102002e+000
2.233213e+003,2.652417e+000
2.234177e+003,6.525574e-001
2.235141e+003,-1.080035e+000
2.236106e+003,5.358887e-002
2.237070e+003,2.094452e+000
2.238034e+003,3.028046e+000
2.238998e+003,3.006470e+000
2.239963e+003,1.636407e+000
2.240927e+003,-5.759888e-002
2.241891e+003,-1.262573e-001
2.242855e+003,8.518677e-001
2.243820e+003,1.282874e+000
2.244784e+003,1.041437e+000
2.245748e+003,8.698303e-001
2.246712e+003,9.585632e-001
2.247677e+003,8.679321e-001
2.248641e+003,3.779175e-001
2.249605e+003,-2.432251e-002
2.250569e+003,-1.151001e-001
2.251533e+003,2.409851e-001
2.252498e+003,1.526532e+000
2.253462e+003,2.938440e+000
2.254426e+003,4.029529e+000
2.255390e+003,4.422015e+000
2.256354e+003,3.098114e+000
2.257319e+003,1.012128e+000
2.258283e+003,1.064087e-001
2.259247e+003,2.565125e-001
2.260211e+003,-2.554077e-001
2.261176e+003,-1.761462e+000
2.262140e+003,-2.583380e+000
2.263104e+003,-1.822003e+000
2.264068e+003,-1.060986e+000
2.265033e+003,-1.491480e+000
2.265997e+003,-1.769971e+000
2.266961e+003,-8.223206e-001
2.267925e+003,2.602295e-001
2.268890e+003,8.816345e-001
2.269854e+003,9.425964e-001
2.270818e+003,7.799073e-002
2.271782e+003,-1.151886e+000
2.272747e+003,-1.892340e+000
2.273711e+003,-2.118457e+000
2.274675e+003,-2.098419e+000
2.275639e+003,-1.879419e+000
2.276604e+003,-2.185858e+000
2.277568e+003,-3.686029e+000
2.278532e+003,-4.664868e+000
2.279496e+003,-4.512433e+000
2.280460e+003,-4.141663e+000
2.281425e+003,-3.306305e+000
2.282389e+003,-3.030432e+000
2.283353e+003,-5.006104e+000
2.284317e+003,-6.664472e+000
2.285281e+003,-4.771759e+000
2.286246e+003,-1.394653e+000
2.287210e+003,-5.307251e-001
2.288174e+003,-1.712720e+000
2.289138e+003,-1.063470e+000
2.290103e+003,2.378986e+000
2.291067e+003,3.013654e+000
2.292031e+003,-1.491693e+000
2.292995e+003,-4.281629e+000
2.293960e+003,-4.852478e+000
2.294924e+003,-4.139038e+000
2.295888e+003,-1.128711e+000
2.296852e+003,8.588318e-001
2.297817e+003,-1.430664e-001
2.298781e+003,-2.194623e+000
2.299745e+003,-3.882190e+000
2.300709e+003,-4.918017e+000
2.301674e+003,-4.656683e+000
2.302638e+003,-3.551288e+000
2.303602e+003,-3.876410e+000
2.304566e+003,-5.822217e+000
2.305531e+003,-6.930176e+000
2.306495e+003,-7.157507e+000
2.307459e+003,-6.170001e+000
2.308423e+003,-3.777692e+000
2.309387e+003,-1.989923e+000
2.310352e+003,-1.335187e+000
2.311316e+003,-1.357910e+000
2.312280e+003,-1.837933e+000
2.313244e+003,-2.300940e+000
2.314208e+003,-2.386230e+000
2.315173e+003,-2.406732e+000
2.316137e+003,-2.739178e+000
2.317101e+003,-3.402722e+000
2.318065e+003,-5.135889e+000
2.319030e+003,-7.122650e+000
2.319994e+003,-5.362549e+000
2.320958e+003,-9.513122e-001
2.321922e+003,1.810474e+000
2.322887e+003,2.544531e+000
2.323851e+003,1.566400e+000
2.324815e+003,-5.991699e-001
2.325779e+003,-2.252832e+000
2.326744e+003,-2.735144e+000
2.327708e+003,-2.822754e+000
2.328672e+003,-3.021759e+000
2.329636e+003,-3.358276e+000
2.330601e+003,-3.857745e+000
2.331565e+003,-4.458997e+000
2.332529e+003,-5.705444e+000
2.333493e+003,-6.417346e+000
2.334458e+003,-4.219647e+000
2.335422e+003,-1.400012e+000
2.336386e+003,-1.407050e+000
2.337350e+003,-2.993231e+000
2.338314e+003,-3.340643e+000
2.339279e+003,-2.698517e+000
2.340243e+003,-3.383356e+000
2.341207e+003,-5.613434e+000
2.342171e+003,-6.743249e+000
2.343135e+003,-5.704272e+000
2.344100e+003,-4.641272e+000
2.345064e+003,-4.524798e+000
2.346028e+003,-4.279279e+000
2.346992e+003,-3.043384e+000
2.347957e+003,-2.165473e+000
2.348921e+003,-2.690533e+000
2.349885e+003,-3.425568e+000
2.350849e+003,-3.594788e+000
2.351814e+003,-3.469501e+000
2.352778e+003,-3.315222e+000
2.353742e+003,-3.136078e+000
2.354706e+003,-2.677307e+000
2.355671e+003,-2.007611e+000
2.356635e+003,-2.805359e+000
2.357599e+003,-5.765576e+000
2.358563e+003,-7.329321e+000
2.359528e+003,-7.160510e+000
2.360492e+003,-6.774848e+000
2.361456e+003,-6.375824e+000
2.362420e+003,-5.274481e+000
2.363385e+003,-2.989374e+000
2.364349e+003,-1.636694e+000
2.365313e+003,-2.515418e+000
2.366277e+003,-3.289014e+000
2.367241e+003,-1.663678e+000
2.368206e+003,2.509155e-001
2.369170e+003,-1.113873e+000
2.370134e+003,-4.498559e+000
2.371098e+003,-6.598511e+000
2.372063e+003,-7.417230e+000
2.373027e+003,-6.294427e+000
2.373991e+003,-3.889410e+000
2.374955e+003,-2.938782e+000
2.375919e+003,-3.308508e+000
2.376884e+003,-3.538965e+000
2.377848e+003,-3.170416e+000
2.378812e+003,-1.393713e+000
2.379776e+003,1.598352e+000
2.380741e+003,2.736615e+000
2.381705e+003,2.710632e-001
2.382669e+003,-2.484729e+000
2.383633e+003,-3.229572e+000
2.384598e+003,-2.976447e+000
2.385562e+003,-1.697205e+000
2.386526e+003,-8.629333e-001
2.387490e+003,-2.296167e+000
2.388455e+003,-3.986713e+000
2.389419e+003,-3.488239e+000
2.390383e+003,-2.397095e+000
2.391347e+003,-3.487097e+000
2.392312e+003,-5.706055e+000
2.393276e+003,-6.064862e+000
2.394240e+003,-4.571252e+000
2.395204e+003,-3.605884e+000
2.396168e+003,-3.430780e+000
2.397133e+003,-3.553339e+000
2.398097e+003,-4.529223e+000
2.399061e+003,-4.698114e+000
2.400025e+003,-3.487354e+000
2.400990e+003,-2.561713e+000
2.401954e+003,-2.433942e+000
2.402918e+003,-2.261664e+000
2.403882e+003,-1.549219e+000
2.404846e+003,-1.097021e+000
2.405811e+003,-1.670807e+000
2.406775e+003,-2.245251e+000
2.407739e+003,-1.310083e+000
2.408703e+003,3.669556e-001
2.409668e+003,7.739563e-001
2.410632e+003,1.311218e-001
2.411596e+003,-7.040710e-001
2.412560e+003,-1.665112e+000
2.413525e+003,-2.402612e+000
2.414489e+003,-2.838947e+000
2.415453e+003,-2.584338e+000
2.416417e+003,-1.868762e+000
2.417382e+003,-2.005005e+000
2.418346e+003,-3.158545e+000
2.419310e+003,-3.979211e+000
2.420274e+003,-3.890540e+000
2.421239e+003,-3.711407e+000
2.422203e+003,-3.954358e+000
2.423167e+003,-4.229614e+000
2.424131e+003,-4.456164e+000
2.425095e+003,-4.344238e+000
2.426060e+003,-3.126209e+000
2.427024e+003,-2.176807e+000
2.427988e+003,-3.256757e+000
2.428952e+003,-4.429010e+000
2.429917e+003,-3.211572e+000
2.430881e+003,-1.110706e+000
2.431845e+003,-7.382507e-001
2.432809e+003,-1.695581e+000
2.433773e+003,-1.992926e+000
2.434738e+003,-1.593610e+000
2.435702e+003,-1.278235e+000
2.436666e+003,-8.732849e-001
2.437630e+003,-1.202222e+000
2.438595e+003,-2.540283e+000
2.439559e+003,-3.747217e+000
2.440523e+003,-4.814563e+000
2.441487e+003,-4.022595e+000
2.442452e+003,-7.675781e-001
2.443416e+003,1.926306e+000
2.444380e+003,2.524719e+000
2.445344e+003,1.740845e+000
2.446309e+003,1.035828e-001
2.447273e+003,-1.327502e+000
2.448237e+003,-1.157776e+000
2.449201e+003,-5.547486e-002
2.450166e+003,1.775787e+000
2.451130e+003,3.144660e+000
2.452094e+003,1.309039e+000
2.453058e+003,-1.801135e+000
2.454022e+003,-3.123303e+000
2.454987e+003,-3.350177e+000
2.455951e+003,-4.245929e+000
2.456915e+003,-5.623767e+000
2.457879e+003,-6.350091e+000
2.458844e+003,-6.293200e+000
2.459808e+003,-6.295312e+000
2.460772e+003,-6.721002e+000
2.461736e+003,-5.905383e+000
2.462700e+003,-2.100690e+000
2.463665e+003,4.191467e-001
2.464629e+003,8.287842e-001
2.465593e+003,8.048706e-001
2.466557e+003,5.923279e-001
2.467522e+003,-1.882080e-001
2.468486e+003,-2.143860e+000
2.469450e+003,-3.228210e+000
2.470414e+003,-1.702167e+000
2.471379e+003,2.181213e-001
2.472343e+003,-2.255310e-001
2.473307e+003,-1.705817e+000
2.474271e+003,-1.237293e+000
2.475236e+003,2.513672e-001
2.476200e+003,-5.688354e-001
2.477164e+003,-2.797351e+000
2.478128e+003,-4.070014e+000
2.479093e+003,-4.270068e+000
2.480057e+003,-2.630780e+000
2.481021e+003,-3.206604e-001
2.481985e+003,-6.797302e-001
2.482949e+003,-3.300989e+000
2.483914e+003,-4.605194e+000
2.484878e+003,-3.796661e+000
2.485842e+003,-3.295868e+000
2.486806e+003,-4.173425e+000
2.487771e+003,-4.192920e+000
2.488735e+003,-1.431177e+000
2.489699e+003,5.176758e-001
2.490663e+003,9.524536e-002
2.491627e+003,-4.898987e-001
2.492592e+003,-3.713013e-001
2.493556e+003,-3.231689e-001
2.494520e+003,-7.536499e-001
2.495484e+003,-1.316327e+000
2.496449e+003,-1.849591e+000
2.497413e+003,-2.195129e+000
2.498377e+003,-2.074048e+000
2.499341e+003,-1.581024e+000
2.500306e+003,-9.207764e-001
2.501270e+003,-1.191895e-001
2.502234e+003,9.925232e-001
2.503198e+003,1.955054e+000
2.504163e+003,3.150879e-001
2.505127e+003,-2.767963e+000
2.506091e+003,-3.356622e+000
2.507055e+003,-1.764691e+000
2.508020e+003,-2.842163e-001
2.508984e+003,4.925049e-001
2.509948e+003,6.971680e-001
2.510912e+003,3.692017e-001
2.511876e+003,-4.162231e-001
2.512841e+003,-1.924152e+000
2.513805e+003,-2.641986e+000
2.514769e+003,-1.754156e+000
2.515733e+003,-5.640198e-001
2.516698e+003,1.017444e+000
2.517662e+003,2.157819e+000
2.518626e+003,2.657727e+000
2.519590e+003,2.799676e+000
2.520554e+003,2.547388e+000
2.521519e+003,2.308533e+000
2.522483e+003,2.492548e+000
2.523447e+003,2.532190e+000
2.524411e+003,1.480200e+000
2.525376e+003,3.061768e-001
2.526340e+003,2.108295e+000
2.527304e+003,5.253485e+000
2.528268e+003,3.652442e+000
2.529233e+003,-2.845093e-001
2.530197e+003,-6.433471e-001
2.531161e+003,1.440564e+000
2.532125e+003,2.886084e+000
2.533090e+003,3.455945e+000
2.534054e+003,4.003858e+000
2.535018e+003,4.550000e+000
2.535982e+003,4.349957e+000
2.536947e+003,3.263953e+000
2.537911e+003,2.065894e+000
2.538875e+003,6.538574e-001
2.539839e+003,-2.672119e-002
2.540803e+003,2.417175e-001
2.541768e+003,1.245508e+000
2.542732e+003,3.974713e+000
2.543696e+003,4.596527e+000
2.544660e+003,1.445959e+000
2.545625e+003,-8.166626e-001
2.546589e+003,2.830200e-002
2.547553e+003,1.734387e+000
2.548517e+003,2.572266e+000
2.549482e+003,3.289966e+000
2.550446e+003,4.894708e+000
2.551410e+003,6.476123e+000
2.552374e+003,6.394556e+000
2.553339e+003,5.551618e+000
2.554303e+003,5.061127e+000
2.555267e+003,4.889886e+000
2.556231e+003,5.388587e+000
2.557196e+003,5.788580e+000
2.558160e+003,4.791583e+000
2.559124e+003,3.142828e+000
2.560088e+003,2.060541e+000
2.561052e+003,1.709051e+000
2.562017e+003,2.453107e+000
2.562981e+003,4.095673e+000
2.563945e+003,3.108453e+000
2.564909e+003,-1.710901e+000
2.565874e+003,-2.110730e+000
2.566838e+003,2.726923e+000
2.567802e+003,5.780090e+000
2.568766e+003,6.459521e+000
2.569730e+003,5.588806e+000
2.570695e+003,3.501916e+000
2.571659e+003,1.230988e+000
2.572623e+003,-6.389953e-001
2.573587e+003,-4.879394e-001
2.574552e+003,2.405444e+000
2.575516e+003,4.291003e+000
2.576480e+003,2.150055e+000
2.577444e+003,-3.822022e-002
2.578409e+003,8.269653e-002
2.579373e+003,1.173004e+000
2.580337e+003,3.892120e+000
2.581301e+003,5.725732e+000
2.582266e+003,4.683264e+000
2.583230e+003,2.975006e+000
2.584194e+003,1.755182e+000
2.585158e+003,1.003516e+000
2.586123e+003,8.126709e-001
2.587087e+003,9.953979e-001
2.588051e+003,1.232153e+000
2.589015e+003,1.524359e+000
2.589979e+003,1.827692e+000
2.590944e+003,2.185547e+000
2.591908e+003,3.130499e+000
2.592872e+003,4.144073e+000
2.593836e+003,3.619525e+000
2.594801e+003,2.273083e+000
2.595765e+003,1.686462e+000
2.596729e+003,1.837750e+000
2.597693e+003,2.364295e+000
2.598657e+003,2.925910e+000
2.599622e+003,2.615393e+000
2.600586e+003,1.301013e+000
2.601550e+003,6.116699e-001
2.602514e+003,1.168872e+000
2.603479e+003,1.131281e+000
2.604443e+003,7.097778e-002
2.605407e+003,-4.372803e-001
2.606371e+003,-2.896729e-001
2.607336e+003,1.415033e+000
2.608300e+003,4.923334e+000
2.609264e+003,6.188592e+000
2.610228e+003,3.849475e+000
2.611193e+003,1.366913e+000
2.612157e+003,8.016235e-001
2.613121e+003,1.504315e+000
2.614085e+003,3.334601e+000
2.615050e+003,4.589063e+000
2.616014e+003,3.143127e+000
2.616978e+003,1.539825e+000
2.617942e+003,1.434570e+000
2.618906e+003,1.795648e+000
2.619871e+003,2.739978e+000
2.620835e+003,2.929138e+000
2.621799e+003,4.805969e-001
2.622763e+003,-1.864435e+000
2.623728e+003,-1.462695e+000
2.624692e+003,4.620789e-001
2.625656e+003,2.124609e+000
2.626620e+003,3.306921e+000
2.627584e+003,3.195496e+000
2.628549e+003,2.278967e+000
2.629513e+003,2.302991e+000
2.630477e+003,2.757642e+000
2.631441e+003,2.081146e+000
2.632406e+003,1.197363e+000
2.633370e+003,2.847333e+000
2.634334e+003,5.399652e+000
2.635298e+003,4.633392e+000
2.636263e+003,1.368323e+000
2.637227e+003,-1.319702e-001
2.638191e+003,6.138794e-001
2.639155e+003,1.216901e+000
2.640120e+003,1.516986e+000
2.641084e+003,2.097809e+000
2.642048e+003,2.879828e+000
2.643012e+003,4.224256e+000
2.643977e+003,6.215405e+000
2.644941e+003,6.313715e+000
2.645905e+003,4.412549e+000
2.646869e+003,3.265125e+000
2.647833e+003,3.515643e+000
2.648798e+003,3.964886e+000
2.649762e+003,4.082160e+000
2.650726e+003,3.745483e+000
2.651690e+003,2.784259e+000
2.652655e+003,1.824829e+000
2.653619e+003,9.017395e-001
2.654583e+003,5.231262e-001
2.655547e+003,1.181940e+000
2.656511e+003,1.883459e+000
2.657476e+003,2.311719e+000
2.658440e+003,2.725311e+000
2.659404e+003,3.288110e+000
2.660368e+003,3.625885e+000
2.661333e+003,3.498999e+000
2.662297e+003,3.439496e+000
2.663261e+003,3.946948e+000
2.664225e+003,4.546808e+000
2.665190e+003,4.838623e+000
2.666154e+003,4.662030e+000
2.667118e+003,3.145160e+000
2.668082e+003,1.977991e+000
2.669047e+003,3.512390e+000
2.670011e+003,5.101196e+000
2.670975e+003,3.421967e+000
2.671939e+003,1.332141e+000
2.672904e+003,2.720721e+000
2.673868e+003,5.149652e+000
2.674832e+003,5.204217e+000
2.675796e+003,3.457782e+000
2.676760e+003,1.025861e+000
2.677725e+003,-1.469049e+000
2.678689e+003,-9.746948e-001
2.679653e+003,1.490350e+000
2.680617e+003,3.329803e+000
2.681582e+003,4.351861e+000
2.682546e+003,4.028485e+000
2.683510e+003,3.221039e+000
2.684474e+003,3.445386e+000
2.685438e+003,4.449799e+000
2.686403e+003,5.577850e+000
2.687367e+003,6.471698e+000
2.688331e+003,5.437482e+000
2.689295e+003,2.455151e+000
2.690260e+003,1.903528e+000
2.691224e+003,4.233765e+000
2.692188e+003,4.227960e+000
2.693152e+003,1.955103e+000
2.694117e+003,1.902594e+000
2.695081e+003,4.087830e+000
2.696045e+003,5.922021e+000
2.697009e+003,6.852399e+000
2.697974e+003,7.340381e+000
2.698938e+003,7.473187e+000
2.699902e+003,6.686603e+000
2.700866e+003,4.686011e+000
2.701831e+003,4.023474e+000
2.702795e+003,6.799402e+000
2.703759e+003,7.832141e+000
2.704723e+003,6.293420e+000
2.705688e+003,4.644684e+000
2.706652e+003,2.883673e+000
2.707616e+003,3.175702e+000
2.708580e+003,5.989490e+000
2.709544e+003,6.991821e+000
2.710509e+003,4.669549e+000
2.711473e+003,2.562707e+000
2.712437e+003,2.623468e+000
2.713401e+003,3.714569e+000
2.714365e+003,5.688983e+000
2.715330e+003,6.991382e+000
2.716294e+003,6.714673e+000
2.717258e+003,5.766253e+000
2.718222e+003,3.456573e+000
2.719187e+003,2.186072e+000
2.720151e+003,3.029761e+000
2.721115e+003,3.953137e+000
2.722079e+003,3.935162e+000
2.723044e+003,3.772101e+000
2.724008e+003,4.053033e+000
2.724972e+003,4.797143e+000
2.725936e+003,6.188751e+000
2.726901e+003,7.404059e+000
2.727865e+003,7.520380e+000
2.728829e+003,7.109845e+000
2.729793e+003,6.460687e+000
2.730758e+003,5.642639e+000
2.731722e+003,4.544434e+000
2.732686e+003,3.367346e+000
2.733650e+003,1.576385e+000
2.734615e+003,1.209204e+000
2.735579e+003,4.480969e+000
2.736543e+003,8.181366e+000
2.737507e+003,7.872583e+000
2.738471e+003,5.756274e+000
2.739436e+003,6.007794e+000
2.740400e+003,7.138623e+000
2.741364e+003,6.523883e+000
2.742328e+003,5.462842e+000
2.743292e+003,5.587146e+000
2.744257e+003,6.014771e+000
2.745221e+003,5.567542e+000
2.746185e+003,4.943518e+000
2.747149e+003,5.204285e+000
2.748114e+003,5.819763e+000
2.749078e+003,6.044763e+000
2.750042e+003,5.981146e+000
2.751006e+003,5.758966e+000
2.751971e+003,5.473627e+000
2.752935e+003,5.216321e+000
2.753899e+003,5.389673e+000
2.754863e+003,7.912122e+000
2.755828e+003,1.073435e+001
2.756792e+003,1.010776e+001
2.757756e+003,7.748102e+000
2.758720e+003,6.170074e+000
2.759685e+003,5.677423e+000
2.760649e+003,6.758624e+000
2.761613e+003,8.597674e+000
2.762577e+003,8.581037e+000
2.763542e+003,6.994287e+000
2.764506e+003,6.284326e+000
2.765470e+003,6.316406e+000
2.766434e+003,6.658374e+000
2.767398e+003,6.981341e+000
2.768363e+003,5.998950e+000
2.769327e+003,4.456763e+000
2.770291e+003,3.735101e+000
2.771255e+003,4.243793e+000
2.772219e+003,7.226861e+000
2.773184e+003,1.158567e+001
2.774148e+003,1.189536e+001
2.775112e+003,8.437653e+000
2.776076e+003,6.735578e+000
2.777041e+003,6.850152e+000
2.778005e+003,6.191064e+000
2.778969e+003,5.224579e+000
2.779933e+003,7.610400e+000
2.780898e+003,1.161410e+001
2.781862e+003,1.098250e+001
2.782826e+003,6.973138e+000
2.783790e+003,5.011706e+000
2.784755e+003,5.554285e+000
2.785719e+003,6.203168e+000
2.786683e+003,6.619513e+000
2.787647e+003,6.797211e+000
2.788612e+003,6.711395e+000
2.789576e+003,5.798651e+000
2.790540e+003,4.188703e+000
2.791504e+003,5.688757e+000
2.792469e+003,9.581659e+000
2.793433e+003,1.150007e+001
2.794397e+003,1.125468e+001
2.795361e+003,1.013826e+001
2.796325e+003,8.967237e+000
2.797290e+003,9.832373e+000
2.798254e+003,1.282135e+001
2.799218e+003,1.199557e+001
2.800182e+003,5.827277e+000
2.801146e+003,3.480737e+000
2.802111e+003,5.359772e+000
2.803075e+003,8.130811e+000
2.804039e+003,1.126196e+001
2.805003e+003,1.233803e+001
2.805968e+003,1.135164e+001
2.806932e+003,9.576428e+000
2.807896e+003,7.854449e+000
2.808860e+003,7.325464e+000
2.809825e+003,8.032598e+000
2.810789e+003,8.399267e+000
2.811753e+003,7.943597e+000
2.812717e+003,8.299219e+000
2.813682e+003,9.795398e+000
2.814646e+003,1.021808e+001
2.815610e+003,9.610522e+000
2.816574e+003,9.958715e+000
2.817539e+003,1.115009e+001
2.818503e+003,1.163939e+001
2.819467e+003,1.111465e+001
2.820431e+003,9.528503e+000
2.821396e+003,7.390686e+000
2.822360e+003,6.756104e+000
2.823324e+003,8.162580e+000
2.824288e+003,1.002735e+001
2.825252e+003,1.305228e+001
2.826217e+003,1.250972e+001
2.827181e+003,8.296509e+000
2.828145e+003,6.814783e+000
2.829109e+003,8.091809e+000
2.830073e+003,8.892786e+000
2.831038e+003,8.911054e+000
2.832002e+003,9.372272e+000
2.832966e+003,1.050721e+001
2.833930e+003,1.196541e+001
2.834895e+003,1.363140e+001
2.835859e+003,1.472512e+001
2.836823e+003,1.516273e+001
2.837787e+003,1.535897e+001
2.838752e+003,1.534651e+001
2.839716e+003,1.459144e+001
2.840680e+003,1.328603e+001
2.841644e+003,1.296699e+001
2.842609e+003,1.345994e+001
2.843573e+003,1.333293e+001
2.844537e+003,1.269031e+001
2.845501e+003,1.322477e+001
2.846466e+003,1.501758e+001
2.847430e+003,1.458362e+001
2.848394e+003,1.107658e+001
2.849358e+003,1.131729e+001
2.850323e+003,1.566240e+001
2.851287e+003,1.727819e+001
2.852251e+003,1.625898e+001
2.853215e+003,1.450297e+001
2.854179e+003,1.300520e+001
2.855144e+003,1.436254e+001
2.856108e+003,1.748869e+001
2.857072e+003,1.780373e+001
2.858036e+003,1.512608e+001
2.859000e+003,1.405555e+001
2.859965e+003,1.490596e+001
2.860929e+003,1.523206e+001
2.861893e+003,1.495101e+001
2.862857e+003,1.473331e+001
2.863822e+003,1.472007e+001
2.864786e+003,1.492050e+001
2.865750e+003,1.553322e+001
2.866714e+003,1.771064e+001
2.867679e+003,2.038357e+001
2.868643e+003,2.068815e+001
2.869607e+003,1.896796e+001
2.870571e+003,1.818895e+001
2.871536e+003,1.836404e+001
2.872500e+003,1.841994e+001
2.873464e+003,1.830560e+001
2.874428e+003,1.955527e+001
2.875393e+003,2.128837e+001
2.876357e+003,1.936862e+001
2.877321e+003,1.594467e+001
2.878285e+003,1.614136e+001
2.879250e+003,1.860001e+001
2.880214e+003,2.006354e+001
2.881178e+003,2.016623e+001
2.882142e+003,1.894678e+001
2.883106e+003,1.714076e+001
2.884071e+003,1.761873e+001
2.885035e+003,1.981107e+001
2.885999e+003,2.081796e+001
2.886963e+003,2.087903e+001
2.887927e+003,2.073533e+001
2.888892e+003,2.024059e+001
2.889856e+003,1.823987e+001
2.890820e+003,1.618852e+001
2.891784e+003,1.690995e+001
2.892749e+003,1.863945e+001
2.893713e+003,1.828723e+001
2.894677e+003,1.680748e+001
2.895641e+003,1.617245e+001
2.896606e+003,1.634063e+001
2.897570e+003,1.786313e+001
2.898534e+003,1.958946e+001
2.899498e+003,1.931254e+001
2.900463e+003,1.836046e+001
2.901427e+003,1.848973e+001
2.902391e+003,1.872741e+001
2.903355e+003,1.778649e+001
2.904320e+003,1.636110e+001
2.905284e+003,1.495308e+001
2.906248e+003,1.423056e+001
2.907212e+003,1.545036e+001
2.908177e+003,1.745732e+001
2.909141e+003,1.862368e+001
2.910105e+003,1.903556e+001
2.911069e+003,1.877382e+001
2.912033e+003,1.781017e+001
2.912998e+003,1.481577e+001
2.913962e+003,1.319029e+001
2.914926e+003,1.539635e+001
2.915890e+003,1.772202e+001
2.916854e+003,1.743891e+001
2.917819e+003,1.674221e+001
2.918783e+003,1.788917e+001
2.919747e+003,1.916788e+001
2.920711e+003,1.875686e+001
2.921676e+003,1.789382e+001
2.922640e+003,1.704730e+001
2.923604e+003,1.639972e+001
2.924568e+003,1.565363e+001
2.925533e+003,1.617488e+001
2.926497e+003,1.853261e+001
2.927461e+003,1.999833e+001
2.928425e+003,1.982211e+001
2.929390e+003,1.856416e+001
2.930354e+003,1.502004e+001
2.931318e+003,1.263367e+001
2.932282e+003,1.540388e+001
2.933247e+003,1.706415e+001
2.934211e+003,1.736187e+001
2.935175e+003,1.820435e+001
2.936139e+003,1.896287e+001
2.937104e+003,1.792014e+001
2.938068e+003,1.512984e+001
2.939032e+003,1.398920e+001
2.939996e+003,1.528358e+001
2.940960e+003,1.614223e+001
2.941925e+003,1.544001e+001
2.942889e+003,1.533801e+001
2.943853e+003,1.742014e+001
2.944817e+003,1.707032e+001
2.945781e+003,1.341135e+001
2.946746e+003,1.186786e+001
2.947710e+003,1.260874e+001
2.948674e+003,1.440533e+001
2.949638e+003,1.646392e+001
2.950603e+003,1.636906e+001
2.951567e+003,1.463135e+001
2.952531e+003,1.487660e+001
2.953495e+003,1.744290e+001
2.954460e+003,1.866343e+001
2.955424e+003,1.844952e+001
2.956388e+003,1.703312e+001
2.957352e+003,1.458268e+001
2.958317e+003,1.274417e+001
2.959281e+003,1.176758e+001
2.960245e+003,1.282413e+001
2.961209e+003,1.460853e+001
2.962174e+003,1.409523e+001
2.963138e+003,1.248593e+001
2.964102e+003,1.312725e+001
2.965066e+003,1.533315e+001
2.966031e+003,1.775006e+001
2.966995e+003,1.962584e+001
2.967959e+003,1.769236e+001
2.968923e+003,1.402589e+001
2.969887e+003,1.282068e+001
2.970852e+003,1.281237e+001
2.971816e+003,1.274398e+001
2.972780e+003,1.266052e+001
2.973744e+003,1.256760e+001
2.974708e+003,1.288149e+001
2.975673e+003,1.419786e+001
2.976637e+003,1.482661e+001
2.977601e+003,1.243467e+001
2.978565e+003,9.814374e+000
2.979530e+003,1.151845e+001
2.980494e+003,1.366210e+001
2.981458e+003,1.303517e+001
2.982422e+003,1.198532e+001
2.983387e+003,1.139636e+001
2.984351e+003,1.117370e+001
2.985315e+003,1.142722e+001
2.986279e+003,1.124355e+001
2.987244e+003,1.017062e+001
2.988208e+003,9.180206e+000
2.989172e+003,8.851288e+000
2.990136e+003,8.861603e+000
2.991101e+003,9.729944e+000
2.992065e+003,9.548120e+000
2.993029e+003,7.168414e+000
2.993993e+003,5.859632e+000
2.994958e+003,5.945014e+000
2.995922e+003,6.467114e+000
2.996886e+003,7.157300e+000
2.997850e+003,7.415344e+000
2.998814e+003,7.340985e+000
2.999779e+003,8.592804e+000
3.000743e+003,1.153298e+001
3.001707e+003,1.188943e+001
3.002671e+003,9.047058e+000
3.003635e+003,7.133746e+000
3.004600e+003,6.087714e+000
3.005564e+003,5.452600e+000
3.006528e+003,5.152161e+000
3.007492e+003,4.895660e+000
3.008457e+003,5.008161e+000
3.009421e+003,6.658411e+000
3.010385e+003,9.035559e+000
3.011349e+003,1.024946e+001
3.012314e+003,1.012387e+001
3.013278e+003,7.709955e+000
3.014242e+003,4.299603e+000
3.015206e+003,4.396894e+000
3.016171e+003,6.294031e+000
3.017135e+003,7.839966e+000
3.018099e+003,8.742969e+000
3.019063e+003,8.770935e+000
3.020028e+003,7.994714e+000
3.020992e+003,6.020508e+000
3.021956e+003,4.877893e+000
3.022920e+003,6.450397e+000
3.023885e+003,8.072821e+000
3.024849e+003,6.706586e+000
3.025813e+003,4.668725e+000
3.026777e+003,3.854852e+000
3.027741e+003,3.584131e+000
3.028706e+003,3.572797e+000
3.029670e+003,4.063318e+000
3.030634e+003,5.230743e+000
3.031598e+003,6.518329e+000
3.032563e+003,7.628607e+000
3.033527e+003,7.925043e+000
3.034491e+003,7.275189e+000
3.035455e+003,6.722113e+000
3.036420e+003,6.639361e+000
3.037384e+003,7.454211e+000
3.038348e+003,1.012595e+001
3.039312e+003,1.020308e+001
3.040277e+003,7.658557e+000
3.041241e+003,6.082538e+000
3.042205e+003,5.711011e+000
3.043169e+003,5.796704e+000
3.044134e+003,6.315240e+000
3.045098e+003,7.934100e+000
3.046062e+003,1.022451e+001
3.047026e+003,1.143641e+001
3.047990e+003,1.168049e+001
3.048955e+003,1.118374e+001
3.049919e+003,1.020438e+001
3.050883e+003,9.939753e+000
3.051847e+003,9.984973e+000
3.052812e+003,9.503784e+000
3.053776e+003,9.117579e+000
3.054740e+003,9.437464e+000
3.055704e+003,1.044728e+001
3.056668e+003,1.249491e+001
3.057633e+003,1.407206e+001
3.058597e+003,1.336566e+001
3.059561e+003,1.205896e+001
3.060525e+003,1.218588e+001
3.061490e+003,1.276869e+001
3.062454e+003,1.388345e+001
3.063418e+003,1.383578e+001
3.064382e+003,1.083140e+001
3.065347e+003,1.013731e+001
3.066311e+003,1.330954e+001
3.067275e+003,1.435889e+001
3.068239e+003,1.145220e+001
3.069204e+003,1.020106e+001
3.070168e+003,1.302999e+001
3.071132e+003,1.523697e+001
3.072096e+003,1.527746e+001
3.073061e+003,1.450888e+001
3.074025e+003,1.289440e+001
3.074989e+003,1.231904e+001
3.075953e+003,1.243599e+001
3.076917e+003,1.110421e+001
3.077882e+003,8.780200e+000
3.078846e+003,7.112592e+000
3.079810e+003,6.495715e+000
3.080774e+003,7.527411e+000
3.081739e+003,9.095807e+000
3.082703e+003,7.612683e+000
3.083667e+003,4.667297e+000
3.084631e+003,6.450482e+000
3.085595e+003,9.851294e+000
3.086560e+003,1.029744e+001
3.087524e+003,9.266363e+000
3.088488e+003,7.607984e+000
3.089452e+003,6.114166e+000
3.090417e+003,5.280963e+000
3.091381e+003,4.723297e+000
3.092345e+003,4.156769e+000
3.093309e+003,3.177020e+000
3.094274e+003,9.178711e-001
3.095238e+003,-1.687866e-001
3.096202e+003,2.801190e+000
3.097166e+003,4.923602e+000
3.098131e+003,5.161560e+000
3.099095e+003,5.259894e+000
3.100059e+003,5.458838e+000
3.101023e+003,4.375250e+000
3.101988e+003,2.338995e+000
3.102952e+003,2.930463e+000
3.103916e+003,6.545752e+000
3.104880e+003,7.412732e+000
3.105844e+003,4.845044e+000
3.106809e+003,3.113873e+000
3.107773e+003,2.129797e+000
3.108737e+003,5.267395e-001
3.109701e+003,-1.122174e+000
3.110666e+003,-8.471802e-001
3.111630e+003,2.270996e-001
3.112594e+003,8.453369e-002
3.113558e+003,-5.948303e-001
3.114522e+003,-8.096191e-001
3.115487e+003,-6.450135e-001
3.116451e+003,-1.475769e-001
3.117415e+003,6.043335e-001
3.118379e+003,2.094275e+000
3.119344e+003,2.909875e+000
3.120308e+003,9.749328e-001
3.121272e+003,-5.099060e-001
3.122236e+003,-2.753174e-001
3.123201e+003,3.842590e-001
3.124165e+003,1.011792e+000
3.125129e+003,3.564880e-001
3.126093e+003,-1.824677e+000
3.127058e+003,-2.432446e+000
3.128022e+003,1.066895e-001
3.128986e+003,1.813452e+000
3.129950e+003,1.985376e+000
3.130915e+003,1.944409e+000
3.131879e+003,1.715100e+000
3.132843e+003,1.232208e+000
3.133807e+003,5.366455e-001
3.134771e+003,-2.601441e-001
3.135736e+003,-1.060211e+000
3.136700e+003,-1.816003e+000
3.137664e+003,-2.256604e+000
3.138628e+003,-1.883844e+000
3.139593e+003,-1.181348e+000
3.140557e+003,-1.611572e+000
3.141521e+003,-1.937695e+000
3.142485e+003,8.078003e-001
3.143449e+003,3.150195e+000
3.144414e+003,1.824841e+000
3.145378e+003,-1.188721e-001
3.146342e+003,-1.652106e+000
3.147306e+003,-1.876721e+000
3.148271e+003,-4.518250e-001
3.149235e+003,1.343018e+000
3.150199e+003,2.846954e+000
3.151163e+003,3.147595e+000
3.152128e+003,1.305627e+000
3.153092e+003,-3.716797e-001
3.154056e+003,-1.931329e+000
3.155020e+003,-2.059460e+000
3.155985e+003,-1.000098e+000
3.156949e+003,2.736084e-001
3.157913e+003,1.341717e+000
3.158877e+003,1.429816e+000
3.159842e+003,7.290405e-001
3.160806e+003,-1.930542e-002
3.161770e+003,-3.522400e-001
3.162734e+003,1.466125e+000
3.163698e+003,3.689978e+000
3.164663e+003,1.511450e+000
3.165627e+003,-1.208105e+000
3.166591e+003,5.168823e-001
3.167555e+003,1.781384e+000
3.168520e+003,-6.794983e-001
3.169484e+003,-2.649560e+000
3.170448e+003,-2.136536e+000
3.171412e+003,-1.375122e+000
3.172376e+003,-1.690881e+000
3.173341e+003,-2.342395e+000
3.174305e+003,-3.222528e+000
3.175269e+003,-3.483783e+000
3.176233e+003,-2.983472e+000
3.177198e+003,-2.419592e+000
3.178162e+003,-1.873602e+000
3.179126e+003,-1.379669e+000
3.180090e+003,-9.851379e-001
3.181055e+003,-5.750732e-001
3.182019e+003,-6.256409e-001
3.182983e+003,-2.839368e+000
3.183947e+003,-5.506610e+000
3.184912e+003,-4.330072e+000
3.185876e+003,-1.197809e+000
3.186840e+003,4.951538e-001
3.187804e+003,6.622497e-001
3.188769e+003,-2.220258e+000
3.189733e+003,-4.338263e+000
3.190697e+003,-3.293713e+000
3.191661e+003,-2.537799e+000
3.192625e+003,-3.480340e+000
3.193590e+003,-3.805695e+000
3.194554e+003,-2.372418e+000
3.195518e+003,-1.643610e+000
3.196482e+003,-3.228253e+000
3.197447e+003,-3.539459e+000
3.198411e+003,-2.109064e+000
3.199375e+003,-1.018823e+000
3.200339e+003,-3.275757e-001
3.201303e+003,2.977600e-001
3.202268e+003,7.126587e-001
3.203232e+003,1.811462e-001
3.204196e+003,-7.253174e-001
3.205160e+003,-6.851624e-001
3.206125e+003,-2.451111e-001
3.207089e+003,-4.475586e-001
3.208053e+003,-7.672180e-001
3.209017e+003,-8.394165e-002
3.209982e+003,5.719787e-001
3.210946e+003,2.984192e-001
3.211910e+003,-2.439941e-001
3.212874e+003,-1.076770e+000
3.213839e+003,-4.228821e-001
3.214803e+003,2.030334e+000
3.215767e+003,2.601404e+000
3.216731e+003,7.573242e-002
3.217696e+003,-1.887018e+000
3.218660e+003,-2.062171e+000
3.219624e+003,-1.965472e+000
3.220588e+003,-1.589954e+000
3.221552e+003,-3.451782e-001
3.222517e+003,1.258234e+000
3.223481e+003,1.674182e+000
3.224445e+003,1.178265e+000
3.225409e+003,5.166931e-001
3.226374e+003,-5.943664e-001
3.227338e+003,-2.990674e+000
3.228302e+003,-4.313519e+000
3.229266e+003,-1.165698e+000
3.230230e+003,2.211914e+000
3.231195e+003,7.802063e-001
3.232159e+003,-1.159741e+000
3.233123e+003,-2.028607e+000
3.234087e+003,-2.392956e+000
3.235052e+003,-2.323059e+000
3.236016e+003,-2.442438e+000
3.236980e+003,-2.748126e+000
3.237944e+003,-2.414282e+000
3.238909e+003,-1.318652e+000
3.239873e+003,9.819946e-002
3.240837e+003,1.515301e+000
3.241801e+003,5.113648e-001
3.242766e+003,-1.963654e+000
3.243730e+003,-1.813263e+000
3.244694e+003,-7.041931e-001
3.245658e+003,-6.365296e-001
3.246623e+003,-1.604761e+000
3.247587e+003,-3.875708e+000
3.248551e+003,-5.424411e+000
3.249515e+003,-4.956427e+000
3.250479e+003,-4.027209e+000
3.251444e+003,-3.803598e+000
3.252408e+003,-3.473926e+000
3.253372e+003,-2.189301e+000
3.254336e+003,-1.822833e+000
3.255301e+003,-2.548236e+000
3.256265e+003,-2.027014e+000
3.257229e+003,-6.549133e-001
3.258193e+003,-1.297400e+000
3.259157e+003,-3.392059e+000
3.260122e+003,-4.799802e+000
3.261086e+003,-4.883636e+000
3.262050e+003,-2.745508e+000
3.263014e+003,1.278503e-001
3.263979e+003,1.893127e-001
3.264943e+003,-7.609802e-001
3.265907e+003,-6.049255e-001
3.266871e+003,-4.892883e-001
3.267836e+003,-1.261560e+000
3.268800e+003,-1.722437e+000
3.269764e+003,-1.492651e+000
3.270728e+003,-1.733032e+000
3.271693e+003,-2.765079e+000
3.272657e+003,-3.411859e+000
3.273621e+003,-3.267459e+000
3.274585e+003,-2.760993e+000
3.275550e+003,-1.903717e+000
3.276514e+003,-1.207092e+000
3.277478e+003,-4.981262e-001
3.278442e+003,1.221289e+000
3.279406e+003,2.752124e+000
3.280371e+003,1.659711e+000
3.281335e+003,2.753906e-001
3.282299e+003,7.883850e-001
3.283263e+003,1.393701e+000
3.284228e+003,3.468750e-001
3.285192e+003,-7.946228e-001
3.286156e+003,-7.151611e-001
3.287120e+003,-4.572205e-001
3.288084e+003,-6.596252e-001
3.289049e+003,1.519342e+000
3.290013e+003,5.667084e+000
3.290977e+003,4.833612e+000
3.291941e+003,1.986816e-001
3.292906e+003,-1.023123e+000
3.293870e+003,9.732788e-001
3.294834e+003,1.391956e+000
3.295798e+003,6.972534e-001
3.296763e+003,-1.567535e-001
3.297727e+003,-7.343231e-001
3.298691e+003,3.654297e-001
3.299655e+003,1.285986e+000
3.300620e+003,-1.321594e-001
3.301584e+003,-7.212158e-001
3.302548e+003,4.512817e-001
3.303512e+003,7.871765e-001
3.304477e+003,-4.020142e-001
3.305441e+003,-2.497528e-001
3.306405e+003,2.284760e+000
3.307369e+003,2.761304e+000
3.308333e+003,8.402832e-001
3.309298e+003,7.437378e-001
3.310262e+003,1.625421e+000
3.311226e+003,3.949188e-001
3.312190e+003,-1.191727e+000
3.313155e+003,-5.309448e-002
3.314119e+003,1.558148e+000
3.315083e+003,1.756018e+000
3.316047e+003,1.945837e+000
3.317011e+003,3.351532e+000
3.317976e+003,4.072156e+000
3.318940e+003,1.494547e+000
3.319904e+003,1.064084e+000
3.320868e+003,4.437915e+000
3.321833e+003,5.049304e+000
3.322797e+003,2.999921e+000
3.323761e+003,1.517178e+000
3.324725e+003,9.947144e-001
3.325690e+003,1.187021e+000
3.326654e+003,1.824420e+000
3.327618e+003,2.555261e+000
3.328582e+003,2.934729e+000
3.329547e+003,1.686707e+000
3.330511e+003,5.628479e-001
3.331475e+003,2.516855e+000
3.332439e+003,3.423273e+000
3.333404e+003,6.777222e-001
3.334368e+003,9.838318e-001
3.335332e+003,5.351300e+000
3.336296e+003,6.975476e+000
3.337260e+003,4.599945e+000
3.338225e+003,3.265723e+000
3.339189e+003,3.924847e+000
3.340153e+003,3.557098e+000
3.341117e+003,2.440891e+000
3.342082e+003,1.771301e+000
3.343046e+003,1.674609e+000
3.344010e+003,3.096167e+000
3.344974e+003,4.285596e+000
3.345938e+003,3.809814e+000
3.346903e+003,3.038287e+000
3.347867e+003,2.605496e+000
3.348831e+003,2.226950e+000
3.349795e+003,1.753003e+000
3.350760e+003,1.729556e+000
3.351724e+003,2.486615e+000
3.352688e+003,3.132471e+000
3.353652e+003,3.693390e+000
3.354617e+003,3.996756e+000
3.355581e+003,4.158160e+000
3.356545e+003,4.664542e+000
3.357509e+003,4.846616e+000
3.358474e+003,3.607159e+000
3.359438e+003,2.750488e+000
3.360402e+003,4.028607e+000
3.361366e+003,5.955591e+000
3.362331e+003,7.612976e+000
3.363295e+003,7.888953e+000
3.364259e+003,5.514267e+000
3.365223e+003,4.651675e+000
3.366188e+003,5.437940e+000
3.367152e+003,4.984433e+000
3.368116e+003,3.686182e+000
3.369080e+003,4.179697e+000
3.370044e+003,5.926050e+000
3.371009e+003,6.741547e+000
3.371973e+003,6.832336e+000
3.372937e+003,6.470090e+000
3.373901e+003,5.710367e+000
3.374865e+003,3.811801e+000
3.375830e+003,3.022931e+000
3.376794e+003,4.716931e+000
3.377758e+003,5.400067e+000
3.378722e+003,4.509491e+000
3.379687e+003,3.775961e+000
3.380651e+003,3.890738e+000
3.381615e+003,5.993140e+000
3.382579e+003,9.418335e+000
3.383544e+003,9.686566e+000
3.384508e+003,7.684875e+000
3.385472e+003,5.493756e+000
3.386436e+003,4.355505e+000
3.387401e+003,6.996429e+000
3.388365e+003,9.286380e+000
3.389329e+003,9.214767e+000
3.390293e+003,8.341662e+000
3.391258e+003,7.417026e+000
3.392222e+003,7.109897e+000
3.393186e+003,7.724246e+000
3.394150e+003,8.956533e+000
3.395115e+003,1.071078e+001
3.396079e+003,1.111155e+001
3.397043e+003,1.059167e+001
3.398007e+003,1.022709e+001
3.398971e+003,1.025906e+001
3.399936e+003,1.153181e+001
3.400900e+003,1.192079e+001
3.401864e+003,1.001503e+001
3.402828e+003,8.741717e+000
3.403792e+003,1.015848e+001
3.404757e+003,1.180468e+001
3.405721e+003,1.283488e+001
3.406685e+003,1.174143e+001
3.407649e+003,8.549469e+000
3.408614e+003,8.208338e+000
3.409578e+003,9.934161e+000
3.410542e+003,1.161364e+001
3.411506e+003,1.248389e+001
3.412471e+003,1.161377e+001
3.413435e+003,1.061919e+001
3.414399e+003,1.104412e+001
3.415363e+003,1.224087e+001
3.416328e+003,1.451210e+001
3.417292e+003,1.476650e+001
3.418256e+003,1.080674e+001
3.419220e+003,9.307309e+000
3.420185e+003,1.050875e+001
3.421149e+003,1.287708e+001
3.422113e+003,1.521049e+001
3.423077e+003,1.459061e+001
3.424042e+003,1.309459e+001
3.425006e+003,1.498162e+001
3.425970e+003,1.769448e+001
3.426934e+003,1.723663e+001
