7.140112e+001,4.074473e+001
7.236536e+001,3.878633e+001
7.332959e+001,3.974956e+001
7.429382e+001,4.240768e+001
7.525806e+001,4.721933e+001
7.622229e+001,4.961208e+001
7.718652e+001,4.615202e+001
7.815076e+001,3.337377e+001
7.911499e+001,2.569562e+001
8.007922e+001,2.192222e+001
8.104346e+001,2.203025e+001
8.200769e+001,2.678725e+001
8.297192e+001,4.098353e+001
8.393616e+001,5.291935e+001
8.490039e+001,6.058739e+001
8.586462e+001,6.390154e+001
8.682886e+001,6.323016e+001
8.779310e+001,5.549321e+001
8.875733e+001,4.600129e+001
8.972157e+001,3.769529e+001
9.068580e+001,3.161658e+001
9.165003e+001,2.751438e+001
9.261427e+001,2.490745e+001
9.357850e+001,2.335149e+001
9.454273e+001,2.289408e+001
9.550697e+001,2.378732e+001
9.647120e+001,2.701098e+001
9.743543e+001,2.800255e+001
9.839967e+001,2.590258e+001
9.936390e+001,2.244955e+001
1.003281e+002,1.959957e+001
1.012924e+002,1.750290e+001
1.022566e+002,1.622892e+001
1.032208e+002,1.630431e+001
1.041851e+002,1.728066e+001
1.051493e+002,1.816495e+001
1.061135e+002,1.781909e+001
1.070778e+002,1.715762e+001
1.080420e+002,1.661497e+001
1.090062e+002,1.627694e+001
1.099705e+002,1.584850e+001
1.109347e+002,1.380309e+001
1.118989e+002,1.106971e+001
1.128632e+002,9.196301e+000
1.138274e+002,9.333008e+000
1.147916e+002,1.192941e+001
1.157559e+002,1.324551e+001
1.167201e+002,1.289470e+001
1.176843e+002,1.203917e+001
1.186486e+002,1.216225e+001
1.196128e+002,1.459528e+001
1.205770e+002,1.606492e+001
1.215413e+002,1.634811e+001
1.225055e+002,1.555625e+001
1.234697e+002,1.399521e+001
1.244340e+002,1.041714e+001
1.253982e+002,7.214587e+000
1.263624e+002,4.806933e+000
1.273267e+002,3.501648e+000
1.282909e+002,3.611725e+000
1.292551e+002,7.772827e+000
1.302194e+002,1.310010e+001
1.311836e+002,1.703879e+001
1.321478e+002,1.794110e+001
1.331121e+002,1.566279e+001
1.340763e+002,1.256198e+001
1.350405e+002,8.400378e+000
1.360048e+002,4.789289e+000
1.369690e+002,3.522919e+000
1.379332e+002,6.552661e+000
1.388975e+002,9.169873e+000
1.398617e+002,1.130917e+001
1.408259e+002,1.296367e+001
1.417902e+002,1.421672e+001
1.427544e+002,1.570484e+001
1.437186e+002,1.593707e+001
1.446829e+002,1.372707e+001
1.456471e+002,9.664319e+000
1.466113e+002,5.534943e+000
1.475756e+002,3.143323e+000
1.485398e+002,2.356689e+000
1.495040e+002,4.388165e+000
1.504683e+002,9.301740e+000
1.514325e+002,1.595697e+001
1.523967e+002,1.727061e+001
1.533610e+002,1.450537e+001
1.543252e+002,1.111346e+001
1.552894e+002,9.622851e+000
1.562537e+002,1.102687e+001
1.572179e+002,1.112991e+001
1.581821e+002,8.564807e+000
1.591464e+002,5.820514e+000
1.601106e+002,5.693976e+000
1.610748e+002,1.126586e+001
1.620391e+002,1.520960e+001
1.630033e+002,1.552587e+001
1.639676e+002,1.339283e+001
1.649318e+002,1.070887e+001
1.658960e+002,8.886462e+000
1.668603e+002,7.579767e+000
1.678245e+002,6.539948e+000
1.687887e+002,5.742371e+000
1.697530e+002,5.243609e+000
1.707172e+002,5.301788e+000
1.716814e+002,5.789227e+000
1.726457e+002,6.660291e+000
1.736099e+002,7.965075e+000
1.745741e+002,9.748950e+000
1.755384e+002,1.030292e+001
1.765026e+002,8.912561e+000
1.774668e+002,7.493640e+000
1.784311e+002,7.267377e+000
1.793953e+002,8.993756e+000
1.803595e+002,9.619372e+000
1.813238e+002,7.851336e+000
1.822880e+002,5.524274e+000
1.832522e+002,4.187488e+000
1.842165e+002,5.200788e+000
1.851807e+002,6.341522e+000
1.861449e+002,5.804321e+000
1.871092e+002,4.312243e+000
1.880734e+002,2.779852e+000
1.890376e+002,2.404907e+000
1.900019e+002,3.022528e+000
1.909661e+002,3.821155e+000
1.919303e+002,4.759528e+000
1.928946e+002,5.945038e+000
1.938588e+002,7.737061e+000
1.948230e+002,1.039634e+001
1.957873e+002,1.310419e+001
1.967515e+002,1.530790e+001
1.977157e+002,1.711161e+001
1.986800e+002,2.078268e+001
1.996442e+002,2.523677e+001
2.006084e+002,3.239182e+001
2.015727e+002,4.654200e+001
2.025369e+002,6.860676e+001
2.035011e+002,8.426317e+001
2.044654e+002,8.041247e+001
2.054296e+002,6.919032e+001
2.063938e+002,5.566553e+001
2.073581e+002,4.338557e+001
2.083223e+002,3.401458e+001
2.092865e+002,3.078823e+001
2.102508e+002,3.222587e+001
2.112150e+002,3.695478e+001
2.121792e+002,4.366681e+001
2.131435e+002,5.324638e+001
2.141077e+002,5.874479e+001
2.150719e+002,5.877620e+001
2.160362e+002,5.617245e+001
2.170004e+002,5.499160e+001
2.179646e+002,5.576452e+001
2.189289e+002,5.762746e+001
2.198931e+002,5.891671e+001
2.208573e+002,6.114921e+001
2.218216e+002,6.753835e+001
2.227858e+002,8.633891e+001
2.237500e+002,1.033429e+002
2.247143e+002,1.143330e+002
2.256785e+002,1.183386e+002
2.266427e+002,1.156936e+002
2.276070e+002,1.025839e+002
2.285712e+002,8.389893e+001
2.295354e+002,6.497768e+001
2.304997e+002,4.759479e+001
2.314639e+002,3.208896e+001
2.324281e+002,2.213391e+001
2.333924e+002,1.830040e+001
2.343566e+002,1.568425e+001
2.353208e+002,1.259516e+001
2.362851e+002,8.866980e+000
2.372493e+002,5.734406e+000
2.382135e+002,2.836139e+000
2.391778e+002,6.364380e-001
2.401420e+002,-3.615417e-001
2.411062e+002,1.839172e-001
2.420705e+002,7.612182e-001
2.430347e+002,3.227112e-001
2.439989e+002,-4.490662e-001
2.449632e+002,-1.041296e+000
2.459274e+002,-1.049103e+000
2.468916e+002,-7.165955e-001
2.478559e+002,-8.450623e-001
2.488201e+002,-1.198151e+000
2.497843e+002,-1.202216e+000
2.507486e+002,-1.602478e-001
2.517128e+002,2.345422e+000
2.526770e+002,3.701605e+000
2.536413e+002,3.491235e+000
2.546055e+002,2.420105e+000
2.555697e+002,1.599921e+000
2.565340e+002,1.078815e+000
2.574982e+002,8.916687e-001
2.584625e+002,1.349658e+000
2.594267e+002,2.148572e+000
2.603909e+002,2.748169e+000
2.613552e+002,2.630286e+000
2.623194e+002,2.305005e+000
2.632836e+002,1.863580e+000
2.642479e+002,1.436951e+000
2.652121e+002,1.232428e+000
2.661763e+002,1.845569e+000
2.671406e+002,2.692804e+000
2.681048e+002,2.817871e+000
2.690690e+002,2.060767e+000
2.700333e+002,6.519958e-001
2.709975e+002,-4.732422e-001
2.719617e+002,-1.299988e+000
2.729260e+002,-1.858698e+000
2.738902e+002,-2.200623e+000
2.748544e+002,-2.321454e+000
2.758187e+002,-1.967267e+000
2.767829e+002,-6.223450e-001
2.777471e+002,5.843261e-001
2.787114e+002,1.574683e+000
2.796756e+002,2.299664e+000
2.806398e+002,2.307013e+000
2.816041e+002,-2.650147e-002
2.825683e+002,-2.350720e+000
2.835325e+002,-3.032599e+000
2.844968e+002,-1.504401e+000
2.854610e+002,8.724793e-001
2.864252e+002,3.333496e-001
2.873895e+002,-1.710321e+000
2.883537e+002,-3.094598e+000
2.893179e+002,-2.427826e+000
2.902822e+002,4.858643e-001
2.912464e+002,1.678223e+000
2.922106e+002,9.602966e-001
2.931749e+002,-3.790100e-001
2.941391e+002,-1.623230e+000
2.951033e+002,-2.817841e+000
2.960676e+002,-3.909405e+000
2.970318e+002,-5.235822e+000
2.979960e+002,-6.158929e+000
2.989603e+002,-6.037201e+000
2.999245e+002,-4.358533e+000
3.008887e+002,-2.763208e+000
3.018530e+002,-2.616455e+000
3.028172e+002,-3.049573e+000
3.037814e+002,-3.301617e+000
3.047457e+002,-2.730981e+000
3.057099e+002,-1.446338e+000
3.066741e+002,2.837158e-001
3.076384e+002,2.242712e+000
3.086026e+002,3.483362e+000
3.095668e+002,2.899579e+000
3.105311e+002,-4.240662e-001
3.114953e+002,-2.144928e+000
3.124595e+002,-1.265301e+000
3.134238e+002,3.761536e-001
3.143880e+002,4.495361e-001
3.153522e+002,-2.799695e+000
3.163165e+002,-4.679151e+000
3.172807e+002,-3.693414e+000
3.182449e+002,-1.341766e+000
3.192092e+002,6.796448e-001
3.201734e+002,1.178137e+000
3.211376e+002,1.144373e+000
3.221019e+002,1.383545e+000
3.230661e+002,1.838336e+000
3.240303e+002,2.369409e+000
3.249946e+002,2.805585e+000
3.259588e+002,3.129077e+000
3.269230e+002,3.438464e+000
3.278873e+002,3.729053e+000
3.288515e+002,4.019861e+000
3.298157e+002,4.340704e+000
3.307800e+002,4.641547e+000
3.317442e+002,5.299194e+000
3.327084e+002,6.171679e+000
3.336727e+002,7.329504e+000
3.346369e+002,9.061737e+000
3.356011e+002,1.265916e+001
3.365654e+002,1.503423e+001
3.375296e+002,1.457693e+001
3.384938e+002,1.267335e+001
3.394581e+002,1.139332e+001
3.404223e+002,1.244802e+001
3.413865e+002,1.509653e+001
3.423508e+002,1.854959e+001
3.433150e+002,2.273306e+001
3.442792e+002,2.757326e+001
3.452435e+002,3.297643e+001
3.462077e+002,3.911761e+001
3.471719e+002,4.606995e+001
3.481362e+002,5.341300e+001
3.491004e+002,6.211466e+001
3.500646e+002,7.428756e+001
3.510289e+002,8.665012e+001
3.519931e+002,1.092379e+002
3.529573e+002,1.456581e+002
3.539216e+002,1.915138e+002
3.548858e+002,2.411595e+002
3.558500e+002,3.085353e+002
3.568143e+002,3.546614e+002
3.577785e+002,3.645851e+002
3.587427e+002,3.452544e+002
3.597070e+002,3.081606e+002
3.606712e+002,2.573982e+002
3.616354e+002,2.035681e+002
3.625997e+002,1.589946e+002
3.635639e+002,1.243921e+002
3.645281e+002,9.861912e+001
3.654924e+002,7.956241e+001
3.664566e+002,6.926481e+001
3.674208e+002,5.941601e+001
3.683851e+002,4.953765e+001
3.693493e+002,4.025166e+001
3.703135e+002,3.298339e+001
3.712778e+002,2.894437e+001
3.722420e+002,2.602794e+001
3.732062e+002,2.447341e+001
3.741705e+002,2.375823e+001
3.751347e+002,2.315859e+001
3.760989e+002,2.229473e+001
3.770632e+002,2.152893e+001
3.780274e+002,2.105593e+001
3.789916e+002,2.071348e+001
3.799559e+002,2.025686e+001
3.809201e+002,1.939715e+001
3.818844e+002,1.839164e+001
3.828486e+002,1.768357e+001
3.838128e+002,1.730798e+001
3.847771e+002,1.744894e+001
3.857413e+002,1.840733e+001
3.867055e+002,2.081135e+001
3.876698e+002,2.238498e+001
3.886340e+002,2.224958e+001
3.895982e+002,2.163814e+001
3.905625e+002,2.251000e+001
3.915267e+002,2.684649e+001
3.924909e+002,2.929583e+001
3.934552e+002,2.814672e+001
3.944194e+002,2.529293e+001
3.953836e+002,2.273835e+001
3.963479e+002,2.169439e+001
3.973121e+002,2.115096e+001
3.982763e+002,1.988194e+001
3.992406e+002,1.840415e+001
4.002048e+002,1.735007e+001
4.011690e+002,1.730462e+001
4.021333e+002,1.830379e+001
4.030975e+002,2.000172e+001
4.040617e+002,2.240177e+001
4.050260e+002,2.501175e+001
4.059902e+002,2.723333e+001
4.069544e+002,2.855731e+001
4.079187e+002,3.102700e+001
4.088829e+002,3.464466e+001
4.098471e+002,3.900039e+001
4.108114e+002,4.365755e+001
4.117756e+002,4.832292e+001
4.127398e+002,5.438607e+001
4.137041e+002,6.498199e+001
4.146683e+002,7.522719e+001
4.156325e+002,8.157953e+001
4.165968e+002,8.216982e+001
4.175610e+002,7.867735e+001
4.185252e+002,7.266423e+001
4.194895e+002,6.556963e+001
4.204537e+002,5.883471e+001
4.214179e+002,5.342088e+001
4.223822e+002,4.939005e+001
4.233464e+002,4.830845e+001
4.243106e+002,4.996053e+001
4.252749e+002,5.260900e+001
4.262391e+002,5.498575e+001
4.272033e+002,5.688505e+001
4.281676e+002,6.211138e+001
4.291318e+002,7.091234e+001
4.300960e+002,8.268115e+001
4.310603e+002,9.722615e+001
4.320245e+002,1.144038e+002
4.329887e+002,1.345764e+002
4.339530e+002,1.598335e+002
4.349172e+002,1.872627e+002
4.358814e+002,2.193550e+002
4.368457e+002,2.540852e+002
4.378099e+002,2.855203e+002
4.387741e+002,3.015030e+002
4.397384e+002,3.033818e+002
4.407026e+002,2.937021e+002
4.416668e+002,2.718265e+002
4.426311e+002,2.415647e+002
4.435953e+002,2.157190e+002
4.445595e+002,1.965943e+002
4.455238e+002,1.797987e+002
4.464880e+002,1.651691e+002
4.474522e+002,1.527903e+002
4.484165e+002,1.434243e+002
4.493807e+002,1.408607e+002
4.503449e+002,1.367861e+002
4.513092e+002,1.279810e+002
4.522734e+002,1.161844e+002
4.532376e+002,1.038750e+002
4.542019e+002,9.273561e+001
4.551661e+002,8.312513e+001
4.561303e+002,7.477156e+001
4.570946e+002,6.769440e+001
4.580588e+002,6.190040e+001
4.590230e+002,5.739535e+001
4.599873e+002,5.438088e+001
4.609515e+002,5.218782e+001
4.619157e+002,5.069057e+001
4.628800e+002,4.983590e+001
4.638442e+002,4.946856e+001
4.648084e+002,4.934298e+001
4.657727e+002,5.071841e+001
4.667369e+002,5.392572e+001
4.677011e+002,5.803885e+001
4.686654e+002,6.328544e+001
4.696296e+002,6.983292e+001
4.705938e+002,7.445388e+001
4.715581e+002,7.391652e+001
4.725223e+002,7.118491e+001
4.734865e+002,6.785071e+001
4.744508e+002,6.466268e+001
4.754150e+002,6.134656e+001
4.763792e+002,5.680375e+001
4.773435e+002,5.146067e+001
4.783077e+002,4.631029e+001
4.792719e+002,4.157946e+001
4.802362e+002,3.744526e+001
4.812004e+002,3.489022e+001
4.821646e+002,3.599272e+001
4.831289e+002,3.604948e+001
4.840931e+002,3.414747e+001
4.850573e+002,3.079094e+001
4.860216e+002,2.731052e+001
4.869858e+002,2.355750e+001
4.879500e+002,2.088619e+001
4.889143e+002,2.003767e+001
4.898785e+002,2.038163e+001
4.908427e+002,2.100606e+001
4.918070e+002,2.122471e+001
4.927712e+002,2.111844e+001
4.937354e+002,2.086551e+001
4.946997e+002,2.055902e+001
4.956639e+002,2.039707e+001
4.966281e+002,2.057919e+001
4.975924e+002,2.114653e+001
4.985566e+002,2.178028e+001
4.995208e+002,2.193583e+001
5.004851e+002,2.281204e+001
5.014493e+002,2.559113e+001
5.024135e+002,3.081245e+001
5.033778e+002,3.543135e+001
5.043420e+002,3.954047e+001
5.053063e+002,4.291497e+001
5.062705e+002,4.556068e+001
5.072347e+002,4.734083e+001
5.081990e+002,4.761708e+001
5.091632e+002,4.444243e+001
5.101274e+002,4.026668e+001
5.110917e+002,3.632966e+001
5.120559e+002,3.298386e+001
5.130201e+002,2.996316e+001
5.139844e+002,2.667941e+001
5.149486e+002,2.313309e+001
5.159128e+002,1.982076e+001
5.168771e+002,1.686307e+001
5.178413e+002,1.413922e+001
5.188055e+002,1.130496e+001
5.197698e+002,7.330652e+000
5.207340e+002,5.039795e+000
5.216982e+002,5.679291e+000
5.226625e+002,7.282379e+000
5.236267e+002,7.566333e+000
5.245909e+002,5.412860e+000
5.255552e+002,3.190271e+000
5.265194e+002,1.721991e+000
5.274836e+002,1.010107e+000
5.284479e+002,1.364606e+000
5.294121e+002,2.908148e+000
5.303763e+002,4.898895e+000
5.313406e+002,5.617303e+000
5.323048e+002,5.418897e+000
5.332690e+002,4.689715e+000
5.342333e+002,3.580530e+000
5.351975e+002,2.203674e+000
5.361617e+002,1.397144e+000
5.371260e+002,1.473999e+000
5.380902e+002,1.678046e+000
5.390544e+002,1.898907e+000
5.400187e+002,2.105817e+000
5.409829e+002,2.253101e+000
5.419471e+002,2.153827e+000
5.429114e+002,2.374359e+000
5.438756e+002,3.609210e+000
5.448398e+002,5.096381e+000
5.458041e+002,5.644818e+000
5.467683e+002,4.204309e+000
5.477325e+002,1.987354e+000
5.486968e+002,5.491943e-001
5.496610e+002,-1.809692e-001
5.506252e+002,-1.672546e-001
5.515895e+002,6.262085e-001
5.525537e+002,2.167163e+000
5.535179e+002,2.689893e+000
5.544822e+002,1.886707e+000
5.554464e+002,1.403455e+000
5.564106e+002,2.461981e+000
5.573749e+002,5.062604e+000
5.583391e+002,6.376807e+000
5.593033e+002,5.048523e+000
5.602676e+002,3.534686e+000
5.612318e+002,2.091016e+000
5.621960e+002,9.618713e-001
5.631603e+002,5.678161e-001
5.641245e+002,1.805481e+000
5.650887e+002,3.244800e+000
5.660530e+002,3.779596e+000
5.670172e+002,3.506189e+000
5.679814e+002,2.741705e+000
5.689457e+002,1.797363e+000
5.699099e+002,7.186340e-001
5.708741e+002,1.247986e-001
5.718384e+002,8.133545e-002
5.728026e+002,1.456543e-001
5.737668e+002,-1.417053e-001
5.747311e+002,-9.684936e-001
5.756953e+002,-1.259656e+000
5.766595e+002,-2.191772e-002
5.776238e+002,6.652649e-001
5.785880e+002,-6.340637e-001
5.795522e+002,-3.632761e+000
5.805165e+002,-5.845315e+000
5.814807e+002,-4.685473e+000
5.824449e+002,-2.937555e+000
5.834092e+002,-1.888275e+000
5.843734e+002,-1.636609e+000
5.853376e+002,-1.876575e+000
5.863019e+002,-2.340295e+000
5.872661e+002,-2.849347e+000
5.882303e+002,-2.579657e+000
5.891946e+002,-1.495801e+000
5.901588e+002,-3.653992e-001
5.911230e+002,7.165527e-003
5.920873e+002,-5.755615e-001
5.930515e+002,-1.271729e+000
5.940157e+002,-2.500610e+000
5.949800e+002,-3.376382e+000
5.959442e+002,-3.437891e+000
5.969084e+002,-2.670056e+000
5.978727e+002,-1.537659e+000
5.988369e+002,9.396423e-001
5.998011e+002,2.708539e+000
6.007654e+002,2.283826e+000
6.017296e+002,1.770142e-001
6.026938e+002,-1.982086e+000
6.036581e+002,-2.378015e+000
6.046223e+002,-1.418420e+000
6.055865e+002,-7.128723e-001
6.065508e+002,-2.417908e-001
6.075150e+002,2.264404e-001
6.084792e+002,9.675903e-001
6.094435e+002,2.132550e+000
6.104077e+002,2.842633e+000
6.113719e+002,3.006213e+000
6.123362e+002,2.914111e+000
6.133004e+002,2.449670e+000
6.142646e+002,1.639374e+000
6.152289e+002,1.404498e+000
6.161931e+002,2.713641e+000
6.171573e+002,4.167542e+000
6.181216e+002,5.466919e+000
6.190858e+002,6.539111e+000
6.200500e+002,7.347131e+000
6.210143e+002,7.700976e+000
6.219785e+002,7.911035e+000
6.229427e+002,8.613660e+000
6.239070e+002,9.747638e+000
6.248712e+002,1.110681e+001
6.258354e+002,1.252200e+001
6.267997e+002,1.405389e+001
6.277639e+002,1.568154e+001
6.287281e+002,1.750099e+001
6.296924e+002,1.913078e+001
6.306566e+002,2.061677e+001
6.316208e+002,2.189875e+001
6.325851e+002,2.234204e+001
6.335493e+002,2.075919e+001
6.345135e+002,1.933605e+001
6.354778e+002,1.872011e+001
6.364420e+002,1.869302e+001
6.374063e+002,1.877743e+001
6.383705e+002,1.873190e+001
6.393347e+002,1.828516e+001
6.402990e+002,1.674016e+001
6.412632e+002,1.461645e+001
6.422274e+002,1.320510e+001
6.431917e+002,1.349460e+001
6.441559e+002,1.535944e+001
6.451201e+002,1.589985e+001
6.460844e+002,1.493411e+001
6.470486e+002,1.339247e+001
6.480128e+002,1.087363e+001
6.489771e+002,7.831439e+000
6.499413e+002,6.290045e+000
6.509055e+002,8.211828e+000
6.518698e+002,9.585858e+000
6.528340e+002,8.840765e+000
6.537982e+002,7.213763e+000
6.547625e+002,6.520453e+000
6.557267e+002,7.939349e+000
6.566909e+002,9.724164e+000
6.576552e+002,8.838483e+000
6.586194e+002,6.650354e+000
6.595836e+002,5.171484e+000
6.605479e+002,5.414496e+000
6.615121e+002,7.026361e+000
6.624763e+002,8.476789e+000
6.634406e+002,9.897723e+000
6.644048e+002,1.076039e+001
6.653690e+002,1.052056e+001
6.663333e+002,9.708185e+000
6.672975e+002,9.452600e+000
6.682617e+002,1.036219e+001
6.692260e+002,1.091988e+001
6.701902e+002,1.050405e+001
6.711544e+002,9.845865e+000
6.721187e+002,9.584262e+000
6.730829e+002,9.895398e+000
6.740471e+002,1.019764e+001
6.750114e+002,9.300946e+000
6.759756e+002,8.195035e+000
6.769398e+002,8.120664e+000
6.779041e+002,9.234586e+000
6.788683e+002,1.070751e+001
6.798325e+002,1.102444e+001
6.807968e+002,9.736731e+000
6.817610e+002,8.867182e+000
6.827252e+002,8.526385e+000
6.836895e+002,8.480682e+000
6.846537e+002,8.466556e+000
6.856179e+002,8.397412e+000
6.865822e+002,8.779752e+000
6.875464e+002,1.044619e+001
6.885106e+002,1.188514e+001
6.894749e+002,1.213277e+001
6.904391e+002,1.143796e+001
6.914034e+002,1.100198e+001
6.923676e+002,1.212772e+001
6.933318e+002,1.386862e+001
6.942961e+002,1.484014e+001
6.952603e+002,1.515261e+001
6.962245e+002,1.526337e+001
6.971888e+002,1.557647e+001
6.981530e+002,1.606969e+001
6.991172e+002,1.657974e+001
7.000815e+002,1.691868e+001
7.010457e+002,1.751485e+001
7.020099e+002,1.865279e+001
7.029742e+002,2.026847e+001
7.039384e+002,2.197616e+001
7.049026e+002,2.417125e+001
7.058669e+002,2.565639e+001
7.068311e+002,2.540142e+001
7.077953e+002,2.456020e+001
7.087596e+002,2.479741e+001
7.097238e+002,2.709624e+001
7.106880e+002,2.971776e+001
7.116523e+002,2.930744e+001
7.126165e+002,2.739254e+001
7.135807e+002,2.631156e+001
7.145450e+002,2.695211e+001
7.155092e+002,2.844477e+001
7.164734e+002,2.835806e+001
7.174377e+002,2.557710e+001
7.184019e+002,2.342863e+001
7.193661e+002,2.203883e+001
7.203304e+002,2.110393e+001
7.212946e+002,2.037764e+001
7.222589e+002,1.989834e+001
7.232231e+002,1.956153e+001
7.241873e+002,1.917345e+001
7.251516e+002,1.901400e+001
7.261158e+002,1.932272e+001
7.270800e+002,2.001074e+001
7.280443e+002,2.080526e+001
7.290085e+002,2.166700e+001
7.299727e+002,2.217692e+001
7.309370e+002,2.139641e+001
7.319012e+002,1.951806e+001
7.328654e+002,1.768680e+001
7.338297e+002,1.699412e+001
7.347939e+002,1.752347e+001
7.357581e+002,1.697143e+001
7.367224e+002,1.379525e+001
7.376866e+002,1.165301e+001
7.386508e+002,1.204210e+001
7.396151e+002,1.419119e+001
7.405793e+002,1.596825e+001
7.415435e+002,1.674383e+001
7.425078e+002,1.722080e+001
7.434720e+002,1.770951e+001
7.444362e+002,1.805463e+001
7.454005e+002,1.785183e+001
7.463647e+002,1.700526e+001
7.473289e+002,1.625745e+001
7.482932e+002,1.769457e+001
7.492574e+002,2.036950e+001
7.502216e+002,2.174594e+001
7.511859e+002,2.116165e+001
7.521501e+002,1.942154e+001
7.531143e+002,1.796697e+001
7.540786e+002,1.684263e+001
7.550428e+002,1.610835e+001
7.560070e+002,1.553043e+001
7.569713e+002,1.543233e+001
7.579355e+002,1.612664e+001
7.588997e+002,1.756446e+001
7.598640e+002,1.920533e+001
7.608282e+002,2.158012e+001
7.617924e+002,2.324894e+001
7.627567e+002,2.283401e+001
7.637209e+002,2.116682e+001
7.646851e+002,1.988493e+001
7.656494e+002,2.032189e+001
7.666136e+002,2.194699e+001
7.675778e+002,2.248403e+001
7.685421e+002,2.212713e+001
7.695063e+002,2.241395e+001
7.704705e+002,2.443864e+001
7.714348e+002,2.750843e+001
7.723990e+002,2.875928e+001
7.733632e+002,2.657520e+001
7.743275e+002,2.481497e+001
7.752917e+002,2.368714e+001
7.762559e+002,2.316298e+001
7.772202e+002,2.319234e+001
7.781844e+002,2.375544e+001
7.791486e+002,2.484060e+001
7.801129e+002,2.739138e+001
7.810771e+002,2.985336e+001
7.820413e+002,3.099554e+001
7.830056e+002,3.088723e+001
7.839698e+002,3.032254e+001
7.849340e+002,3.016555e+001
7.858983e+002,3.045037e+001
7.868625e+002,3.142116e+001
7.878267e+002,3.325956e+001
7.887910e+002,3.492212e+001
7.897552e+002,3.572966e+001
7.907194e+002,3.582264e+001
7.916837e+002,3.620949e+001
7.926479e+002,3.718406e+001
7.936121e+002,3.813313e+001
7.945764e+002,3.875458e+001
7.955406e+002,3.934431e+001
7.965048e+002,4.041325e+001
7.974691e+002,4.219796e+001
7.984333e+002,4.406598e+001
7.993975e+002,4.472649e+001
8.003618e+002,4.499356e+001
8.013260e+002,4.567424e+001
8.022902e+002,4.696455e+001
8.032545e+002,4.876698e+001
8.042187e+002,5.097863e+001
8.051829e+002,5.370771e+001
8.061472e+002,5.647900e+001
8.071114e+002,5.974916e+001
8.080756e+002,6.246504e+001
8.090399e+002,6.324999e+001
8.100041e+002,6.265065e+001
8.109683e+002,6.434113e+001
8.119326e+002,7.102797e+001
8.128968e+002,7.802010e+001
8.138610e+002,8.382942e+001
8.148253e+002,8.881743e+001
8.157895e+002,9.327362e+001
8.167537e+002,9.743040e+001
8.177180e+002,1.016965e+002
8.186822e+002,1.071553e+002
8.196464e+002,1.133589e+002
8.206107e+002,1.196606e+002
8.215749e+002,1.259627e+002
8.225391e+002,1.313391e+002
8.235034e+002,1.342975e+002
8.244676e+002,1.343277e+002
8.254318e+002,1.330484e+002
8.263961e+002,1.310309e+002
8.273603e+002,1.278817e+002
8.283245e+002,1.225797e+002
8.292888e+002,1.157079e+002
8.302530e+002,1.095629e+002
8.312172e+002,1.054842e+002
8.321815e+002,1.020352e+002
8.331457e+002,9.844215e+001
8.341099e+002,9.479734e+001
8.350742e+002,9.103695e+001
8.360384e+002,8.719243e+001
8.370026e+002,8.358307e+001
8.379669e+002,8.106185e+001
8.389311e+002,7.966362e+001
8.398953e+002,7.781259e+001
8.408596e+002,7.523470e+001
8.418238e+002,7.233360e+001
8.427880e+002,6.957143e+001
8.437523e+002,6.696600e+001
8.447165e+002,6.449501e+001
8.456807e+002,6.189964e+001
8.466450e+002,5.973339e+001
8.476092e+002,5.886132e+001
8.485734e+002,5.843254e+001
8.495377e+002,5.647871e+001
8.505019e+002,5.145895e+001
8.514661e+002,4.619163e+001
8.524304e+002,4.449186e+001
8.533946e+002,4.503876e+001
8.543588e+002,4.635859e+001
8.553231e+002,4.780207e+001
8.562873e+002,4.904907e+001
8.572515e+002,4.939025e+001
8.582158e+002,4.850294e+001
8.591800e+002,4.749030e+001
8.601442e+002,4.575750e+001
8.611085e+002,4.438394e+001
8.620727e+002,4.447216e+001
8.630369e+002,4.592382e+001
8.640012e+002,4.682807e+001
8.649654e+002,4.596528e+001
8.659296e+002,4.502139e+001
8.668939e+002,4.462754e+001
8.678581e+002,4.466789e+001
8.688223e+002,4.506461e+001
8.697866e+002,4.572474e+001
8.707508e+002,4.628785e+001
8.717150e+002,4.570687e+001
8.726793e+002,4.430677e+001
8.736435e+002,4.386091e+001
8.746077e+002,4.490226e+001
8.755720e+002,4.621344e+001
8.765362e+002,4.617760e+001
8.775004e+002,4.450274e+001
8.784647e+002,4.272858e+001
8.794289e+002,4.011027e+001
8.803931e+002,3.823391e+001
8.813574e+002,3.844949e+001
8.823216e+002,3.961795e+001
8.832858e+002,3.925418e+001
8.842501e+002,3.586998e+001
8.852143e+002,3.235003e+001
8.861785e+002,3.197344e+001
8.871428e+002,3.293116e+001
8.881070e+002,3.320362e+001
8.890712e+002,3.224286e+001
8.900355e+002,3.086654e+001
8.909997e+002,3.041609e+001
8.919639e+002,3.112874e+001
8.929282e+002,3.110742e+001
8.938924e+002,3.025687e+001
8.948566e+002,2.895027e+001
8.958209e+002,2.707408e+001
8.967851e+002,2.483049e+001
8.977493e+002,2.308219e+001
8.987136e+002,2.214055e+001
8.996778e+002,2.145250e+001
9.006420e+002,2.103714e+001
9.016063e+002,2.061634e+001
9.025705e+002,1.984631e+001
9.035347e+002,1.871266e+001
9.044990e+002,1.763124e+001
9.054632e+002,1.712226e+001
9.064274e+002,1.704993e+001
9.073917e+002,1.700461e+001
9.083559e+002,1.703214e+001
9.093201e+002,1.667802e+001
9.102844e+002,1.532065e+001
9.112486e+002,1.305510e+001
9.122128e+002,1.183184e+001
9.131771e+002,1.240717e+001
9.141413e+002,1.319080e+001
9.151055e+002,1.449974e+001
9.160698e+002,1.567944e+001
9.170340e+002,1.601890e+001
9.179982e+002,1.536080e+001
9.189625e+002,1.433924e+001
9.199267e+002,1.314196e+001
9.208909e+002,1.216700e+001
9.218552e+002,1.199571e+001
9.228194e+002,1.243771e+001
9.237836e+002,1.289831e+001
9.247479e+002,1.290928e+001
9.257121e+002,1.248002e+001
9.266763e+002,1.161073e+001
9.276406e+002,9.867358e+000
9.286048e+002,8.655490e+000
9.295690e+002,8.470831e+000
9.305333e+002,8.649091e+000
9.314975e+002,8.361704e+000
9.324617e+002,7.471375e+000
9.334260e+002,6.845426e+000
9.343902e+002,7.089719e+000
9.353545e+002,7.489499e+000
9.363187e+002,7.955625e+000
9.372830e+002,8.306345e+000
9.382472e+002,8.186523e+000
9.392114e+002,7.412314e+000
9.401757e+002,6.510562e+000
9.411399e+002,6.930298e+000
9.421041e+002,8.394671e+000
9.430684e+002,9.109424e+000
9.440326e+002,8.469055e+000
9.449968e+002,7.493201e+000
9.459611e+002,7.621649e+000
9.469253e+002,9.144934e+000
9.478895e+002,1.022705e+001
9.488538e+002,1.043036e+001
9.498180e+002,1.047581e+001
9.507822e+002,1.037162e+001
9.517465e+002,1.025923e+001
9.527107e+002,1.038883e+001
9.536749e+002,1.088604e+001
9.546392e+002,1.137944e+001
9.556034e+002,1.090837e+001
9.565676e+002,1.033353e+001
9.575319e+002,1.103438e+001
9.584961e+002,1.308639e+001
9.594603e+002,1.545392e+001
9.604246e+002,1.701801e+001
9.613888e+002,1.775610e+001
9.623530e+002,1.874514e+001
9.633173e+002,1.965162e+001
9.642815e+002,2.123090e+001
9.652457e+002,2.363060e+001
9.662100e+002,2.682671e+001
9.671742e+002,3.004417e+001
9.681384e+002,3.295053e+001
9.691027e+002,3.887041e+001
9.700669e+002,5.131475e+001
9.710311e+002,6.677351e+001
9.719954e+002,8.791090e+001
9.729596e+002,1.100971e+002
9.739238e+002,1.237219e+002
9.748881e+002,1.223470e+002
9.758523e+002,1.096650e+002
9.768165e+002,9.734208e+001
9.777808e+002,8.532190e+001
9.787450e+002,7.432951e+001
9.797092e+002,6.437460e+001
9.806735e+002,5.556007e+001
9.816377e+002,4.780004e+001
9.826019e+002,4.109992e+001
9.835662e+002,3.645325e+001
9.845304e+002,3.590725e+001
9.854946e+002,3.556202e+001
9.864589e+002,3.364979e+001
9.874231e+002,3.137561e+001
9.883873e+002,3.038819e+001
9.893516e+002,3.121745e+001
9.903158e+002,3.283314e+001
9.912800e+002,3.381347e+001
9.922443e+002,3.459732e+001
9.932085e+002,3.644529e+001
9.941727e+002,3.939928e+001
9.951370e+002,4.365151e+001
9.961012e+002,4.908195e+001
9.970654e+002,5.563878e+001
9.980297e+002,6.375551e+001
9.989939e+002,7.045604e+001
9.999581e+002,8.477904e+001
1.000922e+003,1.022396e+002
1.001887e+003,1.312594e+002
1.002851e+003,1.820402e+002
1.003815e+003,2.520562e+002
1.004779e+003,3.313239e+002
1.005744e+003,4.260032e+002
1.006708e+003,5.006769e+002
1.007672e+003,5.002447e+002
1.008636e+003,4.451432e+002
1.009600e+003,3.736523e+002
1.010565e+003,3.016109e+002
1.011529e+003,2.336786e+002
1.012493e+003,1.803643e+002
1.013457e+003,1.445822e+002
1.014422e+003,1.167187e+002
1.015386e+003,9.843430e+001
1.016350e+003,8.377479e+001
1.017314e+003,7.083134e+001
1.018279e+003,5.967322e+001
1.019243e+003,5.110660e+001
1.020207e+003,4.571420e+001
1.021171e+003,4.162984e+001
1.022135e+003,3.749963e+001
1.023100e+003,3.378381e+001
1.024064e+003,3.114625e+001
1.025028e+003,2.939564e+001
1.025992e+003,2.763353e+001
1.026957e+003,2.502902e+001
1.027921e+003,2.193615e+001
1.028885e+003,2.053448e+001
1.029849e+003,2.205959e+001
1.030814e+003,2.242692e+001
1.031778e+003,2.016877e+001
1.032742e+003,1.729204e+001
1.033706e+003,1.576449e+001
1.034671e+003,1.572246e+001
1.035635e+003,1.599347e+001
1.036599e+003,1.649915e+001
1.037563e+003,1.674636e+001
1.038527e+003,1.618693e+001
1.039492e+003,1.533433e+001
1.040456e+003,1.482617e+001
1.041420e+003,1.491809e+001
1.042384e+003,1.542205e+001
1.043349e+003,1.609449e+001
1.044313e+003,1.691645e+001
1.045277e+003,1.761722e+001
1.046241e+003,1.839400e+001
1.047206e+003,1.855219e+001
1.048170e+003,1.729852e+001
1.049134e+003,1.528521e+001
1.050098e+003,1.414651e+001
1.051063e+003,1.426402e+001
1.052027e+003,1.457712e+001
1.052991e+003,1.493352e+001
1.053955e+003,1.507585e+001
1.054919e+003,1.465106e+001
1.055884e+003,1.391726e+001
1.056848e+003,1.348565e+001
1.057812e+003,1.374792e+001
1.058776e+003,1.435111e+001
1.059741e+003,1.441646e+001
1.060705e+003,1.400409e+001
1.061669e+003,1.397167e+001
1.062633e+003,1.458709e+001
1.063598e+003,1.504928e+001
1.064562e+003,1.439064e+001
1.065526e+003,1.276765e+001
1.066490e+003,1.203241e+001
1.067454e+003,1.285695e+001
1.068419e+003,1.372550e+001
1.069383e+003,1.455505e+001
1.070347e+003,1.500730e+001
1.071311e+003,1.437864e+001
1.072276e+003,1.303809e+001
1.073240e+003,1.255009e+001
1.074204e+003,1.431675e+001
1.075168e+003,1.708122e+001
1.076133e+003,1.789950e+001
1.077097e+003,1.721911e+001
1.078061e+003,1.633028e+001
1.079025e+003,1.557606e+001
1.079990e+003,1.488124e+001
1.080954e+003,1.394758e+001
1.081918e+003,1.259796e+001
1.082882e+003,1.229768e+001
1.083846e+003,1.428226e+001
1.084811e+003,1.594942e+001
1.085775e+003,1.697672e+001
1.086739e+003,1.732586e+001
1.087703e+003,1.663121e+001
1.088668e+003,1.507448e+001
1.089632e+003,1.402365e+001
1.090596e+003,1.481315e+001
1.091560e+003,1.656845e+001
1.092525e+003,1.760486e+001
1.093489e+003,1.799478e+001
1.094453e+003,1.804587e+001
1.095417e+003,1.787899e+001
1.096381e+003,1.758490e+001
1.097346e+003,1.729922e+001
1.098310e+003,1.698181e+001
1.099274e+003,1.681222e+001
1.100238e+003,1.697643e+001
1.101203e+003,1.709970e+001
1.102167e+003,1.700981e+001
1.103131e+003,1.680844e+001
1.104095e+003,1.656538e+001
1.105060e+003,1.631157e+001
1.106024e+003,1.626436e+001
1.106988e+003,1.676483e+001
1.107952e+003,1.756219e+001
1.108917e+003,1.849658e+001
1.109881e+003,1.934801e+001
1.110845e+003,1.915142e+001
1.111809e+003,1.725486e+001
1.112773e+003,1.460060e+001
1.113738e+003,1.357752e+001
1.114702e+003,1.505507e+001
1.115666e+003,1.580395e+001
1.116630e+003,1.519902e+001
1.117595e+003,1.468764e+001
1.118559e+003,1.467191e+001
1.119523e+003,1.509864e+001
1.120487e+003,1.603717e+001
1.121452e+003,1.748932e+001
1.122416e+003,1.867436e+001
1.123380e+003,1.870910e+001
1.124344e+003,1.814753e+001
1.125308e+003,1.768824e+001
1.126273e+003,1.741888e+001
1.127237e+003,1.750385e+001
1.128201e+003,1.805533e+001
1.129165e+003,1.882015e+001
1.130130e+003,1.917599e+001
1.131094e+003,1.889714e+001
1.132058e+003,1.876848e+001
1.133022e+003,1.918804e+001
1.133987e+003,1.927903e+001
1.134951e+003,1.838569e+001
1.135915e+003,1.721421e+001
1.136879e+003,1.685041e+001
1.137844e+003,1.754216e+001
1.138808e+003,1.833915e+001
1.139772e+003,1.823283e+001
1.140736e+003,1.797458e+001
1.141700e+003,1.890433e+001
1.142665e+003,2.066100e+001
1.143629e+003,2.192691e+001
1.144593e+003,2.203966e+001
1.145557e+003,2.170093e+001
1.146522e+003,2.237886e+001
1.147486e+003,2.457272e+001
1.148450e+003,2.533445e+001
1.149414e+003,2.329655e+001
1.150379e+003,2.186175e+001
1.151343e+003,2.240556e+001
1.152307e+003,2.372281e+001
1.153271e+003,2.429050e+001
1.154235e+003,2.380082e+001
1.155200e+003,2.304547e+001
1.156164e+003,2.243295e+001
1.157128e+003,2.224770e+001
1.158092e+003,2.293925e+001
1.159057e+003,2.421238e+001
1.160021e+003,2.541391e+001
1.160985e+003,2.629142e+001
1.161949e+003,2.677508e+001
1.162914e+003,2.668475e+001
1.163878e+003,2.594409e+001
1.164842e+003,2.569246e+001
1.165806e+003,2.571608e+001
1.166771e+003,2.651930e+001
1.167735e+003,2.909077e+001
1.168699e+003,3.179276e+001
1.169663e+003,3.301900e+001
1.170627e+003,3.281806e+001
1.171592e+003,3.258434e+001
1.172556e+003,3.325769e+001
1.173520e+003,3.404368e+001
1.174484e+003,3.326841e+001
1.175449e+003,3.177689e+001
1.176413e+003,3.120379e+001
1.177377e+003,3.191200e+001
1.178341e+003,3.351041e+001
1.179306e+003,3.591232e+001
1.180270e+003,3.899993e+001
1.181234e+003,4.098465e+001
1.182198e+003,4.126501e+001
1.183162e+003,4.132246e+001
1.184127e+003,4.101591e+001
1.185091e+003,4.082802e+001
1.186055e+003,4.151619e+001
1.187019e+003,4.256951e+001
1.187984e+003,4.261289e+001
1.188948e+003,4.097056e+001
1.189912e+003,3.879456e+001
1.190876e+003,3.753286e+001
1.191841e+003,3.689681e+001
1.192805e+003,3.610337e+001
1.193769e+003,3.512405e+001
1.194733e+003,3.414001e+001
1.195698e+003,3.307215e+001
1.196662e+003,3.219045e+001
1.197626e+003,3.246252e+001
1.198590e+003,3.447824e+001
1.199554e+003,3.542544e+001
1.200519e+003,3.422332e+001
1.201483e+003,3.288431e+001
1.202447e+003,3.176947e+001
1.203411e+003,3.100775e+001
1.204376e+003,3.073326e+001
1.205340e+003,3.086788e+001
1.206304e+003,3.111963e+001
1.207268e+003,3.139264e+001
1.208233e+003,3.154985e+001
1.209197e+003,3.041826e+001
1.210161e+003,2.817751e+001
1.211125e+003,2.738096e+001
1.212089e+003,2.927477e+001
1.213054e+003,3.177994e+001
1.214018e+003,3.259053e+001
1.214982e+003,3.190670e+001
1.215946e+003,3.152568e+001
1.216911e+003,3.170483e+001
1.217875e+003,3.192850e+001
1.218839e+003,3.216229e+001
1.219803e+003,3.218868e+001
1.220768e+003,3.181523e+001
1.221732e+003,3.119166e+001
1.222696e+003,3.059744e+001
1.223660e+003,3.017907e+001
1.224625e+003,2.986219e+001
1.225589e+003,2.945585e+001
1.226553e+003,2.895601e+001
1.227517e+003,2.931388e+001
1.228481e+003,3.096197e+001
1.229446e+003,3.243708e+001
1.230410e+003,3.326974e+001
1.231374e+003,3.342468e+001
1.232338e+003,3.242486e+001
1.233303e+003,3.015145e+001
1.234267e+003,2.911740e+001
1.235231e+003,3.133104e+001
1.236195e+003,3.348286e+001
1.237160e+003,3.370441e+001
1.238124e+003,3.278822e+001
1.239088e+003,3.129396e+001
1.240052e+003,2.973306e+001
1.241016e+003,2.917775e+001
1.241981e+003,3.069014e+001
1.242945e+003,3.362058e+001
1.243909e+003,3.497573e+001
1.244873e+003,3.400845e+001
1.245838e+003,3.316746e+001
1.246802e+003,3.221558e+001
1.247766e+003,3.161809e+001
1.248730e+003,3.167247e+001
1.249695e+003,3.225726e+001
1.250659e+003,3.333791e+001
1.251623e+003,3.500133e+001
1.252587e+003,3.605009e+001
1.253552e+003,3.523579e+001
1.254516e+003,3.380079e+001
1.255480e+003,3.278361e+001
1.256444e+003,3.219883e+001
1.257408e+003,3.195070e+001
1.258373e+003,3.201323e+001
1.259337e+003,3.261506e+001
1.260301e+003,3.427924e+001
1.261265e+003,3.705770e+001
1.262230e+003,3.810740e+001
1.263194e+003,3.520945e+001
1.264158e+003,3.349345e+001
1.265122e+003,3.421378e+001
1.266087e+003,3.530228e+001
1.267051e+003,3.521409e+001
1.268015e+003,3.438541e+001
1.268979e+003,3.431341e+001
1.269943e+003,3.560590e+001
1.270908e+003,3.697434e+001
1.271872e+003,3.675889e+001
1.272836e+003,3.584135e+001
1.273800e+003,3.659944e+001
1.274765e+003,3.889466e+001
1.275729e+003,4.055732e+001
1.276693e+003,4.050959e+001
1.277657e+003,3.947337e+001
1.278622e+003,3.820197e+001
1.279586e+003,3.660158e+001
1.280550e+003,3.624522e+001
1.281514e+003,3.860537e+001
1.282479e+003,4.028187e+001
1.283443e+003,3.985277e+001
1.284407e+003,3.892129e+001
1.285371e+003,3.854284e+001
1.286335e+003,3.875840e+001
1.287300e+003,3.923573e+001
1.288264e+003,3.981918e+001
1.289228e+003,4.056983e+001
1.290192e+003,4.169387e+001
1.291157e+003,4.306895e+001
1.292121e+003,4.262231e+001
1.293085e+003,3.944400e+001
1.294049e+003,3.720418e+001
1.295014e+003,3.777895e+001
1.295978e+003,3.954195e+001
1.296942e+003,4.066726e+001
1.297906e+003,4.115298e+001
1.298870e+003,4.169278e+001
1.299835e+003,4.253277e+001
1.300799e+003,4.312024e+001
1.301763e+003,4.245250e+001
1.302727e+003,4.183779e+001
1.303692e+003,4.307844e+001
1.304656e+003,4.567377e+001
1.305620e+003,4.743527e+001
1.306584e+003,4.707927e+001
1.307549e+003,4.558855e+001
1.308513e+003,4.484837e+001
1.309477e+003,4.489053e+001
1.310441e+003,4.519445e+001
1.311406e+003,4.623521e+001
1.312370e+003,4.695576e+001
1.313334e+003,4.696432e+001
1.314298e+003,4.682112e+001
1.315263e+003,4.704552e+001
1.316227e+003,4.755257e+001
1.317191e+003,4.792250e+001
1.318155e+003,4.797688e+001
1.319120e+003,4.776186e+001
1.320084e+003,4.708795e+001
1.321048e+003,4.629927e+001
1.322012e+003,4.632074e+001
1.322976e+003,4.708309e+001
1.323941e+003,4.756016e+001
1.324905e+003,4.723901e+001
1.325869e+003,4.664899e+001
1.326833e+003,4.653471e+001
1.327798e+003,4.687362e+001
1.328762e+003,4.711280e+001
1.329726e+003,4.700460e+001
1.330690e+003,4.713762e+001
1.331655e+003,4.805117e+001
1.332619e+003,4.888834e+001
1.333583e+003,4.890272e+001
1.334547e+003,4.841572e+001
1.335511e+003,4.813375e+001
1.336476e+003,4.835455e+001
1.337440e+003,4.888082e+001
1.338404e+003,4.954935e+001
1.339368e+003,5.025346e+001
1.340333e+003,4.973013e+001
1.341297e+003,4.727190e+001
1.342261e+003,4.567151e+001
1.343225e+003,4.567641e+001
1.344190e+003,4.619350e+001
1.345154e+003,4.646016e+001
1.346118e+003,4.667475e+001
1.347082e+003,4.766752e+001
1.348047e+003,4.969621e+001
1.349011e+003,5.078053e+001
1.349975e+003,4.914844e+001
1.350939e+003,4.672565e+001
1.351903e+003,4.527197e+001
1.352868e+003,4.471541e+001
1.353832e+003,4.501054e+001
1.354796e+003,4.611934e+001
1.355760e+003,4.778915e+001
1.356725e+003,5.002898e+001
1.357689e+003,5.247056e+001
1.358653e+003,5.322572e+001
1.359617e+003,5.150457e+001
1.360582e+003,5.035502e+001
1.361546e+003,5.039349e+001
1.362510e+003,5.053447e+001
1.363474e+003,5.068732e+001
1.364438e+003,5.071404e+001
1.365403e+003,5.015950e+001
1.366367e+003,4.920434e+001
1.367331e+003,4.874219e+001
1.368295e+003,4.937298e+001
1.369260e+003,5.058996e+001
1.370224e+003,5.157873e+001
1.371188e+003,5.240966e+001
1.372152e+003,5.323512e+001
1.373117e+003,5.419445e+001
1.374081e+003,5.447681e+001
1.375045e+003,5.305424e+001
1.376009e+003,5.143368e+001
1.376974e+003,5.155611e+001
1.377938e+003,5.318032e+001
1.378902e+003,5.445393e+001
1.379866e+003,5.483239e+001
1.380830e+003,5.482467e+001
1.381795e+003,5.483694e+001
1.382759e+003,5.457331e+001
1.383723e+003,5.313274e+001
1.384687e+003,5.126867e+001
1.385652e+003,5.120168e+001
1.386616e+003,5.372073e+001
1.387580e+003,5.670825e+001
1.388544e+003,5.748374e+001
1.389509e+003,5.630332e+001
1.390473e+003,5.609042e+001
1.391437e+003,5.774943e+001
1.392401e+003,5.853297e+001
1.393365e+003,5.744771e+001
1.394330e+003,5.635646e+001
1.395294e+003,5.582900e+001
1.396258e+003,5.577501e+001
1.397222e+003,5.633867e+001
1.398187e+003,5.735143e+001
1.399151e+003,5.806959e+001
1.400115e+003,5.790674e+001
1.401079e+003,5.728663e+001
1.402044e+003,5.706273e+001
1.403008e+003,5.726263e+001
1.403972e+003,5.757450e+001
1.404936e+003,5.803231e+001
1.405901e+003,5.863970e+001
1.406865e+003,5.965420e+001
1.407829e+003,6.055603e+001
1.408793e+003,6.065395e+001
1.409757e+003,6.016250e+001
1.410722e+003,5.997428e+001
1.411686e+003,6.027282e+001
1.412650e+003,6.078551e+001
1.413614e+003,6.173572e+001
1.414579e+003,6.255120e+001
1.415543e+003,6.205827e+001
1.416507e+003,6.099250e+001
1.417471e+003,6.160281e+001
1.418436e+003,6.451967e+001
1.419400e+003,6.710806e+001
1.420364e+003,6.648141e+001
1.421328e+003,6.363202e+001
1.422292e+003,6.271223e+001
1.423257e+003,6.432397e+001
1.424221e+003,6.539464e+001
1.425185e+003,6.478060e+001
1.426149e+003,6.434930e+001
1.427114e+003,6.488878e+001
1.428078e+003,6.586998e+001
1.429042e+003,6.682898e+001
1.430006e+003,6.757891e+001
1.430971e+003,6.799302e+001
1.431935e+003,6.804131e+001
1.432899e+003,6.792403e+001
1.433863e+003,6.794582e+001
1.434828e+003,6.813649e+001
1.435792e+003,6.826371e+001
1.436756e+003,6.784183e+001
1.437720e+003,6.803866e+001
1.438684e+003,6.939111e+001
1.439649e+003,7.104507e+001
1.440613e+003,7.316635e+001
1.441577e+003,7.498767e+001
1.442541e+003,7.485143e+001
1.443506e+003,7.269728e+001
1.444470e+003,7.072124e+001
1.445434e+003,7.015991e+001
1.446398e+003,7.063949e+001
1.447363e+003,7.238664e+001
1.448327e+003,7.452505e+001
1.449291e+003,7.436418e+001
1.450255e+003,7.166352e+001
1.451219e+003,6.978191e+001
1.452184e+003,7.072632e+001
1.453148e+003,7.273219e+001
1.454112e+003,7.367342e+001
1.455076e+003,7.366678e+001
1.456041e+003,7.329152e+001
1.457005e+003,7.227650e+001
1.457969e+003,7.242551e+001
1.458933e+003,7.622758e+001
1.459898e+003,7.956892e+001
1.460862e+003,7.896837e+001
1.461826e+003,7.658386e+001
1.462790e+003,7.597158e+001
1.463755e+003,7.759511e+001
1.464719e+003,7.916158e+001
1.465683e+003,7.897512e+001
1.466647e+003,7.790202e+001
1.467611e+003,7.799641e+001
1.468576e+003,7.950925e+001
1.469540e+003,8.007542e+001
1.470504e+003,7.897041e+001
1.471468e+003,7.810331e+001
1.472433e+003,7.810361e+001
1.473397e+003,7.799077e+001
1.474361e+003,7.662999e+001
1.475325e+003,7.499534e+001
1.476290e+003,7.501837e+001
1.477254e+003,7.679738e+001
1.478218e+003,7.808113e+001
1.479182e+003,7.706069e+001
1.480146e+003,7.505791e+001
1.481111e+003,7.510909e+001
1.482075e+003,7.747221e+001
1.483039e+003,7.877268e+001
1.484003e+003,7.864433e+001
1.484968e+003,7.817369e+001
1.485932e+003,7.697093e+001
1.486896e+003,7.625539e+001
1.487860e+003,7.746811e+001
1.488825e+003,7.977338e+001
1.489789e+003,8.127201e+001
1.490753e+003,8.150859e+001
1.491717e+003,8.108827e+001
1.492682e+003,8.022752e+001
1.493646e+003,7.923565e+001
1.494610e+003,7.855932e+001
1.495574e+003,7.816243e+001
1.496538e+003,7.821593e+001
1.497503e+003,7.892568e+001
1.498467e+003,7.888591e+001
1.499431e+003,7.599996e+001
1.500395e+003,7.301842e+001
1.501360e+003,7.447345e+001
1.502324e+003,7.924602e+001
1.503288e+003,8.128511e+001
1.504252e+003,7.904817e+001
1.505217e+003,7.689364e+001
1.506181e+003,7.725167e+001
1.507145e+003,7.803049e+001
1.508109e+003,7.730934e+001
1.509073e+003,7.594454e+001
1.510038e+003,7.537281e+001
1.511002e+003,7.572902e+001
1.511966e+003,7.611882e+001
1.512930e+003,7.601855e+001
1.513895e+003,7.566171e+001
1.514859e+003,7.540266e+001
1.515823e+003,7.517222e+001
1.516787e+003,7.447229e+001
1.517752e+003,7.265074e+001
1.518716e+003,7.226248e+001
1.519680e+003,7.612737e+001
1.520644e+003,7.897211e+001
1.521609e+003,7.723022e+001
1.522573e+003,7.391801e+001
1.523537e+003,7.277222e+001
1.524501e+003,7.401175e+001
1.525465e+003,7.566645e+001
1.526430e+003,7.649109e+001
1.527394e+003,7.637918e+001
1.528358e+003,7.505504e+001
1.529322e+003,7.267747e+001
1.530287e+003,7.227978e+001
1.531251e+003,7.610274e+001
1.532215e+003,7.760266e+001
1.533179e+003,7.510582e+001
1.534144e+003,7.234837e+001
1.535108e+003,7.046207e+001
1.536072e+003,6.920818e+001
1.537036e+003,6.835103e+001
1.538000e+003,6.779537e+001
1.538965e+003,6.745699e+001
1.539929e+003,6.728148e+001
1.540893e+003,6.733187e+001
1.541857e+003,6.774783e+001
1.542822e+003,6.848885e+001
1.543786e+003,6.916177e+001
1.544750e+003,6.977670e+001
1.545714e+003,6.999113e+001
1.546679e+003,6.967268e+001
1.547643e+003,6.908051e+001
1.548607e+003,6.808507e+001
1.549571e+003,6.713981e+001
1.550536e+003,6.657223e+001
1.551500e+003,6.631868e+001
1.552464e+003,6.629314e+001
1.553428e+003,6.651013e+001
1.554392e+003,6.695520e+001
1.555357e+003,6.769093e+001
1.556321e+003,6.815071e+001
1.557285e+003,6.704604e+001
1.558249e+003,6.452464e+001
1.559214e+003,6.282296e+001
1.560178e+003,6.214420e+001
1.561142e+003,6.187415e+001
1.562106e+003,6.163524e+001
1.563071e+003,6.175439e+001
1.564035e+003,6.333401e+001
1.564999e+003,6.539748e+001
1.565963e+003,6.530080e+001
1.566927e+003,6.271730e+001
1.567892e+003,6.005346e+001
1.568856e+003,5.831641e+001
1.569820e+003,5.753717e+001
1.570784e+003,5.828363e+001
1.571749e+003,5.981597e+001
1.572713e+003,6.042696e+001
1.573677e+003,6.012704e+001
1.574641e+003,5.929713e+001
1.575606e+003,5.765015e+001
1.576570e+003,5.615517e+001
1.577534e+003,5.576644e+001
1.578498e+003,5.604179e+001
1.579463e+003,5.610548e+001
1.580427e+003,5.591572e+001
1.581391e+003,5.589464e+001
1.582355e+003,5.630040e+001
1.583319e+003,5.638348e+001
1.584284e+003,5.565710e+001
1.585248e+003,5.441013e+001
1.586212e+003,5.259587e+001
1.587176e+003,5.047950e+001
1.588141e+003,4.905791e+001
1.589105e+003,4.859064e+001
1.590069e+003,4.830808e+001
1.591033e+003,4.750983e+001
1.591998e+003,4.682192e+001
1.592962e+003,4.752419e+001
1.593926e+003,4.924587e+001
1.594890e+003,4.999034e+001
1.595854e+003,4.954181e+001
1.596819e+003,4.842926e+001
1.597783e+003,4.619075e+001
1.598747e+003,4.422701e+001
1.599711e+003,4.392865e+001
1.600676e+003,4.425149e+001
1.601640e+003,4.396884e+001
1.602604e+003,4.314893e+001
1.603568e+003,4.255544e+001
1.604533e+003,4.248074e+001
1.605497e+003,4.230451e+001
1.606461e+003,4.139132e+001
1.607425e+003,3.995461e+001
1.608390e+003,3.831530e+001
1.609354e+003,3.648332e+001
1.610318e+003,3.590854e+001
1.611282e+003,3.713021e+001
1.612246e+003,3.859698e+001
1.613211e+003,4.019920e+001
1.614175e+003,4.120406e+001
1.615139e+003,4.111620e+001
1.616103e+003,4.016014e+001
1.617068e+003,3.815116e+001
1.618032e+003,3.543433e+001
1.618996e+003,3.398872e+001
1.619960e+003,3.511688e+001
1.620925e+003,3.670493e+001
1.621889e+003,3.530429e+001
1.622853e+003,3.164619e+001
1.623817e+003,3.044653e+001
1.624781e+003,3.226284e+001
1.625746e+003,3.340799e+001
1.626710e+003,3.294996e+001
1.627674e+003,3.193657e+001
1.628638e+003,2.979152e+001
1.629603e+003,2.817982e+001
1.630567e+003,2.954312e+001
1.631531e+003,3.230151e+001
1.632495e+003,3.276547e+001
1.633460e+003,3.027344e+001
1.634424e+003,2.756663e+001
1.635388e+003,2.658682e+001
1.636352e+003,2.653849e+001
1.637317e+003,2.599865e+001
1.638281e+003,2.502041e+001
1.639245e+003,2.460006e+001
1.640209e+003,2.491490e+001
1.641173e+003,2.516770e+001
1.642138e+003,2.549300e+001
1.643102e+003,2.529288e+001
1.644066e+003,2.413060e+001
1.645030e+003,2.246541e+001
1.645995e+003,2.017026e+001
1.646959e+003,1.784973e+001
1.647923e+003,1.697085e+001
1.648887e+003,1.791183e+001
1.649852e+003,1.935549e+001
1.650816e+003,2.038040e+001
1.651780e+003,2.087409e+001
1.652744e+003,2.032838e+001
1.653708e+003,1.879558e+001
1.654673e+003,1.805450e+001
1.655637e+003,1.850685e+001
1.656601e+003,1.858069e+001
1.657565e+003,1.731524e+001
1.658530e+003,1.627886e+001
1.659494e+003,1.677955e+001
1.660458e+003,1.758501e+001
1.661422e+003,1.723296e+001
1.662387e+003,1.598622e+001
1.663351e+003,1.498092e+001
1.664315e+003,1.461215e+001
1.665279e+003,1.454358e+001
1.666244e+003,1.455013e+001
1.667208e+003,1.460925e+001
1.668172e+003,1.474290e+001
1.669136e+003,1.490546e+001
1.670100e+003,1.452705e+001
1.671065e+003,1.336075e+001
1.672029e+003,1.252007e+001
1.672993e+003,1.261108e+001
1.673957e+003,1.283455e+001
1.674922e+003,1.267207e+001
1.675886e+003,1.231851e+001
1.676850e+003,1.199019e+001
1.677814e+003,1.167775e+001
1.678779e+003,1.127001e+001
1.679743e+003,1.073362e+001
1.680707e+003,1.013696e+001
1.681671e+003,9.285138e+000
1.682635e+003,8.670969e+000
1.683600e+003,9.791162e+000
1.684564e+003,1.214706e+001
1.685528e+003,1.194491e+001
1.686492e+003,8.311096e+000
1.687457e+003,6.175165e+000
1.688421e+003,8.049787e+000
1.689385e+003,1.033283e+001
1.690349e+003,1.001939e+001
1.691314e+003,8.797220e+000
1.692278e+003,8.746524e+000
1.693242e+003,9.477066e+000
1.694206e+003,9.075394e+000
1.695171e+003,6.954202e+000
1.696135e+003,5.239938e+000
1.697099e+003,5.628973e+000
1.698063e+003,6.756921e+000
1.699027e+003,6.810089e+000
1.699992e+003,6.190283e+000
1.700956e+003,6.197299e+000
1.701920e+003,6.931561e+000
1.702884e+003,7.466977e+000
1.703849e+003,7.537756e+000
1.704813e+003,7.079495e+000
1.705777e+003,5.709259e+000
1.706741e+003,4.118265e+000
1.707706e+003,3.487802e+000
1.708670e+003,3.630029e+000
1.709634e+003,3.842255e+000
1.710598e+003,4.055099e+000
1.711563e+003,4.215417e+000
1.712527e+003,4.415759e+000
1.713491e+003,4.418280e+000
1.714455e+003,3.836371e+000
1.715419e+003,3.041269e+000
1.716384e+003,2.646335e+000
1.717348e+003,2.657385e+000
1.718312e+003,2.837186e+000
1.719276e+003,3.107956e+000
1.720241e+003,3.375549e+000
1.721205e+003,3.614880e+000
1.722169e+003,3.716214e+000
1.723133e+003,3.472565e+000
1.724098e+003,2.945184e+000
1.725062e+003,2.406415e+000
1.726026e+003,1.705734e+000
1.726990e+003,1.487682e+000
1.727954e+003,2.269144e+000
1.728919e+003,3.008978e+000
1.729883e+003,3.503369e+000
1.730847e+003,3.517770e+000
1.731811e+003,2.315527e+000
1.732776e+003,6.131927e-001
1.733740e+003,1.616852e-001
1.734704e+003,1.107576e+000
1.735668e+003,1.816711e+000
1.736633e+003,1.336462e+000
1.737597e+003,3.567688e-001
1.738561e+003,-2.920502e-001
1.739525e+003,-4.769775e-001
1.740490e+003,4.848374e-001
1.741454e+003,3.371127e+000
1.742418e+003,4.408865e+000
1.743382e+003,2.051095e+000
1.744346e+003,2.738953e-001
1.745311e+003,1.863709e-002
1.746275e+003,1.458832e-001
1.747239e+003,7.178803e-002
1.748203e+003,-5.251465e-002
1.749168e+003,1.732498e-001
1.750132e+003,5.749359e-001
1.751096e+003,4.634232e-001
1.752060e+003,-3.507279e-001
1.753025e+003,-1.214072e+000
1.753989e+003,-1.533247e+000
1.754953e+003,-1.301083e+000
1.755917e+003,-3.227951e-001
1.756881e+003,1.431076e+000
1.757846e+003,1.896735e+000
1.758810e+003,4.777985e-001
1.759774e+003,-4.556503e-001
1.760738e+003,-1.156113e-001
1.761703e+003,6.400299e-002
1.762667e+003,-6.319809e-001
1.763631e+003,-1.477744e+000
1.764595e+003,-1.923776e+000
1.765560e+003,-2.057382e+000
1.766524e+003,-2.138203e+000
1.767488e+003,-2.214169e+000
1.768452e+003,-2.149271e+000
1.769417e+003,-1.849972e+000
1.770381e+003,-1.447482e+000
1.771345e+003,-9.197205e-001
1.772309e+003,-4.953049e-001
1.773273e+003,-1.020139e+000
1.774238e+003,-2.361743e+000
1.775202e+003,-2.826424e+000
1.776166e+003,-2.099426e+000
1.777130e+003,-9.892136e-001
1.778095e+003,6.249985e-001
1.779059e+003,1.620796e+000
1.780023e+003,4.804062e-001
1.780987e+003,-1.527666e+000
1.781952e+003,-2.200136e+000
1.782916e+003,-1.817546e+000
1.783880e+003,-1.862494e+000
1.784844e+003,-2.716800e+000
1.785808e+003,-3.119115e+000
1.786773e+003,-2.098039e+000
1.787737e+003,-9.535217e-001
1.788701e+003,-9.520127e-001
1.789665e+003,-1.296632e+000
1.790630e+003,-3.759812e-001
1.791594e+003,1.287381e+000
1.792558e+003,1.288969e+000
1.793522e+003,-7.939392e-001
1.794487e+003,-2.255827e+000
1.795451e+003,-1.348022e+000
1.796415e+003,1.164490e-001
1.797379e+003,-4.811783e-001
1.798344e+003,-2.496001e+000
1.799308e+003,-2.593872e+000
1.800272e+003,2.684936e-002
1.801236e+003,1.380649e+000
1.802201e+003,8.852127e-001
1.803165e+003,2.388077e-001
1.804129e+003,-7.502213e-001
1.805093e+003,-1.322591e+000
1.806057e+003,-6.224747e-001
1.807022e+003,3.433716e-001
1.807986e+003,3.346619e-001
1.808950e+003,-3.788544e-001
1.809914e+003,-7.691803e-001
1.810879e+003,-5.700516e-001
1.811843e+003,-3.597824e-001
1.812807e+003,-5.678192e-001
1.813771e+003,-9.846222e-001
1.814736e+003,-1.286554e+000
1.815700e+003,-1.472319e+000
1.816664e+003,-1.555817e+000
1.817628e+003,-1.522101e+000
1.818593e+003,-1.666431e+000
1.819557e+003,-2.177771e+000
1.820521e+003,-2.317255e+000
1.821485e+003,-1.385922e+000
1.822449e+003,-5.909531e-001
1.823414e+003,-1.153453e+000
1.824378e+003,-2.180963e+000
1.825342e+003,-2.448494e+000
1.826306e+003,-2.098403e+000
1.827271e+003,-2.071136e+000
1.828235e+003,-2.634421e+000
1.829199e+003,-2.833063e+000
1.830163e+003,-1.624568e+000
1.831128e+003,-5.393311e-001
1.832092e+003,-1.515958e+000
1.833056e+003,-3.064642e+000
1.834020e+003,-2.400661e+000
1.834984e+003,-1.930252e-001
1.835949e+003,7.095337e-001
1.836913e+003,-1.854965e-001
1.837877e+003,-1.093637e+000
1.838841e+003,-1.064294e+000
1.839806e+003,-8.126236e-001
1.840770e+003,-1.149330e+000
1.841734e+003,-1.851576e+000
1.842698e+003,-2.237709e+000
1.843663e+003,-2.287277e+000
1.844627e+003,-1.995197e+000
1.845591e+003,-1.090985e+000
1.846555e+003,-2.876068e-001
1.847520e+003,7.049042e-001
1.848484e+003,1.149109e+000
1.849448e+003,1.730804e-001
1.850412e+003,-8.399323e-001
1.851376e+003,-4.255951e-001
1.852341e+003,6.034195e-001
1.853305e+003,6.235520e-001
1.854269e+003,-3.961685e-001
1.855233e+003,-1.235118e+000
1.856198e+003,-1.295511e+000
1.857162e+003,-7.521302e-001
1.858126e+003,4.215515e-001
1.859090e+003,1.734789e+000
1.860055e+003,2.080347e+000
1.861019e+003,1.584848e+000
1.861983e+003,1.213799e+000
1.862947e+003,1.039964e+000
1.863911e+003,2.974396e-001
1.864876e+003,-1.433960e+000
1.865840e+003,-2.573105e+000
1.866804e+003,-2.136957e+000
1.867768e+003,-9.290085e-001
1.868733e+003,3.266510e-001
1.869697e+003,1.565279e+000
1.870661e+003,2.761505e+000
1.871625e+003,3.926682e+000
1.872590e+003,4.293765e+000
1.873554e+003,3.478528e+000
1.874518e+003,2.520697e+000
1.875482e+003,1.162514e+000
1.876447e+003,4.080414e-001
1.877411e+003,1.252014e+000
1.878375e+003,2.728915e+000
1.879339e+003,4.021985e+000
1.880303e+003,4.865100e+000
1.881268e+003,4.852796e+000
1.882232e+003,4.142062e+000
1.883196e+003,3.708261e+000
1.884160e+003,4.056979e+000
1.885125e+003,4.503268e+000
1.886089e+003,4.255807e+000
1.887053e+003,3.514902e+000
1.888017e+003,2.688663e+000
1.888982e+003,1.771967e+000
1.889946e+003,2.073910e+000
1.890910e+003,4.056558e+000
1.891874e+003,4.829129e+000
1.892839e+003,3.176791e+000
1.893803e+003,1.818616e+000
1.894767e+003,2.192288e+000
1.895731e+003,3.159283e+000
1.896695e+003,3.829016e+000
1.897660e+003,4.311011e+000
1.898624e+003,4.870346e+000
1.899588e+003,5.453778e+000
1.900552e+003,5.549316e+000
1.901517e+003,4.936700e+000
1.902481e+003,4.226468e+000
1.903445e+003,3.371789e+000
1.904409e+003,2.889023e+000
1.905374e+003,3.526440e+000
1.906338e+003,4.412000e+000
1.907302e+003,4.349930e+000
1.908266e+003,3.712796e+000
1.909230e+003,3.650650e+000
1.910195e+003,4.144278e+000
1.911159e+003,3.843710e+000
1.912123e+003,2.302985e+000
1.913087e+003,1.410646e+000
1.914052e+003,3.028442e+000
1.915016e+003,5.588968e+000
1.915980e+003,5.740338e+000
1.916944e+003,3.700671e+000
1.917909e+003,2.294473e+000
1.918873e+003,1.506480e+000
1.919837e+003,1.643677e+000
1.920801e+003,3.272455e+000
1.921766e+003,4.315036e+000
1.922730e+003,3.685474e+000
1.923694e+003,2.780969e+000
1.924658e+003,2.493573e+000
1.925622e+003,2.591022e+000
1.926587e+003,2.999997e+000
1.927551e+003,3.557410e+000
1.928515e+003,3.652872e+000
1.929479e+003,3.184064e+000
1.930444e+003,2.746253e+000
1.931408e+003,2.295209e+000
1.932372e+003,2.199481e+000
1.933336e+003,3.009171e+000
1.934301e+003,3.847525e+000
1.935265e+003,3.938034e+000
1.936229e+003,3.647418e+000
1.937193e+003,3.431220e+000
1.938157e+003,3.362106e+000
1.939122e+003,3.487326e+000
1.940086e+003,3.755118e+000
1.941050e+003,3.859076e+000
1.942014e+003,3.611734e+000
1.942979e+003,3.209357e+000
1.943943e+003,2.839786e+000
1.944907e+003,2.673810e+000
1.945871e+003,3.441492e+000
1.946836e+003,5.073071e+000
1.947800e+003,5.573318e+000
1.948764e+003,4.722174e+000
1.949728e+003,4.179034e+000
1.950693e+003,4.394339e+000
1.951657e+003,4.382864e+000
1.952621e+003,3.369818e+000
1.953585e+003,2.663925e+000
1.954549e+003,4.015460e+000
1.955514e+003,6.174081e+000
1.956478e+003,6.040765e+000
1.957442e+003,3.828705e+000
1.958406e+003,3.044623e+000
1.959371e+003,4.394956e+000
1.960335e+003,5.372663e+000
1.961299e+003,5.487470e+000
1.962263e+003,5.424512e+000
1.963228e+003,5.346069e+000
1.964192e+003,5.229520e+000
1.965156e+003,4.851108e+000
1.966120e+003,4.564355e+000
1.967084e+003,4.977777e+000
1.968049e+003,5.844928e+000
1.969013e+003,6.413452e+000
1.969977e+003,6.512296e+000
1.970941e+003,6.606049e+000
1.971906e+003,6.977167e+000
1.972870e+003,7.317099e+000
1.973834e+003,7.357877e+000
1.974798e+003,7.121179e+000
1.975763e+003,6.368903e+000
1.976727e+003,5.390137e+000
1.977691e+003,5.192560e+000
1.978655e+003,5.727127e+000
1.979620e+003,6.283475e+000
1.980584e+003,6.689889e+000
1.981548e+003,6.636017e+000
1.982512e+003,5.904572e+000
1.983476e+003,5.136908e+000
1.984441e+003,5.031207e+000
1.985405e+003,5.281054e+000
1.986369e+003,5.160419e+000
1.987333e+003,4.694934e+000
1.988298e+003,4.236795e+000
1.989262e+003,3.715201e+000
1.990226e+003,3.285483e+000
1.991190e+003,2.636826e+000
1.992155e+003,2.706888e+000
1.993119e+003,4.670682e+000
1.994083e+003,6.262756e+000
1.995047e+003,5.861228e+000
1.996011e+003,4.872864e+000
1.996976e+003,4.771707e+000
1.997940e+003,5.254800e+000
1.998904e+003,5.364789e+000
1.999868e+003,5.048132e+000
2.000833e+003,5.311532e+000
2.001797e+003,6.826181e+000
2.002761e+003,7.792752e+000
2.003725e+003,6.829025e+000
2.004690e+003,5.928534e+000
2.005654e+003,6.467856e+000
2.006618e+003,7.613803e+000
2.007582e+003,8.878876e+000
2.008547e+003,9.857489e+000
2.009511e+003,9.875445e+000
2.010475e+003,9.128973e+000
2.011439e+003,8.438345e+000
2.012403e+003,8.129416e+000
2.013368e+003,8.178403e+000
2.014332e+003,8.626429e+000
2.015296e+003,8.919187e+000
2.016260e+003,8.172129e+000
2.017225e+003,6.841287e+000
2.018189e+003,5.705914e+000
2.019153e+003,4.917410e+000
2.020117e+003,5.462222e+000
2.021082e+003,7.189511e+000
2.022046e+003,7.963989e+000
2.023010e+003,7.279440e+000
2.023974e+003,6.732666e+000
2.024938e+003,7.196457e+000
2.025903e+003,7.866873e+000
2.026867e+003,7.947309e+000
2.027831e+003,7.482709e+000
2.028795e+003,6.478586e+000
2.029760e+003,5.010892e+000
2.030724e+003,4.831515e+000
2.031688e+003,6.704871e+000
2.032652e+003,6.786475e+000
2.033617e+003,3.665430e+000
2.034581e+003,1.752331e+000
2.035545e+003,2.668622e+000
2.036509e+003,4.188950e+000
2.037474e+003,5.364114e+000
2.038438e+003,6.255765e+000
2.039402e+003,7.026883e+000
2.040366e+003,7.567065e+000
2.041330e+003,7.587836e+000
2.042295e+003,7.107953e+000
2.043259e+003,6.404950e+000
2.044223e+003,5.220221e+000
2.045187e+003,4.547668e+000
2.046152e+003,4.917874e+000
2.047116e+003,5.339343e+000
2.048080e+003,5.294638e+000
2.049044e+003,5.299771e+000
2.050009e+003,6.075421e+000
2.050973e+003,6.878424e+000
2.051937e+003,6.655322e+000
2.052901e+003,5.767816e+000
2.053865e+003,5.161939e+000
2.054830e+003,5.003473e+000
2.055794e+003,4.867731e+000
2.056758e+003,4.550049e+000
2.057722e+003,4.482419e+000
2.058687e+003,5.254562e+000
2.059651e+003,6.123404e+000
2.060615e+003,6.294083e+000
2.061579e+003,6.129580e+000
2.062544e+003,6.120938e+000
2.063508e+003,6.240314e+000
2.064472e+003,6.262662e+000
2.065436e+003,6.209002e+000
2.066401e+003,6.468384e+000
2.067365e+003,7.014789e+000
2.068329e+003,6.888303e+000
2.069293e+003,5.509982e+000
2.070258e+003,4.038712e+000
2.071222e+003,3.831955e+000
2.072186e+003,4.511758e+000
2.073150e+003,5.530579e+000
2.074115e+003,6.695691e+000
2.075079e+003,7.008874e+000
2.076043e+003,6.548841e+000
2.077007e+003,6.454315e+000
2.077971e+003,6.890793e+000
2.078936e+003,6.782858e+000
2.079900e+003,5.708115e+000
2.080864e+003,4.694534e+000
2.081828e+003,4.448331e+000
2.082792e+003,4.978961e+000
2.083757e+003,6.443423e+000
2.084721e+003,8.304309e+000
2.085685e+003,8.551168e+000
2.086649e+003,7.107498e+000
2.087614e+003,6.372260e+000
2.088578e+003,6.504672e+000
2.089542e+003,6.630109e+000
2.090506e+003,6.717151e+000
2.091471e+003,6.396255e+000
2.092435e+003,5.203992e+000
2.093399e+003,4.492020e+000
2.094363e+003,5.500397e+000
2.095328e+003,6.919022e+000
2.096292e+003,6.959521e+000
2.097256e+003,6.032041e+000
2.098220e+003,5.629562e+000
2.099185e+003,5.843539e+000
2.100149e+003,5.964584e+000
2.101113e+003,5.916669e+000
2.102077e+003,5.861279e+000
2.103042e+003,5.771811e+000
2.104006e+003,5.715640e+000
2.104970e+003,5.736298e+000
2.105934e+003,5.781845e+000
2.106898e+003,5.480279e+000
2.107863e+003,5.456738e+000
2.108827e+003,6.942990e+000
2.109791e+003,9.019632e+000
2.110755e+003,9.443006e+000
2.111719e+003,8.172525e+000
2.112684e+003,7.306448e+000
2.113648e+003,7.378610e+000
2.114612e+003,7.255286e+000
2.115576e+003,6.110065e+000
2.116541e+003,5.526251e+000
2.117505e+003,6.648764e+000
2.118469e+003,7.838651e+000
2.119433e+003,8.042371e+000
2.120398e+003,7.827695e+000
2.121362e+003,7.911099e+000
2.122326e+003,7.996698e+000
2.123290e+003,7.141019e+000
2.124255e+003,5.605090e+000
2.125219e+003,5.031741e+000
2.126183e+003,5.923902e+000
2.127147e+003,7.161679e+000
2.128112e+003,8.674011e+000
2.129076e+003,9.750229e+000
2.130040e+003,9.864731e+000
2.131004e+003,9.519480e+000
2.131969e+003,8.707550e+000
2.132933e+003,7.977432e+000
2.133897e+003,8.215381e+000
2.134861e+003,8.899918e+000
2.135825e+003,8.979199e+000
2.136790e+003,8.397723e+000
2.137754e+003,7.663855e+000
2.138718e+003,6.990939e+000
2.139682e+003,6.506625e+000
2.140646e+003,6.258420e+000
2.141611e+003,6.335455e+000
2.142575e+003,6.979102e+000
2.143539e+003,7.758270e+000
2.144503e+003,8.460584e+000
2.145468e+003,8.913959e+000
2.146432e+003,8.586566e+000
2.147396e+003,7.947717e+000
2.148360e+003,8.011889e+000
2.149325e+003,8.683093e+000
2.150289e+003,9.141675e+000
2.151253e+003,9.150668e+000
2.152217e+003,9.133377e+000
2.153182e+003,9.350647e+000
2.154146e+003,9.430670e+000
2.155110e+003,8.893949e+000
2.156074e+003,8.225180e+000
2.157039e+003,8.040329e+000
2.158003e+003,8.081861e+000
2.158967e+003,7.645514e+000
2.159931e+003,7.290631e+000
2.160896e+003,8.805173e+000
2.161860e+003,1.152237e+001
2.162824e+003,1.275713e+001
2.163788e+003,1.203681e+001
2.164752e+003,1.095146e+001
2.165717e+003,1.033166e+001
2.166681e+003,9.774341e+000
2.167645e+003,8.825854e+000
2.168609e+003,8.227023e+000
2.169573e+003,9.387548e+000
2.170538e+003,1.139404e+001
2.171502e+003,1.272991e+001
2.172466e+003,1.332105e+001
2.173430e+003,1.283245e+001
2.174395e+003,1.156679e+001
2.175359e+003,1.011417e+001
2.176323e+003,8.880035e+000
2.177287e+003,9.300720e+000
2.178252e+003,1.158245e+001
2.179216e+003,1.279530e+001
2.180180e+003,1.081275e+001
2.181144e+003,8.206736e+000
2.182109e+003,8.115909e+000
2.183073e+003,9.427719e+000
2.184037e+003,1.050883e+001
2.185001e+003,1.109135e+001
2.185966e+003,9.956296e+000
2.186930e+003,7.846808e+000
2.187894e+003,7.312320e+000
2.188858e+003,8.345456e+000
2.189823e+003,8.915695e+000
2.190787e+003,8.581549e+000
2.191751e+003,9.248175e+000
2.192715e+003,1.184905e+001
2.193679e+003,1.372738e+001
2.194644e+003,1.213713e+001
2.195608e+003,9.526248e+000
2.196572e+003,1.030818e+001
2.197536e+003,1.282618e+001
2.198500e+003,1.284635e+001
2.199465e+003,1.123213e+001
2.200429e+003,1.050545e+001
2.201393e+003,1.062062e+001
2.202357e+003,1.049980e+001
2.203322e+003,9.953763e+000
2.204286e+003,9.163541e+000
2.205250e+003,8.335938e+000
2.206214e+003,8.395782e+000
2.207179e+003,9.980374e+000
2.208143e+003,1.190819e+001
2.209107e+003,1.285841e+001
2.210071e+003,1.308555e+001
2.211036e+003,1.282811e+001
2.212000e+003,1.232776e+001
2.212964e+003,1.207602e+001
2.213928e+003,1.210968e+001
2.214893e+003,1.276947e+001
2.215857e+003,1.380930e+001
2.216821e+003,1.399602e+001
2.217785e+003,1.323424e+001
2.218750e+003,1.291369e+001
2.219714e+003,1.365692e+001
2.220678e+003,1.474992e+001
2.221642e+003,1.568587e+001
2.222606e+003,1.627521e+001
2.223571e+003,1.589654e+001
2.224535e+003,1.530916e+001
2.225499e+003,1.606945e+001
2.226463e+003,1.756932e+001
2.227427e+003,1.844072e+001
2.228392e+003,1.896389e+001
2.229356e+003,2.026673e+001
2.230320e+003,2.223849e+001
2.231284e+003,2.393132e+001
2.232249e+003,2.501829e+001
2.233213e+003,2.549932e+001
2.234177e+003,2.544393e+001
2.235141e+003,2.575233e+001
2.236106e+003,2.722833e+001
2.237070e+003,2.934997e+001
2.238034e+003,3.203140e+001
2.238998e+003,3.441499e+001
2.239963e+003,3.486724e+001
2.240927e+003,3.452139e+001
2.241891e+003,3.500161e+001
2.242855e+003,3.651897e+001
2.243820e+003,3.978189e+001
2.244784e+003,4.392346e+001
2.245748e+003,4.584293e+001
2.246712e+003,4.511982e+001
2.247677e+003,4.528420e+001
2.248641e+003,4.822863e+001
2.249605e+003,5.193708e+001
2.250569e+003,5.541880e+001
2.251533e+003,5.798359e+001
2.252498e+003,5.872337e+001
2.253462e+003,5.846696e+001
2.254426e+003,5.814307e+001
2.255390e+003,5.738206e+001
2.256354e+003,5.516155e+001
2.257319e+003,5.226770e+001
2.258283e+003,5.048270e+001
2.259247e+003,4.955724e+001
2.260211e+003,4.764265e+001
2.261176e+003,4.432239e+001
2.262140e+003,4.084176e+001
2.263104e+003,3.752855e+001
2.264068e+003,3.490597e+001
2.265033e+003,3.350514e+001
2.265997e+003,3.256898e+001
2.266961e+003,3.221297e+001
2.267925e+003,3.148902e+001
2.268890e+003,2.938342e+001
2.269854e+003,2.677073e+001
2.270818e+003,2.436529e+001
2.271782e+003,2.237597e+001
2.272747e+003,2.117255e+001
2.273711e+003,2.051860e+001
2.274675e+003,1.942436e+001
2.275639e+003,1.768821e+001
2.276604e+003,1.641719e+001
2.277568e+003,1.619319e+001
2.278532e+003,1.582492e+001
2.279496e+003,1.490356e+001
2.280460e+003,1.386316e+001
2.281425e+003,1.278740e+001
2.282389e+003,1.173281e+001
2.283353e+003,1.074020e+001
2.284317e+003,9.843411e+000
2.285281e+003,9.088064e+000
2.286246e+003,8.422626e+000
2.287210e+003,7.458539e+000
2.288174e+003,6.424988e+000
2.289138e+003,7.019620e+000
2.290103e+003,9.956470e+000
2.291067e+003,1.091461e+001
2.292031e+003,8.548370e+000
2.292995e+003,6.806299e+000
2.293960e+003,5.836810e+000
2.294924e+003,5.481030e+000
2.295888e+003,6.047156e+000
2.296852e+003,6.590570e+000
2.297817e+003,6.571738e+000
2.298781e+003,6.535092e+000
2.299745e+003,7.094531e+000
2.300709e+003,7.778211e+000
2.301674e+003,7.727038e+000
2.302638e+003,7.055860e+000
2.303602e+003,6.386847e+000
2.304566e+003,5.694156e+000
2.305531e+003,5.100568e+000
2.306495e+003,4.599295e+000
2.307459e+003,4.560126e+000
2.308423e+003,5.069876e+000
2.309387e+003,5.353091e+000
2.310352e+003,5.190707e+000
2.311316e+003,5.013403e+000
2.312280e+003,5.049432e+000
2.313244e+003,5.079648e+000
2.314208e+003,4.893576e+000
2.315173e+003,4.660452e+000
2.316137e+003,4.734632e+000
2.317101e+003,4.749127e+000
2.318065e+003,3.185629e+000
2.319030e+003,8.026962e-001
2.319994e+003,1.192239e+000
2.320958e+003,3.501694e+000
2.321922e+003,3.886566e+000
2.322887e+003,2.506000e+000
2.323851e+003,1.975851e+000
2.324815e+003,2.689520e+000
2.325779e+003,3.476877e+000
2.326744e+003,3.798563e+000
2.327708e+003,3.396594e+000
2.328672e+003,2.063113e+000
2.329636e+003,1.139330e+000
2.330601e+003,2.402444e+000
2.331565e+003,3.842459e+000
2.332529e+003,2.782681e+000
2.333493e+003,1.061522e+000
2.334458e+003,1.049983e+000
2.335422e+003,1.606017e+000
2.336386e+003,8.778351e-001
2.337350e+003,-4.592438e-001
2.338314e+003,-8.420349e-001
2.339279e+003,-4.570587e-001
2.340243e+003,-6.977844e-001
2.341207e+003,-1.704338e+000
2.342171e+003,-1.921014e+000
2.343135e+003,-6.511291e-001
2.344100e+003,4.274383e-001
2.345064e+003,9.401093e-001
2.346028e+003,7.674896e-001
2.346992e+003,-8.837875e-001
2.347957e+003,-2.200616e+000
2.348921e+003,-1.921252e+000
2.349885e+003,-1.415485e+000
2.350849e+003,-1.863503e+000
2.351814e+003,-2.552608e+000
2.352778e+003,-2.626916e+000
2.353742e+003,-2.197855e+000
2.354706e+003,-1.451398e+000
2.355671e+003,-4.259399e-001
2.356635e+003,8.814850e-002
2.357599e+003,-2.685547e-002
2.358563e+003,-2.194061e-001
2.359528e+003,-6.230881e-001
2.360492e+003,-6.064636e-001
2.361456e+003,1.705490e-001
2.362420e+003,2.308578e-001
2.363385e+003,-1.070500e+000
2.364349e+003,-2.071678e+000
2.365313e+003,-1.849394e+000
2.366277e+003,-1.277795e+000
2.367241e+003,-1.145998e+000
2.368206e+003,-1.303815e+000
2.369170e+003,-1.549303e+000
2.370134e+003,-1.786862e+000
2.371098e+003,-1.639136e+000
2.372063e+003,-1.249710e+000
2.373027e+003,-1.340784e+000
2.373991e+003,-1.683560e+000
2.374955e+003,-1.187186e+000
2.375919e+003,-1.450165e-001
2.376884e+003,-1.495178e-001
2.377848e+003,-1.219511e+000
2.378812e+003,-1.803131e+000
2.379776e+003,-1.463774e+000
2.380741e+003,-1.398538e+000
2.381705e+003,-2.281854e+000
2.382669e+003,-3.100752e+000
2.383633e+003,-3.201555e+000
2.384598e+003,-2.754097e+000
2.385562e+003,-1.184445e+000
2.386526e+003,-3.765869e-003
2.387490e+003,-9.773575e-001
2.388455e+003,-2.354341e+000
2.389419e+003,-2.310457e+000
2.390383e+003,-1.676492e+000
2.391347e+003,-1.760805e+000
2.392312e+003,-2.293202e+000
2.393276e+003,-2.389435e+000
2.394240e+003,-2.011652e+000
2.395204e+003,-1.611504e+000
2.396168e+003,-1.235550e+000
2.397133e+003,-7.719024e-001
2.398097e+003,9.017487e-002
2.399061e+003,4.048019e-001
2.400025e+003,-2.415237e-001
2.400990e+003,-6.390350e-001
2.401954e+003,-4.080673e-001
2.402918e+003,-1.326141e-001
2.403882e+003,-4.439697e-002
2.404846e+003,-1.716599e-001
2.405811e+003,-6.221222e-001
2.406775e+003,-8.777450e-001
2.407739e+003,-1.223663e-001
2.408703e+003,1.055339e+000
2.409668e+003,8.945160e-001
2.410632e+003,-2.043976e-001
2.411596e+003,-1.087952e-002
2.412560e+003,1.089522e+000
2.413525e+003,1.519403e+000
2.414489e+003,1.251735e+000
2.415453e+003,4.033707e-001
2.416417e+003,-6.712936e-001
2.417382e+003,-8.182953e-001
2.418346e+003,8.803864e-002
2.419310e+003,1.005266e+000
2.420274e+003,1.446629e+000
2.421239e+003,1.485300e+000
2.422203e+003,1.007219e+000
2.423167e+003,7.165573e-001
2.424131e+003,1.279831e+000
2.425095e+003,1.983449e+000
2.426060e+003,2.683612e+000
2.427024e+003,2.969241e+000
2.427988e+003,2.063592e+000
2.428952e+003,1.047533e+000
2.429917e+003,1.135040e+000
2.430881e+003,1.737280e+000
2.431845e+003,1.863255e+000
2.432809e+003,1.602119e+000
2.433773e+003,1.599486e+000
2.434738e+003,1.862009e+000
2.435702e+003,1.350796e+000
2.436666e+003,-6.475433e-001
2.437630e+003,-6.070404e-001
2.438595e+003,2.217200e+000
2.439559e+003,3.642789e+000
2.440523e+003,2.942206e+000
2.441487e+003,2.423856e+000
2.442452e+003,2.739157e+000
2.443416e+003,3.612320e+000
2.444380e+003,4.910376e+000
2.445344e+003,5.550509e+000
2.446309e+003,4.597717e+000
2.447273e+003,3.340167e+000
2.448237e+003,3.426355e+000
2.449201e+003,4.278399e+000
2.450166e+003,5.465112e+000
2.451130e+003,6.374707e+000
2.452094e+003,5.558810e+000
2.453058e+003,4.087531e+000
2.454022e+003,3.627469e+000
2.454987e+003,3.839392e+000
2.455951e+003,3.885205e+000
2.456915e+003,3.769415e+000
2.457879e+003,3.875839e+000
2.458844e+003,4.240027e+000
2.459808e+003,4.518988e+000
2.460772e+003,4.554544e+000
2.461736e+003,5.096066e+000
2.462700e+003,6.818137e+000
2.463665e+003,8.101044e+000
2.464629e+003,8.978375e+000
2.465593e+003,9.150662e+000
2.466557e+003,8.269058e+000
2.467522e+003,7.120834e+000
2.468486e+003,5.759094e+000
2.469450e+003,5.025751e+000
2.470414e+003,5.607315e+000
2.471379e+003,6.870755e+000
2.472343e+003,8.184384e+000
2.473307e+003,8.981333e+000
2.474271e+003,7.713244e+000
2.475236e+003,5.454855e+000
2.476200e+003,6.035049e+000
2.477164e+003,8.457047e+000
2.478128e+003,1.017434e+001
2.479093e+003,1.098976e+001
2.480057e+003,1.027153e+001
2.481021e+003,8.694778e+000
2.481985e+003,8.051661e+000
2.482949e+003,8.414490e+000
2.483914e+003,8.545334e+000
2.484878e+003,8.185022e+000
2.485842e+003,8.404678e+000
2.486806e+003,9.758341e+000
2.487771e+003,1.079888e+001
2.488735e+003,1.085288e+001
2.489699e+003,1.076967e+001
2.490663e+003,1.026203e+001
2.491627e+003,1.035126e+001
2.492592e+003,1.220799e+001
2.493556e+003,1.355671e+001
2.494520e+003,1.330915e+001
2.495484e+003,1.205949e+001
2.496449e+003,9.793554e+000
2.497413e+003,8.051489e+000
2.498377e+003,9.296240e+000
2.499341e+003,1.213396e+001
2.500306e+003,1.285007e+001
2.501270e+003,1.193649e+001
2.502234e+003,1.137280e+001
2.503198e+003,1.118479e+001
2.504163e+003,1.161145e+001
2.505127e+003,1.244021e+001
2.506091e+003,1.300927e+001
2.507055e+003,1.342412e+001
2.508020e+003,1.449529e+001
2.508984e+003,1.605528e+001
2.509948e+003,1.677916e+001
2.510912e+003,1.631681e+001
2.511876e+003,1.576785e+001
2.512841e+003,1.547176e+001
2.513805e+003,1.545916e+001
2.514769e+003,1.576723e+001
2.515733e+003,1.628916e+001
2.516698e+003,1.710116e+001
2.517662e+003,1.794836e+001
2.518626e+003,1.898322e+001
2.519590e+003,1.972548e+001
2.520554e+003,1.972336e+001
2.521519e+003,1.975415e+001
2.522483e+003,2.047857e+001
2.523447e+003,2.162498e+001
2.524411e+003,2.284350e+001
2.525376e+003,2.417576e+001
2.526340e+003,2.569913e+001
2.527304e+003,2.732127e+001
2.528268e+003,2.905161e+001
2.529233e+003,3.060083e+001
2.530197e+003,3.098014e+001
2.531161e+003,3.071292e+001
2.532125e+003,3.090418e+001
2.533090e+003,3.156877e+001
2.534054e+003,3.220906e+001
2.535018e+003,3.297240e+001
2.535982e+003,3.491660e+001
2.536947e+003,3.815165e+001
2.537911e+003,4.023645e+001
2.538875e+003,4.000861e+001
2.539839e+003,4.030112e+001
2.540803e+003,4.224041e+001
2.541768e+003,4.332425e+001
2.542732e+003,4.289926e+001
2.543696e+003,4.257565e+001
2.544660e+003,4.271861e+001
2.545625e+003,4.375780e+001
2.546589e+003,4.607934e+001
2.547553e+003,4.723327e+001
2.548517e+003,4.521908e+001
2.549482e+003,4.287561e+001
2.550446e+003,4.364694e+001
2.551410e+003,4.562037e+001
2.552374e+003,4.580796e+001
2.553339e+003,4.525374e+001
2.554303e+003,4.583360e+001
2.555267e+003,4.635457e+001
2.556231e+003,4.467056e+001
2.557196e+003,4.240527e+001
2.558160e+003,4.224102e+001
2.559124e+003,4.290076e+001
2.560088e+003,4.178615e+001
2.561052e+003,3.927209e+001
2.562017e+003,3.709022e+001
2.562981e+003,3.536149e+001
2.563945e+003,3.472118e+001
2.564909e+003,3.544872e+001
2.565874e+003,3.579907e+001
2.566838e+003,3.588659e+001
2.567802e+003,3.453545e+001
2.568766e+003,3.166209e+001
2.569730e+003,3.023365e+001
2.570695e+003,3.059978e+001
2.571659e+003,2.939317e+001
2.572623e+003,2.583785e+001
2.573587e+003,2.373655e+001
2.574552e+003,2.499006e+001
2.575516e+003,2.580668e+001
2.576480e+003,2.329316e+001
2.577444e+003,2.072525e+001
2.578409e+003,2.044481e+001
2.579373e+003,2.041080e+001
2.580337e+003,1.940601e+001
2.581301e+003,1.858365e+001
2.582266e+003,1.897183e+001
2.583230e+003,1.938970e+001
2.584194e+003,1.915355e+001
2.585158e+003,1.826486e+001
2.586123e+003,1.656601e+001
2.587087e+003,1.462530e+001
2.588051e+003,1.332527e+001
2.589015e+003,1.263172e+001
2.589979e+003,1.262586e+001
2.590944e+003,1.304613e+001
2.591908e+003,1.298475e+001
2.592872e+003,1.244938e+001
2.593836e+003,1.108530e+001
2.594801e+003,9.501877e+000
2.595765e+003,9.306320e+000
2.596729e+003,9.831082e+000
2.597693e+003,8.745831e+000
2.598657e+003,6.452334e+000
2.599622e+003,5.980972e+000
2.600586e+003,7.827506e+000
2.601550e+003,8.678213e+000
2.602514e+003,7.514804e+000
2.603479e+003,6.874176e+000
2.604443e+003,6.954758e+000
2.605407e+003,7.091784e+000
2.606371e+003,7.410583e+000
2.607336e+003,6.545349e+000
2.608300e+003,4.158722e+000
2.609264e+003,2.644220e+000
2.610228e+003,2.845836e+000
2.611193e+003,3.407062e+000
2.612157e+003,3.544466e+000
2.613121e+003,3.819127e+000
2.614085e+003,4.863919e+000
2.615050e+003,5.320053e+000
2.616014e+003,3.319038e+000
2.616978e+003,1.335948e+000
2.617942e+003,8.421555e-001
2.618906e+003,1.074271e+000
2.619871e+003,2.417152e+000
2.620835e+003,3.232799e+000
2.621799e+003,1.642920e+000
2.622763e+003,2.994690e-002
2.623728e+003,7.354034e-001
2.624692e+003,2.464349e+000
2.625656e+003,3.220218e+000
2.626620e+003,3.245342e+000
2.627584e+003,3.115263e+000
2.628549e+003,2.853845e+000
2.629513e+003,2.479709e+000
2.630477e+003,2.087244e+000
2.631441e+003,1.709439e+000
2.632406e+003,1.577118e+000
2.633370e+003,2.352789e+000
2.634334e+003,3.581110e+000
2.635298e+003,4.326837e+000
2.636263e+003,4.553473e+000
2.637227e+003,4.722653e+000
2.638191e+003,4.866791e+000
2.639155e+003,4.319513e+000
2.640120e+003,2.893779e+000
2.641084e+003,1.949226e+000
2.642048e+003,1.482588e+000
2.643012e+003,1.469035e+000
2.643977e+003,1.926090e+000
2.644941e+003,1.732967e+000
2.645905e+003,8.287002e-001
2.646869e+003,3.495209e-001
2.647833e+003,5.444428e-001
2.648798e+003,7.617920e-001
2.649762e+003,7.564942e-001
2.650726e+003,9.749100e-001
2.651690e+003,1.781309e+000
2.652655e+003,2.050981e+000
2.653619e+003,6.591644e-001
2.654583e+003,-3.343430e-001
2.655547e+003,-3.633423e-002
2.656511e+003,2.560410e-001
2.657476e+003,1.966736e-001
2.658440e+003,4.136658e-002
2.659404e+003,-1.351715e-001
2.660368e+003,-1.626709e-001
2.661333e+003,9.297486e-002
2.662297e+003,2.721405e-001
2.663261e+003,-2.990112e-002
2.664225e+003,-2.575150e-001
2.665190e+003,6.424347e-001
2.666154e+003,1.539957e+000
2.667118e+003,7.372910e-001
2.668082e+003,-2.023605e-001
2.669047e+003,5.460693e-001
2.670011e+003,1.349425e+000
2.670975e+003,1.634430e-001
2.671939e+003,-1.295448e+000
2.672904e+003,-1.039417e+000
2.673868e+003,2.087692e-001
2.674832e+003,1.750838e+000
2.675796e+003,2.901465e+000
2.676760e+003,1.643568e+000
2.677725e+003,-1.231659e+000
2.678689e+003,-2.732753e+000
2.679653e+003,-2.990714e+000
2.680617e+003,-1.905760e+000
2.681582e+003,-2.562515e-001
2.682546e+003,7.123032e-001
2.683510e+003,9.170288e-001
2.684474e+003,-5.599670e-002
2.685438e+003,-1.438544e+000
2.686403e+003,-1.370583e+000
2.687367e+003,1.095123e-001
2.688331e+003,1.459811e+000
2.689295e+003,2.646718e+000
2.690260e+003,3.189145e+000
2.691224e+003,3.092064e+000
2.692188e+003,1.901817e+000
2.693152e+003,-2.779129e-001
2.694117e+003,-8.654999e-001
2.695081e+003,1.013184e-002
2.696045e+003,5.506134e-002
2.697009e+003,-9.001694e-001
2.697974e+003,-1.455359e+000
2.698938e+003,-1.289194e+000
2.699902e+003,-1.154805e+000
2.700866e+003,-1.317905e+000
2.701831e+003,-1.121043e+000
2.702795e+003,3.319901e-001
2.703759e+003,4.677688e-001
2.704723e+003,-1.928551e+000
2.705688e+003,-2.178441e+000
2.706652e+003,7.710739e-001
2.707616e+003,2.277879e+000
2.708580e+003,1.200987e+000
2.709544e+003,-6.017380e-001
2.710509e+003,-2.206647e+000
2.711473e+003,-2.557436e+000
2.712437e+003,-1.100198e+000
2.713401e+003,7.779999e-002
2.714365e+003,-7.033463e-001
2.715330e+003,-1.222678e+000
2.716294e+003,3.752731e-001
2.717258e+003,1.368202e+000
2.718222e+003,3.614258e-001
2.719187e+003,-8.291733e-001
2.720151e+003,-1.866130e+000
2.721115e+003,-2.386384e+000
2.722079e+003,-2.171857e+000
2.723044e+003,-1.806760e+000
2.724008e+003,-1.736493e+000
2.724972e+003,-1.204028e+000
2.725936e+003,8.040161e-001
2.726901e+003,2.648358e+000
2.727865e+003,2.118306e+000
2.728829e+003,1.149374e+000
2.729793e+003,1.438972e+000
2.730758e+003,1.715471e+000
2.731722e+003,1.061855e+000
2.732686e+003,1.598969e-002
2.733650e+003,-1.468417e+000
2.734615e+003,-2.227394e+000
2.735579e+003,-1.032861e+000
2.736543e+003,4.429306e-001
2.737507e+003,-1.212616e-001
2.738471e+003,-1.508838e+000
2.739436e+003,-1.414201e+000
2.740400e+003,-6.412094e-001
2.741364e+003,-3.524704e-001
2.742328e+003,-3.735840e-001
2.743292e+003,-7.360352e-001
2.744257e+003,-1.053081e+000
2.745221e+003,-8.175705e-001
2.746185e+003,-3.972427e-001
2.747149e+003,-2.889572e-001
2.748114e+003,-3.253464e-001
2.749078e+003,-2.489868e-001
2.750042e+003,-1.002533e-001
2.751006e+003,1.681976e-002
2.751971e+003,6.999359e-002
2.752935e+003,-9.769745e-002
2.753899e+003,-3.651276e-001
2.754863e+003,-3.833328e-001
2.755828e+003,-3.547607e-001
2.756792e+003,-9.734543e-001
2.757756e+003,-1.534196e+000
2.758720e+003,-3.994659e-001
2.759685e+003,1.424925e+000
2.760649e+003,1.402403e+000
2.761613e+003,6.584930e-002
2.762577e+003,-1.042836e+000
2.763542e+003,-1.792392e+000
2.764506e+003,-4.932404e-001
2.765470e+003,2.140938e+000
2.766434e+003,2.098540e+000
2.767398e+003,2.033997e-001
2.768363e+003,-1.822351e+000
2.769327e+003,-3.348746e+000
2.770291e+003,-3.427203e+000
2.771255e+003,-2.468370e+000
2.772219e+003,-1.312526e+000
2.773184e+003,-3.071152e-001
2.774148e+003,-4.981766e-001
2.775112e+003,-1.731303e+000
2.776076e+003,-1.369942e+000
2.777041e+003,6.297119e-001
2.778005e+003,7.742111e-001
2.778969e+003,-5.418457e-001
2.779933e+003,-1.138661e+000
2.780898e+003,-1.117186e+000
2.781862e+003,-1.589339e+000
2.782826e+003,-2.224994e+000
2.783790e+003,-1.560634e+000
2.784755e+003,2.120422e-001
2.785719e+003,1.543724e+000
2.786683e+003,2.163881e+000
2.787647e+003,1.719057e+000
2.788612e+003,8.913574e-002
2.789576e+003,-1.897635e+000
2.790540e+003,-4.150630e+000
2.791504e+003,-4.011726e+000
2.792469e+003,-2.008356e+000
2.793433e+003,-1.387205e+000
2.794397e+003,-2.055626e+000
2.795361e+003,-1.978130e+000
2.796325e+003,-1.080570e+000
2.797290e+003,-7.587875e-001
2.798254e+003,-1.248660e+000
2.799218e+003,-1.805554e+000
2.800182e+003,-2.488229e+000
2.801146e+003,-2.126312e+000
2.802111e+003,-4.801529e-001
2.803075e+003,-5.825928e-001
2.804039e+003,-2.328114e+000
2.805003e+003,-3.177083e+000
2.805968e+003,-2.994775e+000
2.806932e+003,-2.582759e+000
2.807896e+003,-2.171197e+000
2.808860e+003,-1.834891e+000
2.809825e+003,-1.601337e+000
2.810789e+003,-1.589159e+000
2.811753e+003,-1.977295e+000
2.812717e+003,-1.368620e+000
2.813682e+003,4.696579e-001
2.814646e+003,2.460028e+000
2.815610e+003,4.513471e+000
2.816574e+003,3.609959e+000
2.817539e+003,3.804154e-001
2.818503e+003,-3.640259e-001
2.819467e+003,1.324007e+000
2.820431e+003,1.579469e+000
2.821396e+003,-1.421097e-001
2.822360e+003,-1.279781e+000
2.823324e+003,-1.253979e+000
2.824288e+003,-4.243378e-001
2.825252e+003,1.751764e+000
2.826217e+003,1.942364e+000
2.827181e+003,7.132263e-002
2.828145e+003,1.000015e-001
2.829109e+003,1.861169e+000
2.830073e+003,2.123439e+000
2.831038e+003,8.385895e-001
2.832002e+003,3.761902e-002
2.832966e+003,6.802674e-002
2.833930e+003,-1.463592e-001
2.834895e+003,-8.464096e-001
2.835859e+003,-1.128662e-001
2.836823e+003,2.750610e+000
2.837787e+003,3.905015e+000
2.838752e+003,3.290549e+000
2.839716e+003,1.837709e+000
2.840680e+003,-1.283279e-001
2.841644e+003,-1.172728e+000
2.842609e+003,-1.211011e+000
2.843573e+003,-3.218659e-001
2.844537e+003,9.235016e-001
2.845501e+003,5.407608e-001
2.846466e+003,-1.649022e+000
2.847430e+003,-2.140518e+000
2.848394e+003,-2.940353e-001
2.849358e+003,-1.140762e-001
2.850323e+003,-1.721890e+000
2.851287e+003,-2.388992e+000
2.852251e+003,-2.141394e+000
2.853215e+003,-1.819772e+000
2.854179e+003,-1.510991e+000
2.855144e+003,-9.398499e-001
2.856108e+003,-2.925751e-001
2.857072e+003,-2.811050e-001
2.858036e+003,-8.974304e-001
2.859000e+003,-1.359154e+000
2.859965e+003,-1.617720e+000
2.860929e+003,-8.616425e-001
2.861893e+003,9.401245e-001
2.862857e+003,1.298184e+000
2.863822e+003,5.254394e-001
2.864786e+003,1.573471e-001
2.865750e+003,1.941315e-001
2.866714e+003,2.323196e-001
2.867679e+003,1.986038e-001
2.868643e+003,1.919464e-001
2.869607e+003,1.833084e-001
2.870571e+003,-3.639877e-001
2.871536e+003,-1.207268e+000
2.872500e+003,3.996979e-001
2.873464e+003,4.213736e+000
2.874428e+003,3.980290e+000
2.875393e+003,9.361801e-001
2.876357e+003,-1.374437e+000
2.877321e+003,-2.444797e+000
2.878285e+003,-1.133856e+000
2.879250e+003,1.148152e+000
2.880214e+003,1.488556e+000
2.881178e+003,4.476257e-001
2.882142e+003,5.905716e-001
2.883106e+003,1.497746e+000
2.884071e+003,1.219882e+000
2.885035e+003,1.644363e-001
2.885999e+003,1.052637e+000
2.886963e+003,2.620357e+000
2.887927e+003,1.234261e+000
2.888892e+003,-1.197691e+000
2.889856e+003,-1.759924e+000
2.890820e+003,-9.097351e-001
2.891784e+003,9.363235e-001
2.892749e+003,2.754243e+000
2.893713e+003,3.104982e+000
2.894677e+003,2.387782e+000
2.895641e+003,1.315408e+000
2.896606e+003,1.923645e-001
2.897570e+003,-1.842102e-001
2.898534e+003,3.892822e-002
2.899498e+003,9.882447e-001
2.900463e+003,1.994971e+000
2.901427e+003,2.466858e+000
2.902391e+003,2.433383e+000
2.903355e+003,1.911592e+000
2.904320e+003,9.561539e-001
2.905284e+003,-5.525833e-001
2.906248e+003,-1.916505e+000
2.907212e+003,-2.064265e+000
2.908177e+003,-1.449445e+000
2.909141e+003,-4.981720e-001
2.910105e+003,3.826782e-001
2.911069e+003,6.942993e-001
2.912033e+003,8.314880e-001
2.912998e+003,1.133107e+000
2.913962e+003,1.339108e+000
2.914926e+003,1.246686e+000
2.915890e+003,1.119241e+000
2.916854e+003,1.155199e+000
2.917819e+003,1.198819e+000
2.918783e+003,1.087852e+000
2.919747e+003,9.209076e-001
2.920711e+003,7.218765e-001
2.921676e+003,6.402878e-001
2.922640e+003,8.244446e-001
2.923604e+003,1.075975e+000
2.924568e+003,1.390073e+000
2.925533e+003,1.598056e+000
2.926497e+003,1.627541e+000
2.927461e+003,1.310889e+000
2.928425e+003,7.128937e-001
2.929390e+003,1.334747e-001
2.930354e+003,-5.208206e-001
2.931318e+003,-1.077167e+000
2.932282e+003,-1.402148e+000
2.933247e+003,-1.424086e+000
2.934211e+003,-3.752136e-001
2.935175e+003,3.126251e-001
2.936139e+003,1.869232e-001
2.937104e+003,3.970032e-001
2.938068e+003,1.148894e+000
2.939032e+003,9.536651e-001
2.939996e+003,-4.645691e-001
2.940960e+003,-1.535023e+000
2.941925e+003,-1.639030e+000
2.942889e+003,-1.046890e+000
2.943853e+003,8.732605e-001
2.944817e+003,9.892807e-001
2.945781e+003,-1.289304e+000
2.946746e+003,-2.246581e+000
2.947710e+003,-1.766367e+000
2.948674e+003,-1.261649e+000
2.949638e+003,-9.323059e-001
2.950603e+003,-6.349594e-001
2.951567e+003,-2.634537e-001
2.952531e+003,4.896927e-001
2.953495e+003,1.584932e+000
2.954460e+003,2.308823e+000
2.955424e+003,2.654518e+000
2.956388e+003,1.231487e+000
2.957352e+003,-1.601904e+000
2.958317e+003,-2.089652e+000
2.959281e+003,-9.670166e-001
2.960245e+003,-3.976349e-001
2.961209e+003,-2.226822e-001
2.962174e+003,3.427917e-001
2.963138e+003,1.153491e+000
2.964102e+003,1.773892e+000
2.965066e+003,2.163464e+000
2.966031e+003,2.190067e+000
2.966995e+003,2.014555e+000
2.967959e+003,2.354205e+000
2.968923e+003,2.702019e+000
2.969887e+003,1.477289e+000
2.970852e+003,1.715836e-001
2.971816e+003,1.076024e+000
2.972780e+003,2.375996e+000
2.973744e+003,1.972684e+000
2.974708e+003,1.270496e+000
2.975673e+003,1.490785e+000
2.976637e+003,1.788048e+000
2.977601e+003,1.091286e+000
2.978565e+003,2.385849e-001
2.979530e+003,5.083038e-001
2.980494e+003,9.418808e-001
2.981458e+003,5.289139e-001
2.982422e+003,4.103439e-001
2.983387e+003,1.540538e+000
2.984351e+003,2.322746e+000
2.985315e+003,2.235091e+000
2.986279e+003,1.347278e+000
2.987244e+003,-2.363800e-001
2.988208e+003,-8.621765e-001
2.989172e+003,5.784928e-001
2.990136e+003,1.938936e+000
2.991101e+003,2.269032e+000
2.992065e+003,1.636385e+000
2.993029e+003,-6.416153e-001
2.993993e+003,-1.808240e+000
2.994958e+003,-1.534660e+000
2.995922e+003,-1.481824e+000
2.996886e+003,-1.847559e+000
2.997850e+003,-1.507532e+000
2.998814e+003,-3.271545e-001
2.999779e+003,8.751434e-001
3.000743e+003,1.837856e+000
3.001707e+003,1.726988e+000
3.002671e+003,3.900589e-001
3.003635e+003,-8.440384e-001
3.004600e+003,-1.912544e+000
3.005564e+003,-1.169434e+000
3.006528e+003,6.174545e-001
3.007492e+003,5.823624e-001
3.008457e+003,-3.767181e-001
3.009421e+003,6.604736e-001
3.010385e+003,2.862396e+000
3.011349e+003,3.444243e+000
3.012314e+003,2.629836e+000
3.013278e+003,8.456467e-001
3.014242e+003,-1.250858e+000
3.015206e+003,-1.160997e+000
3.016171e+003,-1.526978e-001
3.017135e+003,-6.550400e-001
3.018099e+003,-1.166885e+000
3.019063e+003,5.797378e-001
3.020028e+003,2.416209e+000
3.020992e+003,2.541275e+000
3.021956e+003,1.838521e+000
3.022920e+003,9.680862e-001
3.023885e+003,5.818084e-001
3.024849e+003,1.699910e+000
3.025813e+003,2.493739e+000
3.026777e+003,7.755295e-001
3.027741e+003,-1.155310e+000
3.028706e+003,-2.815073e+000
3.029670e+003,-3.045793e+000
3.030634e+003,-1.213089e+000
3.031598e+003,-2.626511e-001
3.032563e+003,-1.063837e+000
3.033527e+003,-1.063875e+000
3.034491e+003,6.996613e-001
3.035455e+003,1.936890e+000
3.036420e+003,1.600980e+000
3.037384e+003,9.447983e-001
3.038348e+003,6.653442e-002
3.039312e+003,-8.315552e-001
3.040277e+003,-1.729726e+000
3.041241e+003,-1.154816e+000
3.042205e+003,4.895081e-001
3.043169e+003,1.152406e+000
3.044134e+003,7.886184e-001
3.045098e+003,2.248535e-001
3.046062e+003,-3.448547e-001
3.047026e+003,-8.774719e-001
3.047990e+003,-1.275903e+000
3.048955e+003,-9.316162e-001
3.049919e+003,-1.252548e-001
3.050883e+003,-1.810852e-001
3.051847e+003,-5.747818e-001
3.052812e+003,-4.369476e-001
3.053776e+003,-7.171021e-002
3.054740e+003,4.350891e-002
3.055704e+003,2.240539e-001
3.056668e+003,8.983551e-001
3.057633e+003,1.399184e+000
3.058597e+003,9.047974e-001
3.059561e+003,4.163025e-001
3.060525e+003,1.651895e+000
3.061490e+003,2.641914e+000
3.062454e+003,1.508041e+000
3.063418e+003,2.604401e-001
3.064382e+003,-5.396897e-001
3.065347e+003,-8.206207e-001
3.066311e+003,-5.526016e-001
3.067275e+003,3.221710e-001
3.068239e+003,1.684351e+000
3.069204e+003,2.358302e+000
3.070168e+003,1.798859e+000
3.071132e+003,1.047931e+000
3.072096e+003,2.881561e-001
3.073061e+003,-1.317535e-001
3.074025e+003,-2.339996e-001
3.074989e+003,8.363327e-001
3.075953e+003,2.608490e+000
3.076917e+003,2.513612e+000
3.077882e+003,1.051918e+000
3.078846e+003,3.485886e-001
3.079810e+003,4.088669e-001
3.080774e+003,5.237427e-002
3.081739e+003,-5.134003e-001
3.082703e+003,-4.352951e-001
3.083667e+003,3.809967e-002
3.084631e+003,8.257294e-002
3.085595e+003,-2.169800e-002
3.086560e+003,1.975708e-001
3.087524e+003,5.016845e-001
3.088488e+003,7.498932e-001
3.089452e+003,7.662872e-001
3.090417e+003,4.258591e-001
3.091381e+003,-9.667969e-002
3.092345e+003,-6.869400e-001
3.093309e+003,-9.284927e-001
3.094274e+003,-3.965484e-001
3.095238e+003,4.322937e-001
3.096202e+003,1.848947e+000
3.097166e+003,2.370642e+000
3.098131e+003,1.544359e+000
3.099095e+003,9.289398e-001
3.100059e+003,7.474823e-001
3.101023e+003,-2.083252e-001
3.101988e+003,-1.813695e+000
3.102952e+003,-1.725079e+000
3.103916e+003,3.740051e-001
3.104880e+003,1.033736e+000
3.105844e+003,-1.865570e-001
3.106809e+003,-4.619705e-001
3.107773e+003,2.274017e-002
3.108737e+003,-1.390056e+000
3.109701e+003,-3.576294e+000
3.110666e+003,-3.598656e+000
3.111630e+003,-2.414092e+000
3.112594e+003,-1.887144e+000
3.113558e+003,-1.352513e+000
3.114522e+003,4.473862e-001
3.115487e+003,2.181412e+000
3.116451e+003,1.882115e+000
3.117415e+003,7.642883e-001
3.118379e+003,2.370422e-001
3.119344e+003,1.920166e-001
3.120308e+003,1.438724e+000
3.121272e+003,1.494226e+000
3.122236e+003,-9.560928e-001
3.123201e+003,-2.598592e+000
3.124165e+003,-2.387587e+000
3.125129e+003,-1.460573e+000
3.126093e+003,-3.968185e-001
3.127058e+003,4.375504e-001
3.128022e+003,8.869644e-001
3.128986e+003,1.043974e+000
3.129950e+003,7.806137e-001
3.130915e+003,1.252881e+000
3.131879e+003,2.250825e+000
3.132843e+003,9.532593e-001
3.133807e+003,-1.666656e+000
3.134771e+003,-2.628205e+000
3.135736e+003,-2.118545e+000
3.136700e+003,-6.453217e-001
3.137664e+003,4.655212e-001
3.138628e+003,-1.331824e+000
3.139593e+003,-4.172552e+000
3.140557e+003,-3.599213e+000
3.141521e+003,-1.510056e+000
3.142485e+003,-3.283569e-001
3.143449e+003,4.139618e-001
3.144414e+003,1.419774e+000
3.145378e+003,1.313448e+000
3.146342e+003,-7.686081e-001
3.147306e+003,-1.886480e+000
3.148271e+003,-7.115539e-001
3.149235e+003,5.905105e-001
3.150199e+003,8.375229e-001
3.151163e+003,2.606415e-001
3.152128e+003,-1.600073e+000
3.153092e+003,-2.844171e+000
3.154056e+003,-3.443602e+000
3.155020e+003,-2.917637e+000
3.155985e+003,-1.614157e+000
3.156949e+003,-1.078726e+000
3.157913e+003,-1.272838e+000
3.158877e+003,-1.728439e+000
3.159842e+003,-2.143401e+000
3.160806e+003,-2.043580e+000
3.161770e+003,-1.497931e+000
3.162734e+003,-5.971435e-001
3.163698e+003,4.632828e-001
3.164663e+003,1.686890e+000
3.165627e+003,2.268977e+000
3.166591e+003,5.009537e-001
3.167555e+003,-8.860413e-001
3.168520e+003,-1.167465e-001
3.169484e+003,3.326340e-001
3.170448e+003,-6.976059e-001
3.171412e+003,-1.398221e+000
3.172376e+003,-7.113388e-001
3.173341e+003,1.248016e-002
3.174305e+003,-4.690094e-002
3.175269e+003,4.025635e-001
3.176233e+003,1.826952e+000
3.177198e+003,1.253078e+000
3.178162e+003,-1.031403e+000
3.179126e+003,-2.189456e+000
3.180090e+003,-2.117226e+000
3.181055e+003,-1.376927e+000
3.182019e+003,-4.492370e-001
3.182983e+003,-1.326447e-001
3.183947e+003,-3.288559e-001
3.184912e+003,-9.254196e-001
3.185876e+003,-1.541016e+000
3.186840e+003,-1.212495e+000
3.187804e+003,-5.672852e-001
3.188769e+003,6.580047e-002
3.189733e+003,2.155319e-001
3.190697e+003,-6.023728e-001
3.191661e+003,-1.077567e+000
3.192625e+003,-6.654785e-001
3.193590e+003,-1.413467e-001
3.194554e+003,6.757355e-002
3.195518e+003,-3.421372e-001
3.196482e+003,-1.903385e+000
3.197447e+003,-2.262707e+000
3.198411e+003,-1.048103e+000
3.199375e+003,-4.016037e-001
3.200339e+003,-2.606735e-001
3.201303e+003,2.314850e-001
3.202268e+003,9.665238e-001
3.203232e+003,1.716240e+000
3.204196e+003,2.079086e+000
3.205160e+003,1.308376e+000
3.206125e+003,1.071838e-001
3.207089e+003,-2.247192e-001
3.208053e+003,-2.468155e-001
3.209017e+003,-1.110080e+000
3.209982e+003,-1.877351e+000
3.210946e+003,-1.831396e+000
3.211910e+003,-1.254781e+000
3.212874e+003,-2.222229e-001
3.213839e+003,1.175592e+000
3.214803e+003,2.740279e+000
3.215767e+003,2.251131e+000
3.216731e+003,-8.428482e-001
3.217696e+003,-2.427776e+000
3.218660e+003,-8.350754e-001
3.219624e+003,3.557129e-001
3.220588e+003,1.087857e+000
3.221552e+003,1.419711e+000
3.222517e+003,1.388226e+000
3.223481e+003,9.007996e-001
3.224445e+003,2.295471e-001
3.225409e+003,-1.832169e-001
3.226374e+003,-4.548416e-001
3.227338e+003,-8.345642e-001
3.228302e+003,-9.428207e-001
3.229266e+003,-1.776443e-001
3.230230e+003,4.720993e-001
3.231195e+003,-5.921906e-001
3.232159e+003,-1.225145e+000
3.233123e+003,-1.549240e-001
3.234087e+003,8.951095e-001
3.235052e+003,1.679375e+000
3.236016e+003,2.075413e+000
3.236980e+003,1.981500e+000
3.237944e+003,6.962601e-001
3.238909e+003,-1.530942e+000
3.239873e+003,-1.759532e+000
3.240837e+003,-2.093384e-001
3.241801e+003,-2.210861e-001
3.242766e+003,-1.214018e+000
3.243730e+003,-3.717316e-001
3.244694e+003,6.974441e-001
3.245658e+003,-1.137669e+000
3.246623e+003,-2.868584e+000
3.247587e+003,-1.633819e+000
3.248551e+003,-2.297760e-001
3.249515e+003,-4.423721e-001
3.250479e+003,-6.952988e-001
3.251444e+003,2.924911e-001
3.252408e+003,6.796768e-001
3.253372e+003,-1.610661e+000
3.254336e+003,-2.106193e+000
3.255301e+003,-4.282959e-001
3.256265e+003,6.052521e-001
3.257229e+003,7.691284e-001
3.258193e+003,1.480484e-001
3.259157e+003,-8.284485e-001
3.260122e+003,-1.267581e+000
3.261086e+003,-1.200186e+000
3.262050e+003,-8.373123e-001
3.263014e+003,-5.277802e-001
3.263979e+003,-1.412380e+000
3.264943e+003,-2.348660e+000
3.265907e+003,-1.848330e+000
3.266871e+003,-9.778244e-001
3.267836e+003,-2.728699e-001
3.268800e+003,6.670715e-001
3.269764e+003,1.938789e+000
3.270728e+003,1.521651e+000
3.271693e+003,-9.456238e-001
3.272657e+003,-2.019587e+000
3.273621e+003,-4.246201e-001
3.274585e+003,6.055908e-001
3.275550e+003,8.956543e-001
3.276514e+003,1.136520e+000
3.277478e+003,1.147276e+000
3.278442e+003,-8.939819e-002
3.279406e+003,-1.477338e+000
3.280371e+003,-8.723251e-001
3.281335e+003,-2.701965e-001
3.282299e+003,-1.557416e+000
3.283263e+003,-2.909304e+000
3.284228e+003,-2.662537e+000
3.285192e+003,-1.604593e+000
3.286156e+003,2.693970e-001
3.287120e+003,1.388676e+000
3.288084e+003,1.195755e+000
3.289049e+003,1.124504e+000
3.290013e+003,1.251079e+000
3.290977e+003,7.595749e-001
3.291941e+003,-1.148727e-001
3.292906e+003,-3.140076e-001
3.293870e+003,2.375778e-001
3.294834e+003,1.176816e+000
3.295798e+003,2.103262e+000
3.296763e+003,1.822723e+000
3.297727e+003,9.900619e-001
3.298691e+003,6.653351e-001
3.299655e+003,3.755295e-001
3.300620e+003,-6.002625e-001
3.301584e+003,-9.332535e-001
3.302548e+003,-2.305267e-001
3.303512e+003,9.727753e-001
3.304477e+003,2.333076e+000
3.305441e+003,2.909694e+000
3.306405e+003,2.332169e+000
3.307369e+003,1.625417e+000
3.308333e+003,8.449783e-001
3.309298e+003,1.439947e+000
3.310262e+003,2.900159e+000
3.311226e+003,4.058719e+000
3.312190e+003,4.612936e+000
3.313155e+003,3.817163e+000
3.314119e+003,2.793823e+000
3.315083e+003,2.389668e+000
3.316047e+003,2.430960e+000
3.317011e+003,2.828766e+000
3.317976e+003,2.816647e+000
3.318940e+003,1.248128e+000
3.319904e+003,6.315109e-001
3.320868e+003,1.617244e+000
3.321833e+003,1.850322e+000
3.322797e+003,1.410353e+000
3.323761e+003,1.990744e+000
3.324725e+003,3.267828e+000
3.325690e+003,3.851325e+000
3.326654e+003,3.880142e+000
3.327618e+003,4.114478e+000
3.328582e+003,4.202153e+000
3.329547e+003,3.289545e+000
3.330511e+003,2.248337e+000
3.331475e+003,2.776596e+000
3.332439e+003,2.108665e+000
3.333404e+003,-1.843384e+000
3.334368e+003,-2.882993e+000
3.335332e+003,-1.191711e-003
3.336296e+003,2.097394e+000
3.337260e+003,2.085347e+000
3.338225e+003,9.903244e-001
3.339189e+003,-7.361603e-001
3.340153e+003,-1.119550e+000
3.341117e+003,-5.144776e-001
3.342082e+003,-1.100175e+000
3.343046e+003,-1.920877e+000
3.344010e+003,-1.218462e+000
3.344974e+003,-3.152588e-001
3.345938e+003,-3.244507e-001
3.346903e+003,-2.640991e-001
3.347867e+003,3.269333e-001
3.348831e+003,1.081242e+000
3.349795e+003,1.811726e+000
3.350760e+003,1.661734e+000
3.351724e+003,-2.420685e-001
3.352688e+003,-4.607727e-001
3.353652e+003,7.122391e-001
3.354617e+003,-4.270126e-001
3.355581e+003,-2.414896e+000
3.356545e+003,-1.184023e+000
3.357509e+003,8.562058e-001
3.358474e+003,1.701981e-001
3.359438e+003,-1.332204e+000
3.360402e+003,-1.935237e+000
3.361366e+003,-1.352566e+000
3.362331e+003,1.775838e+000
3.363295e+003,3.306908e+000
3.364259e+003,8.141861e-001
3.365223e+003,-6.968857e-001
3.366188e+003,-8.931931e-001
3.367152e+003,-2.506012e-001
3.368116e+003,7.558289e-001
3.369080e+003,1.416675e+000
3.370044e+003,1.330905e+000
3.371009e+003,-4.352112e-002
3.371973e+003,-1.647917e+000
3.372937e+003,-1.234669e+000
3.373901e+003,-3.535995e-001
3.374865e+003,-1.076141e+000
3.375830e+003,-1.665312e+000
3.376794e+003,-1.479602e+000
3.377758e+003,-5.471527e-001
3.378722e+003,8.862732e-001
3.379687e+003,2.126144e-001
3.380651e+003,-2.429967e+000
3.381615e+003,-2.844409e+000
3.382579e+003,-8.883392e-001
3.383544e+003,-5.731964e-002
3.384508e+003,-1.311050e-001
3.385472e+003,-6.823624e-001
3.386436e+003,-1.188354e+000
3.387401e+003,-7.780121e-001
3.388365e+003,-5.071289e-001
3.389329e+003,-9.574493e-001
3.390293e+003,-1.366258e+000
3.391258e+003,-1.346573e+000
3.392222e+003,7.177887e-002
3.393186e+003,3.279787e+000
3.394150e+003,3.665451e+000
3.395115e+003,6.774673e-001
3.396079e+003,1.810451e+000
3.397043e+003,5.163949e+000
3.398007e+003,4.452318e+000
3.398971e+003,2.342834e+000
3.399936e+003,2.632475e+000
3.400900e+003,3.606920e+000
3.401864e+003,4.141654e+000
3.402828e+003,4.605385e+000
3.403792e+003,5.276328e+000
3.404757e+003,5.298158e+000
3.405721e+003,3.375273e+000
3.406685e+003,3.793514e+000
3.407649e+003,6.620893e+000
3.408614e+003,7.379567e+000
3.409578e+003,6.840825e+000
3.410542e+003,7.571799e+000
3.411506e+003,8.995967e+000
3.412471e+003,9.822592e+000
3.413435e+003,1.059524e+001
3.414399e+003,1.192946e+001
3.415363e+003,1.308051e+001
3.416328e+003,1.302173e+001
3.417292e+003,1.332845e+001
3.418256e+003,1.488238e+001
3.419220e+003,1.536177e+001
3.420185e+003,1.479179e+001
3.421149e+003,1.447159e+001
3.422113e+003,1.441749e+001
3.423077e+003,1.387628e+001
3.424042e+003,1.354811e+001
3.425006e+003,1.496877e+001
3.425970e+003,1.637513e+001
3.426934e+003,1.452572e+001
