7.140112e+001,1.446275e+002
7.236536e+001,1.419290e+002
7.332959e+001,1.422120e+002
7.429382e+001,1.443849e+002
7.525806e+001,1.492665e+002
7.622229e+001,1.501285e+002
7.718652e+001,1.419767e+002
7.815076e+001,1.198471e+002
7.911499e+001,1.042337e+002
8.007922e+001,9.133971e+001
8.104346e+001,8.465485e+001
8.200769e+001,8.841606e+001
8.297192e+001,1.117835e+002
8.393616e+001,1.347691e+002
8.490039e+001,1.567467e+002
8.586462e+001,1.743826e+002
8.682886e+001,1.829515e+002
8.779310e+001,1.692658e+002
8.875733e+001,1.478568e+002
8.972157e+001,1.252335e+002
9.068580e+001,1.044378e+002
9.165003e+001,8.644246e+001
9.261427e+001,7.831431e+001
9.357850e+001,7.696698e+001
9.454273e+001,7.880922e+001
9.550697e+001,8.183871e+001
9.647120e+001,8.750120e+001
9.743543e+001,8.884416e+001
9.839967e+001,8.495034e+001
9.936390e+001,7.810600e+001
1.003281e+002,7.060718e+001
1.012924e+002,5.981975e+001
1.022566e+002,5.257063e+001
1.032208e+002,5.103541e+001
1.041851e+002,5.388607e+001
1.051493e+002,5.789424e+001
1.061135e+002,6.295309e+001
1.070778e+002,6.595415e+001
1.080420e+002,6.430028e+001
1.090062e+002,5.774879e+001
1.099705e+002,4.877006e+001
1.109347e+002,4.281370e+001
1.118989e+002,3.913417e+001
1.128632e+002,3.831426e+001
1.138274e+002,4.081802e+001
1.147916e+002,4.739980e+001
1.157559e+002,5.135155e+001
1.167201e+002,5.247001e+001
1.176843e+002,5.214126e+001
1.186486e+002,5.195083e+001
1.196128e+002,5.160809e+001
1.205770e+002,5.176229e+001
1.215413e+002,5.448553e+001
1.225055e+002,5.782634e+001
1.234697e+002,5.759816e+001
1.244340e+002,4.545366e+001
1.253982e+002,3.335127e+001
1.263624e+002,2.371521e+001
1.273267e+002,1.786915e+001
1.282909e+002,1.646370e+001
1.292551e+002,2.624248e+001
1.302194e+002,3.949673e+001
1.311836e+002,4.959868e+001
1.321478e+002,5.227559e+001
1.331121e+002,4.720710e+001
1.340763e+002,4.026043e+001
1.350405e+002,3.085973e+001
1.360048e+002,2.276122e+001
1.369690e+002,2.011858e+001
1.379332e+002,2.727825e+001
1.388975e+002,3.387274e+001
1.398617e+002,4.104226e+001
1.408259e+002,4.724018e+001
1.417902e+002,5.002582e+001
1.427544e+002,4.588541e+001
1.437186e+002,4.051166e+001
1.446829e+002,3.443124e+001
1.456471e+002,2.828889e+001
1.466113e+002,2.288733e+001
1.475756e+002,1.806080e+001
1.485398e+002,1.544922e+001
1.495040e+002,1.838077e+001
1.504683e+002,2.742062e+001
1.514325e+002,4.028753e+001
1.523967e+002,4.332063e+001
1.533610e+002,3.883130e+001
1.543252e+002,3.216289e+001
1.552894e+002,2.691852e+001
1.562537e+002,2.346729e+001
1.572179e+002,2.089741e+001
1.581821e+002,1.753429e+001
1.591464e+002,1.572311e+001
1.601106e+002,1.879852e+001
1.610748e+002,3.356202e+001
1.620391e+002,4.250214e+001
1.630033e+002,3.876513e+001
1.639676e+002,2.779744e+001
1.649318e+002,1.809299e+001
1.658960e+002,1.895499e+001
1.668603e+002,2.294558e+001
1.678245e+002,2.568951e+001
1.687887e+002,2.659131e+001
1.697530e+002,2.647432e+001
1.707172e+002,2.754457e+001
1.716814e+002,2.921061e+001
1.726457e+002,2.996548e+001
1.736099e+002,2.919995e+001
1.745741e+002,2.684786e+001
1.755384e+002,2.421521e+001
1.765026e+002,2.043809e+001
1.774668e+002,1.731080e+001
1.784311e+002,1.628176e+001
1.793953e+002,1.861046e+001
1.803595e+002,1.930085e+001
1.813238e+002,1.597800e+001
1.822880e+002,1.194502e+001
1.832522e+002,1.029568e+001
1.842165e+002,1.422893e+001
1.851807e+002,1.734818e+001
1.861449e+002,1.365585e+001
1.871092e+002,6.542590e+000
1.880734e+002,4.685547e-001
1.890376e+002,1.841675e+000
1.900019e+002,8.631091e+000
1.909661e+002,1.432870e+001
1.919303e+002,1.843849e+001
1.928946e+002,2.104382e+001
1.938588e+002,2.214332e+001
1.948230e+002,2.063920e+001
1.957873e+002,2.003079e+001
1.967515e+002,2.058387e+001
1.977157e+002,2.237717e+001
1.986800e+002,2.638099e+001
1.996442e+002,3.234589e+001
2.006084e+002,4.028451e+001
2.015727e+002,5.319798e+001
2.025369e+002,7.169786e+001
2.035011e+002,8.474187e+001
2.044654e+002,8.276505e+001
2.054296e+002,7.443687e+001
2.063938e+002,6.276785e+001
2.073581e+002,4.994698e+001
2.083223e+002,3.840583e+001
2.092865e+002,3.252720e+001
2.102508e+002,3.144651e+001
2.112150e+002,3.585369e+001
2.121792e+002,4.669852e+001
2.131435e+002,6.664120e+001
2.141077e+002,7.640907e+001
2.150719e+002,7.211476e+001
2.160362e+002,6.140032e+001
2.170004e+002,5.553391e+001
2.179646e+002,5.860253e+001
2.189289e+002,6.162611e+001
2.198931e+002,6.183265e+001
2.208573e+002,6.140121e+001
2.218216e+002,6.488515e+001
2.227858e+002,8.061617e+001
2.237500e+002,9.545225e+001
2.247143e+002,1.064119e+002
2.256785e+002,1.119467e+002
2.266427e+002,1.107433e+002
2.276070e+002,9.491349e+001
2.285712e+002,7.200797e+001
2.295354e+002,5.111092e+001
2.304997e+002,3.503098e+001
2.314639e+002,2.355625e+001
2.324281e+002,1.657859e+001
2.333924e+002,1.468064e+001
2.343566e+002,1.361177e+001
2.353208e+002,1.180488e+001
2.362851e+002,9.023852e+000
2.372493e+002,6.967175e+000
2.382135e+002,5.500867e+000
2.391778e+002,4.658057e+000
2.401420e+002,4.783997e+000
2.411062e+002,6.184131e+000
2.420705e+002,7.225390e+000
2.430347e+002,6.712646e+000
2.439989e+002,5.591528e+000
2.449632e+002,4.544458e+000
2.459274e+002,4.107312e+000
2.468916e+002,4.014819e+000
2.478559e+002,3.611011e+000
2.488201e+002,2.974048e+000
2.497843e+002,2.160535e+000
2.507486e+002,1.223340e+000
2.517128e+002,1.257935e-001
2.526770e+002,1.417480e-001
2.536413e+002,1.463928e+000
2.546055e+002,3.463672e+000
2.555697e+002,5.216260e+000
2.565340e+002,6.666785e+000
2.574982e+002,7.946472e+000
2.584625e+002,9.234973e+000
2.594267e+002,1.049271e+001
2.603909e+002,1.162517e+001
2.613552e+002,1.269707e+001
2.623194e+002,1.310094e+001
2.632836e+002,1.235527e+001
2.642479e+002,1.076284e+001
2.652121e+002,8.912781e+000
2.661763e+002,7.420496e+000
2.671406e+002,6.498059e+000
2.681048e+002,6.703943e+000
2.690690e+002,8.060559e+000
2.700333e+002,1.007810e+001
2.709975e+002,1.073300e+001
2.719617e+002,9.725647e+000
2.729260e+002,8.638819e+000
2.738902e+002,7.978589e+000
2.748544e+002,7.733728e+000
2.758187e+002,6.676953e+000
2.767829e+002,3.704016e+000
2.777471e+002,8.628174e-001
2.787114e+002,-1.365472e+000
2.796756e+002,-2.808209e+000
2.806398e+002,-3.409821e+000
2.816041e+002,-3.168689e+000
2.825683e+002,-2.243152e+000
2.835325e+002,-1.122803e-001
2.844968e+002,3.232300e+000
2.854610e+002,6.668994e+000
2.864252e+002,6.870178e+000
2.873895e+002,5.330688e+000
2.883537e+002,4.378284e+000
2.893179e+002,5.531897e+000
2.902822e+002,9.041791e+000
2.912464e+002,9.250341e+000
2.922106e+002,5.046661e+000
2.931749e+002,5.464661e-001
2.941391e+002,-1.385199e+000
2.951033e+002,3.361084e-001
2.960676e+002,9.234375e-001
2.970318e+002,-8.456665e-001
2.979960e+002,-2.803967e+000
2.989603e+002,-3.520257e+000
2.999245e+002,-2.316632e+000
3.008887e+002,-2.134888e-001
3.018530e+002,2.825763e+000
3.028172e+002,5.774915e+000
3.037814e+002,7.387976e+000
3.047457e+002,6.554327e+000
3.057099e+002,4.387604e+000
3.066741e+002,4.856214e+000
3.076384e+002,7.285346e+000
3.086026e+002,9.352869e+000
3.095668e+002,8.402405e+000
3.105311e+002,2.981049e+000
3.114953e+002,-1.172363e-001
3.124595e+002,6.721802e-002
3.134238e+002,1.572272e+000
3.143880e+002,2.037335e+000
3.153522e+002,2.626831e-001
3.163165e+002,-6.938721e-001
3.172807e+002,2.081787e-001
3.182449e+002,2.035425e+000
3.192092e+002,3.698889e+000
3.201734e+002,4.388745e+000
3.211376e+002,4.740027e+000
3.221019e+002,5.136792e+000
3.230661e+002,5.726264e+000
3.240303e+002,6.769000e+000
3.249946e+002,8.668933e+000
3.259588e+002,1.109103e+001
3.269230e+002,1.239237e+001
3.278873e+002,1.254304e+001
3.288515e+002,1.189757e+001
3.298157e+002,1.104970e+001
3.307800e+002,9.435803e+000
3.317442e+002,9.076068e+000
3.327084e+002,1.030952e+001
3.336727e+002,1.250889e+001
3.346369e+002,1.476915e+001
3.356011e+002,1.775231e+001
3.365654e+002,1.950903e+001
3.375296e+002,1.897399e+001
3.384938e+002,1.715833e+001
3.394581e+002,1.549862e+001
3.404223e+002,1.494940e+001
3.413865e+002,1.546416e+001
3.423508e+002,1.674521e+001
3.433150e+002,1.888335e+001
3.442792e+002,2.205087e+001
3.452435e+002,2.659723e+001
3.462077e+002,3.270638e+001
3.471719e+002,3.911070e+001
3.481362e+002,4.528963e+001
3.491004e+002,5.233301e+001
3.500646e+002,6.268747e+001
3.510289e+002,7.485796e+001
3.519931e+002,9.433153e+001
3.529573e+002,1.227621e+002
3.539216e+002,1.580065e+002
3.548858e+002,1.982843e+002
3.558500e+002,2.579761e+002
3.568143e+002,2.998996e+002
3.577785e+002,3.099871e+002
3.587427e+002,2.944216e+002
3.597070e+002,2.638939e+002
3.606712e+002,2.234793e+002
3.616354e+002,1.799994e+002
3.625997e+002,1.402981e+002
3.635639e+002,1.057383e+002
3.645281e+002,7.826363e+001
3.654924e+002,6.104369e+001
3.664566e+002,5.750750e+001
3.674208e+002,5.234128e+001
3.683851e+002,4.421166e+001
3.693493e+002,3.486769e+001
3.703135e+002,2.819745e+001
3.712778e+002,2.675161e+001
3.722420e+002,2.524061e+001
3.732062e+002,2.270545e+001
3.741705e+002,1.996198e+001
3.751347e+002,1.839670e+001
3.760989e+002,1.931660e+001
3.770632e+002,2.084017e+001
3.780274e+002,2.250709e+001
3.789916e+002,2.377737e+001
3.799559e+002,2.398500e+001
3.809201e+002,2.228064e+001
3.818844e+002,1.914914e+001
3.828486e+002,1.601340e+001
3.838128e+002,1.298018e+001
3.847771e+002,1.057474e+001
3.857413e+002,9.573572e+000
3.867055e+002,1.060790e+001
3.876698e+002,1.194919e+001
3.886340e+002,1.274196e+001
3.895982e+002,1.404066e+001
3.905625e+002,1.786646e+001
3.915267e+002,2.769648e+001
3.924909e+002,3.385976e+001
3.934552e+002,3.354560e+001
3.944194e+002,2.985392e+001
3.953836e+002,2.582056e+001
3.963479e+002,2.281887e+001
3.973121e+002,2.105226e+001
3.982763e+002,2.043713e+001
3.992406e+002,2.077314e+001
4.002048e+002,2.190635e+001
4.011690e+002,2.370137e+001
4.021333e+002,2.594318e+001
4.030975e+002,2.750483e+001
4.040617e+002,2.846373e+001
4.050260e+002,2.900557e+001
4.059902e+002,2.894944e+001
4.069544e+002,2.701743e+001
4.079187e+002,2.866826e+001
4.088829e+002,3.538196e+001
4.098471e+002,4.346318e+001
4.108114e+002,5.000394e+001
4.117756e+002,5.389197e+001
4.127398e+002,5.873149e+001
4.137041e+002,6.839319e+001
4.146683e+002,7.786929e+001
4.156325e+002,8.351286e+001
4.165968e+002,8.339390e+001
4.175610e+002,7.931348e+001
4.185252e+002,7.332817e+001
4.194895e+002,6.645251e+001
4.204537e+002,5.925134e+001
4.214179e+002,5.218597e+001
4.223822e+002,4.553527e+001
4.233464e+002,4.547930e+001
4.243106e+002,5.279790e+001
4.252749e+002,5.968475e+001
4.262391e+002,6.124282e+001
4.272033e+002,5.669623e+001
4.281676e+002,5.708559e+001
4.291318e+002,6.377997e+001
4.300960e+002,7.423186e+001
4.310603e+002,8.798016e+001
4.320245e+002,1.046815e+002
4.329887e+002,1.241237e+002
4.339530e+002,1.485317e+002
4.349172e+002,1.742300e+002
4.358814e+002,2.022123e+002
4.368457e+002,2.308476e+002
4.378099e+002,2.562155e+002
4.387741e+002,2.704171e+002
4.397384e+002,2.739171e+002
4.407026e+002,2.666874e+002
4.416668e+002,2.476670e+002
4.426311e+002,2.205518e+002
4.435953e+002,1.977475e+002
4.445595e+002,1.818403e+002
4.455238e+002,1.677135e+002
4.464880e+002,1.550449e+002
4.474522e+002,1.440641e+002
4.484165e+002,1.356860e+002
4.493807e+002,1.325700e+002
4.503449e+002,1.293649e+002
4.513092e+002,1.253874e+002
4.522734e+002,1.199118e+002
4.532376e+002,1.117327e+002
4.542019e+002,9.888899e+001
4.551661e+002,8.499529e+001
4.561303e+002,7.460954e+001
4.570946e+002,6.724044e+001
4.580588e+002,6.170950e+001
4.590230e+002,5.672390e+001
4.599873e+002,5.242456e+001
4.609515e+002,4.948110e+001
4.619157e+002,4.782284e+001
4.628800e+002,4.705721e+001
4.638442e+002,4.674680e+001
4.648084e+002,4.663062e+001
4.657727e+002,4.802906e+001
4.667369e+002,5.136664e+001
4.677011e+002,5.558610e+001
4.686654e+002,6.078243e+001
4.696296e+002,6.706801e+001
4.705938e+002,7.146991e+001
4.715581e+002,7.090619e+001
4.725223e+002,6.828157e+001
4.734865e+002,6.515846e+001
4.744508e+002,6.228552e+001
4.754150e+002,5.942434e+001
4.763792e+002,5.556556e+001
4.773435e+002,5.111384e+001
4.783077e+002,4.732164e+001
4.792719e+002,4.469440e+001
4.802362e+002,4.300668e+001
4.812004e+002,4.086515e+001
4.821646e+002,3.718602e+001
4.831289e+002,3.424812e+001
4.840931e+002,3.264576e+001
4.850573e+002,3.185352e+001
4.860216e+002,3.050931e+001
4.869858e+002,2.793797e+001
4.879500e+002,2.552784e+001
4.889143e+002,2.348013e+001
4.898785e+002,2.185464e+001
4.908427e+002,2.070155e+001
4.918070e+002,2.008428e+001
4.927712e+002,1.989354e+001
4.937354e+002,1.989329e+001
4.946997e+002,2.007233e+001
4.956639e+002,2.029945e+001
4.966281e+002,2.041992e+001
4.975924e+002,2.040966e+001
4.985566e+002,2.167924e+001
4.995208e+002,2.406560e+001
5.004851e+002,2.741999e+001
5.014493e+002,3.214951e+001
5.024135e+002,3.886136e+001
5.033778e+002,4.401099e+001
5.043420e+002,4.706931e+001
5.053063e+002,4.923635e+001
5.062705e+002,5.122033e+001
5.072347e+002,5.296380e+001
5.081990e+002,5.311638e+001
5.091632e+002,4.876781e+001
5.101274e+002,4.323576e+001
5.110917e+002,3.831498e+001
5.120559e+002,3.444369e+001
5.130201e+002,3.105222e+001
5.139844e+002,2.681897e+001
5.149486e+002,2.186874e+001
5.159128e+002,1.814744e+001
5.168771e+002,1.615870e+001
5.178413e+002,1.519656e+001
5.188055e+002,1.369954e+001
5.197698e+002,1.114512e+001
5.207340e+002,8.750025e+000
5.216982e+002,6.457391e+000
5.226625e+002,4.346161e+000
5.236267e+002,2.357782e+000
5.245909e+002,1.733337e-001
5.255552e+002,-8.783081e-001
5.265194e+002,6.859497e-001
5.274836e+002,2.901050e+000
5.284479e+002,3.976056e+000
5.294121e+002,2.958691e+000
5.303763e+002,8.930298e-001
5.313406e+002,-1.689758e-001
5.323048e+002,-5.396484e-001
5.332690e+002,-4.590149e-001
5.342333e+002,-1.497803e-002
5.351975e+002,7.606689e-001
5.361617e+002,1.551038e+000
5.371260e+002,2.241022e+000
5.380902e+002,3.218445e+000
5.390544e+002,4.938995e+000
5.400187e+002,6.978320e+000
5.409829e+002,8.015753e+000
5.419471e+002,7.079108e+000
5.429114e+002,6.012451e+000
5.438756e+002,5.201886e+000
5.448398e+002,4.585547e+000
5.458041e+002,4.062836e+000
5.467683e+002,3.661963e+000
5.477325e+002,3.103406e+000
5.486968e+002,1.498499e+000
5.496610e+002,-5.292664e-001
5.506252e+002,-1.561163e+000
5.515895e+002,-4.186279e-001
5.525537e+002,2.822821e+000
5.535179e+002,3.673566e+000
5.544822e+002,1.630041e+000
5.554464e+002,-1.924500e-001
5.564106e+002,5.776367e-002
5.573749e+002,2.375513e+000
5.583391e+002,3.688586e+000
5.593033e+002,2.984033e+000
5.602676e+002,2.024469e+000
5.612318e+002,7.992493e-001
5.621960e+002,-3.597900e-001
5.631603e+002,-6.103333e-001
5.641245e+002,1.860760e+000
5.650887e+002,3.966559e+000
5.660530e+002,2.194678e+000
5.670172e+002,-2.069562e+000
5.679814e+002,-5.578595e+000
5.689457e+002,-4.773999e+000
5.699099e+002,5.401611e-002
5.708741e+002,3.008081e+000
5.718384e+002,4.179480e+000
5.728026e+002,4.257605e+000
5.737668e+002,3.531128e+000
5.747311e+002,1.736859e+000
5.756953e+002,3.238220e-001
5.766595e+002,-8.159180e-001
5.776238e+002,-1.516827e+000
5.785880e+002,-1.484222e+000
5.795522e+002,-8.199097e-001
5.805165e+002,-1.953186e-001
5.814807e+002,3.441101e-001
5.824449e+002,3.320495e-001
5.834092e+002,-1.212427e+000
5.843734e+002,-3.694562e+000
5.853376e+002,-5.640631e+000
5.863019e+002,-5.214185e+000
5.872661e+002,-2.752545e+000
5.882303e+002,-9.842774e-001
5.891946e+002,9.986572e-002
5.901588e+002,7.694458e-001
5.911230e+002,1.286993e+000
5.920873e+002,1.678790e+000
5.930515e+002,1.664929e+000
5.940157e+002,1.219977e+000
5.949800e+002,5.962707e-001
5.959442e+002,-2.454895e-001
5.969084e+002,-1.280450e+000
5.978727e+002,-2.042627e+000
5.988369e+002,-2.111865e+000
5.998011e+002,-1.929431e+000
6.007654e+002,-1.619208e+000
6.017296e+002,-1.213977e+000
6.026938e+002,-6.457580e-001
6.036581e+002,2.779053e-001
6.046223e+002,1.221765e+000
6.055865e+002,1.398022e+000
6.065508e+002,8.698181e-001
6.075150e+002,6.220703e-002
6.084792e+002,-6.473389e-001
6.094435e+002,-1.412311e+000
6.104077e+002,-9.963623e-001
6.113719e+002,1.920740e+000
6.123362e+002,4.210351e+000
6.133004e+002,3.566199e+000
6.142646e+002,1.568604e-003
6.152289e+002,-2.248895e+000
6.161931e+002,2.441223e-001
6.171573e+002,2.893884e+000
6.181216e+002,3.986597e+000
6.190858e+002,3.836475e+000
6.200500e+002,3.821106e+000
6.210143e+002,5.288531e+000
6.219785e+002,7.575568e+000
6.229427e+002,9.265729e+000
6.239070e+002,1.039979e+001
6.248712e+002,1.128973e+001
6.258354e+002,1.226075e+001
6.267997e+002,1.339695e+001
6.277639e+002,1.463679e+001
6.287281e+002,1.609931e+001
6.296924e+002,1.729235e+001
6.306566e+002,1.808704e+001
6.316208e+002,1.847193e+001
6.325851e+002,1.832499e+001
6.335493e+002,1.691132e+001
6.345135e+002,1.576154e+001
6.354778e+002,1.523358e+001
6.364420e+002,1.525698e+001
6.374063e+002,1.573048e+001
6.383705e+002,1.681298e+001
6.393347e+002,1.774014e+001
6.402990e+002,1.726228e+001
6.412632e+002,1.581960e+001
6.422274e+002,1.435661e+001
6.431917e+002,1.357272e+001
6.441559e+002,1.339573e+001
6.451201e+002,1.257364e+001
6.460844e+002,1.046677e+001
6.470486e+002,8.990204e+000
6.480128e+002,9.364050e+000
6.489771e+002,1.101515e+001
6.499413e+002,1.136616e+001
6.509055e+002,8.333735e+000
6.518698e+002,6.036407e+000
6.528340e+002,5.853930e+000
6.537982e+002,6.907471e+000
6.547625e+002,8.101336e+000
6.557267e+002,8.844971e+000
6.566909e+002,9.167028e+000
6.576552e+002,9.144445e+000
6.586194e+002,8.805395e+000
6.595836e+002,7.965344e+000
6.605479e+002,6.599237e+000
6.615121e+002,5.136169e+000
6.624763e+002,5.332941e+000
6.634406e+002,8.136566e+000
6.644048e+002,1.009979e+001
6.653690e+002,1.032053e+001
6.663333e+002,9.449097e+000
6.672975e+002,8.756805e+000
6.682617e+002,8.473071e+000
6.692260e+002,8.395655e+000
6.701902e+002,8.461664e+000
6.711544e+002,8.656641e+000
6.721187e+002,9.083160e+000
6.730829e+002,9.709009e+000
6.740471e+002,1.007831e+001
6.750114e+002,8.960901e+000
6.759756e+002,7.597003e+000
6.769398e+002,7.465711e+000
6.779041e+002,8.783368e+000
6.788683e+002,1.072278e+001
6.798325e+002,1.181109e+001
6.807968e+002,1.183929e+001
6.817610e+002,1.139157e+001
6.827252e+002,1.015156e+001
6.836895e+002,8.729370e+000
6.846537e+002,7.446149e+000
6.856179e+002,6.150439e+000
6.865822e+002,5.806152e+000
6.875464e+002,7.592224e+000
6.885106e+002,9.395147e+000
6.894749e+002,1.037737e+001
6.904391e+002,1.049788e+001
6.914034e+002,1.013481e+001
6.923676e+002,9.198169e+000
6.933318e+002,8.579565e+000
6.942961e+002,9.663355e+000
6.952603e+002,1.207086e+001
6.962245e+002,1.453346e+001
6.971888e+002,1.587993e+001
6.981530e+002,1.605102e+001
6.991172e+002,1.646221e+001
7.000815e+002,1.686868e+001
7.010457e+002,1.773423e+001
7.020099e+002,1.980681e+001
7.029742e+002,2.272657e+001
7.039384e+002,2.455604e+001
7.049026e+002,2.394786e+001
7.058669e+002,2.332692e+001
7.068311e+002,2.310599e+001
7.077953e+002,2.332306e+001
7.087596e+002,2.426987e+001
7.097238e+002,2.620273e+001
7.106880e+002,2.803032e+001
7.116523e+002,2.743290e+001
7.126165e+002,2.559035e+001
7.135807e+002,2.419352e+001
7.145450e+002,2.391953e+001
7.155092e+002,2.441959e+001
7.164734e+002,2.467402e+001
7.174377e+002,2.457518e+001
7.184019e+002,2.436327e+001
7.193661e+002,2.426166e+001
7.203304e+002,2.381454e+001
7.212946e+002,2.231095e+001
7.222589e+002,1.937350e+001
7.232231e+002,1.717725e+001
7.241873e+002,1.680742e+001
7.251516e+002,1.692747e+001
7.261158e+002,1.696111e+001
7.270800e+002,1.674149e+001
7.280443e+002,1.632377e+001
7.290085e+002,1.562087e+001
7.299727e+002,1.508000e+001
7.309370e+002,1.584832e+001
7.319012e+002,1.767075e+001
7.328654e+002,1.893603e+001
7.338297e+002,1.807220e+001
7.347939e+002,1.492076e+001
7.357581e+002,1.305108e+001
7.367224e+002,1.300352e+001
7.376866e+002,1.326735e+001
7.386508e+002,1.367820e+001
7.396151e+002,1.411763e+001
7.405793e+002,1.420271e+001
7.415435e+002,1.338668e+001
7.425078e+002,1.313395e+001
7.434720e+002,1.431246e+001
7.444362e+002,1.605013e+001
7.454005e+002,1.753271e+001
7.463647e+002,1.836707e+001
7.473289e+002,1.870270e+001
7.482932e+002,1.866895e+001
7.492574e+002,1.843877e+001
7.502216e+002,1.831448e+001
7.511859e+002,1.833461e+001
7.521501e+002,1.830114e+001
7.531143e+002,1.789824e+001
7.540786e+002,1.696293e+001
7.550428e+002,1.619866e+001
7.560070e+002,1.509714e+001
7.569713e+002,1.455660e+001
7.579355e+002,1.550897e+001
7.588997e+002,1.782794e+001
7.598640e+002,1.970331e+001
7.608282e+002,1.994993e+001
7.617924e+002,1.969222e+001
7.627567e+002,1.901331e+001
7.637209e+002,1.833422e+001
7.646851e+002,1.822656e+001
7.656494e+002,1.914814e+001
7.666136e+002,2.100861e+001
7.675778e+002,2.419360e+001
7.685421e+002,2.849771e+001
7.695063e+002,3.108363e+001
7.704705e+002,3.015385e+001
7.714348e+002,2.670075e+001
7.723990e+002,2.477364e+001
7.733632e+002,2.603407e+001
7.743275e+002,2.622154e+001
7.752917e+002,2.419290e+001
7.762559e+002,2.169014e+001
7.772202e+002,1.999370e+001
7.781844e+002,1.942583e+001
7.791486e+002,1.999091e+001
7.801129e+002,2.316764e+001
7.810771e+002,2.658650e+001
7.820413e+002,2.842847e+001
7.830056e+002,2.879254e+001
7.839698e+002,2.905486e+001
7.849340e+002,3.084272e+001
7.858983e+002,3.400144e+001
7.868625e+002,3.495152e+001
7.878267e+002,3.293668e+001
7.887910e+002,3.159923e+001
7.897552e+002,3.394374e+001
7.907194e+002,3.929750e+001
7.916837e+002,4.185261e+001
7.926479e+002,3.829638e+001
7.936121e+002,3.536956e+001
7.945764e+002,3.389104e+001
7.955406e+002,3.386912e+001
7.965048e+002,3.576166e+001
7.974691e+002,3.978481e+001
7.984333e+002,4.402561e+001
7.993975e+002,4.532802e+001
8.003618e+002,4.539338e+001
8.013260e+002,4.583983e+001
8.022902e+002,4.702840e+001
8.032545e+002,4.858937e+001
8.042187e+002,4.999069e+001
8.051829e+002,5.119537e+001
8.061472e+002,5.272787e+001
8.071114e+002,5.382275e+001
8.080756e+002,5.585320e+001
8.090399e+002,5.996614e+001
8.100041e+002,6.590318e+001
8.109683e+002,7.172145e+001
8.119326e+002,7.716458e+001
8.128968e+002,8.191056e+001
8.138610e+002,8.495406e+001
8.148253e+002,8.763997e+001
8.157895e+002,9.180750e+001
8.167537e+002,9.832625e+001
8.177180e+002,1.055868e+002
8.186822e+002,1.102252e+002
8.196464e+002,1.134134e+002
8.206107e+002,1.181293e+002
8.215749e+002,1.251293e+002
8.225391e+002,1.323574e+002
8.235034e+002,1.365949e+002
8.244676e+002,1.372152e+002
8.254318e+002,1.362142e+002
8.263961e+002,1.337839e+002
8.273603e+002,1.304544e+002
8.283245e+002,1.258484e+002
8.292888e+002,1.203098e+002
8.302530e+002,1.152215e+002
8.312172e+002,1.116757e+002
8.321815e+002,1.079922e+002
8.331457e+002,1.024451e+002
8.341099e+002,9.646945e+001
8.350742e+002,9.208315e+001
8.360384e+002,9.018382e+001
8.370026e+002,8.960265e+001
8.379669e+002,8.763487e+001
8.389311e+002,8.415793e+001
8.398953e+002,8.048875e+001
8.408596e+002,7.657735e+001
8.418238e+002,7.274174e+001
8.427880e+002,6.937685e+001
8.437523e+002,6.651704e+001
8.447165e+002,6.407363e+001
8.456807e+002,6.257882e+001
8.466450e+002,6.092591e+001
8.476092e+002,5.843213e+001
8.485734e+002,5.542036e+001
8.495377e+002,5.260603e+001
8.505019e+002,5.035322e+001
8.514661e+002,4.888088e+001
8.524304e+002,4.889285e+001
8.533946e+002,4.961422e+001
8.543588e+002,4.991360e+001
8.553231e+002,4.933917e+001
8.562873e+002,4.805292e+001
8.572515e+002,4.637357e+001
8.582158e+002,4.392725e+001
8.591800e+002,4.235905e+001
8.601442e+002,4.173091e+001
8.611085e+002,4.169274e+001
8.620727e+002,4.235946e+001
8.630369e+002,4.368252e+001
8.640012e+002,4.466010e+001
8.649654e+002,4.453232e+001
8.659296e+002,4.440905e+001
8.668939e+002,4.486613e+001
8.678581e+002,4.560796e+001
8.688223e+002,4.628479e+001
8.697866e+002,4.668839e+001
8.707508e+002,4.674929e+001
8.717150e+002,4.606855e+001
8.726793e+002,4.485264e+001
8.736435e+002,4.432264e+001
8.746077e+002,4.490659e+001
8.755720e+002,4.554385e+001
8.765362e+002,4.469483e+001
8.775004e+002,4.189592e+001
8.784647e+002,3.966426e+001
8.794289e+002,3.825285e+001
8.803931e+002,3.705807e+001
8.813574e+002,3.593650e+001
8.823216e+002,3.486914e+001
8.832858e+002,3.395789e+001
8.842501e+002,3.337914e+001
8.852143e+002,3.272392e+001
8.861785e+002,3.105693e+001
8.871428e+002,2.916634e+001
8.881070e+002,2.819779e+001
8.890712e+002,2.837502e+001
8.900355e+002,2.888811e+001
8.909997e+002,2.843722e+001
8.919639e+002,2.685437e+001
8.929282e+002,2.571581e+001
8.938924e+002,2.510556e+001
8.948566e+002,2.471608e+001
8.958209e+002,2.454171e+001
8.967851e+002,2.450420e+001
8.977493e+002,2.424418e+001
8.987136e+002,2.360458e+001
8.996778e+002,2.272260e+001
9.006420e+002,2.120010e+001
9.016063e+002,1.983004e+001
9.025705e+002,1.984213e+001
9.035347e+002,2.127721e+001
9.044990e+002,2.239475e+001
9.054632e+002,2.057695e+001
9.064274e+002,1.659373e+001
9.073917e+002,1.423639e+001
9.083559e+002,1.363763e+001
9.093201e+002,1.395111e+001
9.102844e+002,1.488194e+001
9.112486e+002,1.632672e+001
9.122128e+002,1.650498e+001
9.131771e+002,1.386312e+001
9.141413e+002,1.192313e+001
9.151055e+002,1.144730e+001
9.160698e+002,1.154506e+001
9.170340e+002,1.120156e+001
9.179982e+002,1.019261e+001
9.189625e+002,9.427350e+000
9.199267e+002,9.970380e+000
9.208909e+002,1.093112e+001
9.218552e+002,1.156711e+001
9.228194e+002,1.184377e+001
9.237836e+002,1.187739e+001
9.247479e+002,1.175266e+001
9.257121e+002,1.147375e+001
9.266763e+002,1.104954e+001
9.276406e+002,1.040408e+001
9.286048e+002,9.744806e+000
9.295690e+002,9.081762e+000
9.305333e+002,8.425318e+000
9.314975e+002,7.707355e+000
9.324617e+002,6.882263e+000
9.334260e+002,6.340875e+000
9.343902e+002,6.737439e+000
9.353545e+002,7.019049e+000
9.363187e+002,6.347443e+000
9.372830e+002,5.275690e+000
9.382472e+002,4.908447e+000
9.392114e+002,5.942578e+000
9.401757e+002,7.868609e+000
9.411399e+002,9.620300e+000
9.421041e+002,1.112527e+001
9.430684e+002,1.175090e+001
9.440326e+002,1.103245e+001
9.449968e+002,1.000732e+001
9.459611e+002,1.025956e+001
9.469253e+002,1.220869e+001
9.478895e+002,1.319166e+001
9.488538e+002,1.201787e+001
9.498180e+002,1.092164e+001
9.507822e+002,1.061104e+001
9.517465e+002,1.066769e+001
9.527107e+002,1.019811e+001
9.536749e+002,8.835034e+000
9.546392e+002,7.865533e+000
9.556034e+002,9.297186e+000
9.565676e+002,1.188379e+001
9.575319e+002,1.450049e+001
9.584961e+002,1.690261e+001
9.594603e+002,1.862315e+001
9.604246e+002,1.901394e+001
9.613888e+002,1.803334e+001
9.623530e+002,1.829655e+001
9.633173e+002,2.057883e+001
9.642815e+002,2.298207e+001
9.652457e+002,2.480504e+001
9.662100e+002,2.702322e+001
9.671742e+002,3.045803e+001
9.681384e+002,3.517846e+001
9.691027e+002,4.191780e+001
9.700669e+002,5.176899e+001
9.710311e+002,6.356123e+001
9.719954e+002,8.031565e+001
9.729596e+002,9.833240e+001
9.739238e+002,1.098562e+002
9.748881e+002,1.096542e+002
9.758523e+002,1.002060e+002
9.768165e+002,8.898009e+001
9.777808e+002,7.528751e+001
9.787450e+002,6.390918e+001
9.797092e+002,5.623309e+001
9.806735e+002,5.032458e+001
9.816377e+002,4.401593e+001
9.826019e+002,3.727010e+001
9.835662e+002,3.285610e+001
9.845304e+002,3.368715e+001
9.854946e+002,3.454795e+001
9.864589e+002,3.321367e+001
9.874231e+002,3.110542e+001
9.883873e+002,3.003746e+001
9.893516e+002,3.066286e+001
9.903158e+002,3.224927e+001
9.912800e+002,3.401591e+001
9.922443e+002,3.606308e+001
9.932085e+002,3.803822e+001
9.941727e+002,3.985330e+001
9.951370e+002,4.278184e+001
9.961012e+002,4.745690e+001
9.970654e+002,5.374886e+001
9.980297e+002,6.162434e+001
9.989939e+002,6.826760e+001
9.999581e+002,8.232522e+001
1.000922e+003,9.976453e+001
1.001887e+003,1.281931e+002
1.002851e+003,1.786986e+002
1.003815e+003,2.477004e+002
1.004779e+003,3.201436e+002
1.005744e+003,3.953512e+002
1.006708e+003,4.489984e+002
1.007672e+003,4.426892e+002
1.008636e+003,3.928726e+002
1.009600e+003,3.305695e+002
1.010565e+003,2.686161e+002
1.011529e+003,2.105094e+002
1.012493e+003,1.643003e+002
1.013457e+003,1.323433e+002
1.014422e+003,1.071944e+002
1.015386e+003,8.949136e+001
1.016350e+003,7.583096e+001
1.017314e+003,6.641060e+001
1.018279e+003,5.960645e+001
1.019243e+003,5.234913e+001
1.020207e+003,4.328657e+001
1.021171e+003,3.567713e+001
1.022135e+003,3.356525e+001
1.023100e+003,3.338601e+001
1.024064e+003,3.226270e+001
1.025028e+003,2.992381e+001
1.025992e+003,2.759011e+001
1.026957e+003,2.639279e+001
1.027921e+003,2.614263e+001
1.028885e+003,2.523809e+001
1.029849e+003,2.322468e+001
1.030814e+003,2.159762e+001
1.031778e+003,2.020510e+001
1.032742e+003,1.930814e+001
1.033706e+003,1.964799e+001
1.034671e+003,2.123197e+001
1.035635e+003,2.196512e+001
1.036599e+003,1.996630e+001
1.037563e+003,1.833536e+001
1.038527e+003,1.937811e+001
1.039492e+003,2.143579e+001
1.040456e+003,2.210995e+001
1.041420e+003,2.067769e+001
1.042384e+003,1.871284e+001
1.043349e+003,1.854585e+001
1.044313e+003,2.017312e+001
1.045277e+003,2.143068e+001
1.046241e+003,2.245639e+001
1.047206e+003,2.282134e+001
1.048170e+003,2.160409e+001
1.049134e+003,1.971750e+001
1.050098e+003,1.969778e+001
1.051063e+003,2.261981e+001
1.052027e+003,2.475353e+001
1.052991e+003,2.444036e+001
1.053955e+003,2.333612e+001
1.054919e+003,2.178489e+001
1.055884e+003,2.027068e+001
1.056848e+003,1.953533e+001
1.057812e+003,2.005602e+001
1.058776e+003,2.130366e+001
1.059741e+003,2.215351e+001
1.060705e+003,2.257208e+001
1.061669e+003,2.275209e+001
1.062633e+003,2.269437e+001
1.063598e+003,2.232368e+001
1.064562e+003,2.124461e+001
1.065526e+003,1.963019e+001
1.066490e+003,1.939828e+001
1.067454e+003,2.181384e+001
1.068419e+003,2.381158e+001
1.069383e+003,2.465833e+001
1.070347e+003,2.478129e+001
1.071311e+003,2.427347e+001
1.072276e+003,2.342612e+001
1.073240e+003,2.290497e+001
1.074204e+003,2.329998e+001
1.075168e+003,2.407681e+001
1.076133e+003,2.386486e+001
1.077097e+003,2.293605e+001
1.078061e+003,2.217799e+001
1.079025e+003,2.180875e+001
1.079990e+003,2.183335e+001
1.080954e+003,2.234428e+001
1.081918e+003,2.342510e+001
1.082882e+003,2.442733e+001
1.083846e+003,2.557200e+001
1.084811e+003,2.625372e+001
1.085775e+003,2.614177e+001
1.086739e+003,2.561838e+001
1.087703e+003,2.510541e+001
1.088668e+003,2.473980e+001
1.089632e+003,2.433627e+001
1.090596e+003,2.358256e+001
1.091560e+003,2.275342e+001
1.092525e+003,2.230218e+001
1.093489e+003,2.220481e+001
1.094453e+003,2.260383e+001
1.095417e+003,2.367424e+001
1.096381e+003,2.499243e+001
1.097346e+003,2.558168e+001
1.098310e+003,2.507429e+001
1.099274e+003,2.514922e+001
1.100238e+003,2.666230e+001
1.101203e+003,2.776104e+001
1.102167e+003,2.756592e+001
1.103131e+003,2.673928e+001
1.104095e+003,2.632107e+001
1.105060e+003,2.654196e+001
1.106024e+003,2.635941e+001
1.106988e+003,2.415199e+001
1.107952e+003,2.186355e+001
1.108917e+003,2.294593e+001
1.109881e+003,2.660607e+001
1.110845e+003,2.952526e+001
1.111809e+003,2.988207e+001
1.112773e+003,2.856974e+001
1.113738e+003,2.763574e+001
1.114702e+003,2.715179e+001
1.115666e+003,2.714526e+001
1.116630e+003,2.807886e+001
1.117595e+003,2.871981e+001
1.118559e+003,2.826977e+001
1.119523e+003,2.743484e+001
1.120487e+003,2.743397e+001
1.121452e+003,2.860656e+001
1.122416e+003,2.982339e+001
1.123380e+003,2.996614e+001
1.124344e+003,2.958381e+001
1.125308e+003,2.935464e+001
1.126273e+003,2.939948e+001
1.127237e+003,3.001575e+001
1.128201e+003,3.141243e+001
1.129165e+003,3.309875e+001
1.130130e+003,3.384351e+001
1.131094e+003,3.312806e+001
1.132058e+003,3.286599e+001
1.133022e+003,3.373615e+001
1.133987e+003,3.419603e+001
1.134951e+003,3.333698e+001
1.135915e+003,3.203685e+001
1.136879e+003,3.158853e+001
1.137844e+003,3.229848e+001
1.138808e+003,3.328977e+001
1.139772e+003,3.379919e+001
1.140736e+003,3.410616e+001
1.141700e+003,3.510284e+001
1.142665e+003,3.642700e+001
1.143629e+003,3.664452e+001
1.144593e+003,3.500414e+001
1.145557e+003,3.260963e+001
1.146522e+003,3.146563e+001
1.147486e+003,3.153412e+001
1.148450e+003,3.264761e+001
1.149414e+003,3.615907e+001
1.150379e+003,3.910261e+001
1.151343e+003,4.083887e+001
1.152307e+003,4.159145e+001
1.153271e+003,4.125554e+001
1.154235e+003,3.992444e+001
1.155200e+003,3.874315e+001
1.156164e+003,3.871317e+001
1.157128e+003,3.926903e+001
1.158092e+003,3.931662e+001
1.159057e+003,3.913962e+001
1.160021e+003,3.952489e+001
1.160985e+003,4.075497e+001
1.161949e+003,4.240937e+001
1.162914e+003,4.399559e+001
1.163878e+003,4.562111e+001
1.164842e+003,4.663250e+001
1.165806e+003,4.637238e+001
1.166771e+003,4.619848e+001
1.167735e+003,4.603106e+001
1.168699e+003,4.621393e+001
1.169663e+003,4.716615e+001
1.170627e+003,4.880034e+001
1.171592e+003,5.065603e+001
1.172556e+003,5.264213e+001
1.173520e+003,5.429626e+001
1.174484e+003,5.447725e+001
1.175449e+003,5.386071e+001
1.176413e+003,5.362092e+001
1.177377e+003,5.400721e+001
1.178341e+003,5.517134e+001
1.179306e+003,5.764824e+001
1.180270e+003,6.125751e+001
1.181234e+003,6.325771e+001
1.182198e+003,6.244318e+001
1.183162e+003,6.191966e+001
1.184127e+003,6.217393e+001
1.185091e+003,6.256220e+001
1.186055e+003,6.323310e+001
1.187019e+003,6.373976e+001
1.187984e+003,6.284458e+001
1.188948e+003,5.990127e+001
1.189912e+003,5.662852e+001
1.190876e+003,5.499161e+001
1.191841e+003,5.491605e+001
1.192805e+003,5.670930e+001
1.193769e+003,6.035435e+001
1.194733e+003,6.253252e+001
1.195698e+003,6.065808e+001
1.196662e+003,5.632797e+001
1.197626e+003,5.368171e+001
1.198590e+003,5.293704e+001
1.199554e+003,5.298582e+001
1.200519e+003,5.493752e+001
1.201483e+003,5.637041e+001
1.202447e+003,5.642747e+001
1.203411e+003,5.554304e+001
1.204376e+003,5.406697e+001
1.205340e+003,5.218142e+001
1.206304e+003,5.012889e+001
1.207268e+003,4.805737e+001
1.208233e+003,4.656987e+001
1.209197e+003,4.761948e+001
1.210161e+003,5.077808e+001
1.211125e+003,5.340495e+001
1.212089e+003,5.497182e+001
1.213054e+003,5.522916e+001
1.214018e+003,5.302830e+001
1.214982e+003,4.881181e+001
1.215946e+003,4.764822e+001
1.216911e+003,5.202069e+001
1.217875e+003,5.560078e+001
1.218839e+003,5.586669e+001
1.219803e+003,5.523782e+001
1.220768e+003,5.582719e+001
1.221732e+003,5.724241e+001
1.222696e+003,5.759953e+001
1.223660e+003,5.585930e+001
1.224625e+003,5.321648e+001
1.225589e+003,5.167988e+001
1.226553e+003,5.130650e+001
1.227517e+003,5.224082e+001
1.228481e+003,5.527621e+001
1.229446e+003,5.773817e+001
1.230410e+003,5.799235e+001
1.231374e+003,5.711932e+001
1.232338e+003,5.701916e+001
1.233303e+003,5.791587e+001
1.234267e+003,5.851418e+001
1.235231e+003,5.810732e+001
1.236195e+003,5.751178e+001
1.237160e+003,5.722970e+001
1.238124e+003,5.694071e+001
1.239088e+003,5.598137e+001
1.240052e+003,5.449671e+001
1.241016e+003,5.368265e+001
1.241981e+003,5.469792e+001
1.242945e+003,5.701583e+001
1.243909e+003,5.822990e+001
1.244873e+003,5.774197e+001
1.245838e+003,5.764616e+001
1.246802e+003,5.820946e+001
1.247766e+003,5.881777e+001
1.248730e+003,5.931376e+001
1.249695e+003,5.954937e+001
1.250659e+003,5.891666e+001
1.251623e+003,5.714614e+001
1.252587e+003,5.625950e+001
1.253552e+003,5.852981e+001
1.254516e+003,6.138560e+001
1.255480e+003,6.202921e+001
1.256444e+003,6.126213e+001
1.257408e+003,6.117241e+001
1.258373e+003,6.257365e+001
1.259337e+003,6.445818e+001
1.260301e+003,6.549394e+001
1.261265e+003,6.572901e+001
1.262230e+003,6.530267e+001
1.263194e+003,6.307775e+001
1.264158e+003,6.149257e+001
1.265122e+003,6.114555e+001
1.266087e+003,6.108810e+001
1.267051e+003,6.062342e+001
1.268015e+003,5.997765e+001
1.268979e+003,5.988174e+001
1.269943e+003,6.062399e+001
1.270908e+003,6.143079e+001
1.271872e+003,6.126655e+001
1.272836e+003,6.073371e+001
1.273800e+003,6.139140e+001
1.274765e+003,6.316380e+001
1.275729e+003,6.473030e+001
1.276693e+003,6.538744e+001
1.277657e+003,6.569231e+001
1.278622e+003,6.671265e+001
1.279586e+003,6.850188e+001
1.280550e+003,6.905321e+001
1.281514e+003,6.732691e+001
1.282479e+003,6.604624e+001
1.283443e+003,6.612546e+001
1.284407e+003,6.655949e+001
1.285371e+003,6.630940e+001
1.286335e+003,6.563544e+001
1.287300e+003,6.567311e+001
1.288264e+003,6.704529e+001
1.289228e+003,6.896630e+001
1.290192e+003,7.012244e+001
1.291157e+003,7.053696e+001
1.292121e+003,7.130911e+001
1.293085e+003,7.264025e+001
1.294049e+003,7.327045e+001
1.295014e+003,7.230283e+001
1.295978e+003,7.097650e+001
1.296942e+003,7.086932e+001
1.297906e+003,7.190618e+001
1.298870e+003,7.254119e+001
1.299835e+003,7.182304e+001
1.300799e+003,7.148607e+001
1.301763e+003,7.349569e+001
1.302727e+003,7.574867e+001
1.303692e+003,7.593907e+001
1.304656e+003,7.466719e+001
1.305620e+003,7.449218e+001
1.306584e+003,7.681528e+001
1.307549e+003,8.000697e+001
1.308513e+003,8.087807e+001
1.309477e+003,7.891072e+001
1.310441e+003,7.817203e+001
1.311406e+003,7.997961e+001
1.312370e+003,8.127606e+001
1.313334e+003,8.155080e+001
1.314298e+003,8.125786e+001
1.315263e+003,8.034648e+001
1.316227e+003,7.922252e+001
1.317191e+003,7.908470e+001
1.318155e+003,8.051480e+001
1.319120e+003,8.198415e+001
1.320084e+003,8.149635e+001
1.321048e+003,8.003294e+001
1.322012e+003,7.981505e+001
1.322976e+003,8.082404e+001
1.323941e+003,8.230035e+001
1.324905e+003,8.424937e+001
1.325869e+003,8.604720e+001
1.326833e+003,8.664063e+001
1.327798e+003,8.600324e+001
1.328762e+003,8.505029e+001
1.329726e+003,8.331020e+001
1.330690e+003,8.220137e+001
1.331655e+003,8.237660e+001
1.332619e+003,8.297969e+001
1.333583e+003,8.390944e+001
1.334547e+003,8.466949e+001
1.335511e+003,8.425566e+001
1.336476e+003,8.242668e+001
1.337440e+003,8.055274e+001
1.338404e+003,8.042818e+001
1.339368e+003,8.179055e+001
1.340333e+003,8.203122e+001
1.341297e+003,8.057838e+001
1.342261e+003,7.960741e+001
1.343225e+003,7.920695e+001
1.344190e+003,7.956300e+001
1.345154e+003,8.145229e+001
1.346118e+003,8.407114e+001
1.347082e+003,8.543966e+001
1.348047e+003,8.505748e+001
1.349011e+003,8.430339e+001
1.349975e+003,8.396958e+001
1.350939e+003,8.375887e+001
1.351903e+003,8.292017e+001
1.352868e+003,8.197457e+001
1.353832e+003,8.216440e+001
1.354796e+003,8.378664e+001
1.355760e+003,8.598730e+001
1.356725e+003,8.817207e+001
1.357689e+003,9.013191e+001
1.358653e+003,9.069994e+001
1.359617e+003,8.920411e+001
1.360582e+003,8.823621e+001
1.361546e+003,8.837779e+001
1.362510e+003,8.854342e+001
1.363474e+003,8.855589e+001
1.364438e+003,8.849423e+001
1.365403e+003,8.833604e+001
1.366367e+003,8.803359e+001
1.367331e+003,8.747514e+001
1.368295e+003,8.660613e+001
1.369260e+003,8.593794e+001
1.370224e+003,8.648453e+001
1.371188e+003,8.838879e+001
1.372152e+003,9.043034e+001
1.373117e+003,9.298828e+001
1.374081e+003,9.418601e+001
1.375045e+003,9.207973e+001
1.376009e+003,8.936147e+001
1.376974e+003,8.946388e+001
1.377938e+003,9.197588e+001
1.378902e+003,9.348615e+001
1.379866e+003,9.262702e+001
1.380830e+003,9.204088e+001
1.381795e+003,9.491953e+001
1.382759e+003,9.787666e+001
1.383723e+003,9.702129e+001
1.384687e+003,9.373175e+001
1.385652e+003,9.212502e+001
1.386616e+003,9.374608e+001
1.387580e+003,9.654530e+001
1.388544e+003,9.811470e+001
1.389509e+003,9.851117e+001
1.390473e+003,9.894201e+001
1.391437e+003,1.002227e+002
1.392401e+003,9.995795e+001
1.393365e+003,9.579903e+001
1.394330e+003,9.260373e+001
1.395294e+003,9.280778e+001
1.396258e+003,9.472613e+001
1.397222e+003,9.650351e+001
1.398187e+003,9.780944e+001
1.399151e+003,9.936275e+001
1.400115e+003,1.015758e+002
1.401079e+003,1.034656e+002
1.402044e+003,1.030094e+002
1.403008e+003,1.002089e+002
1.403972e+003,9.967319e+001
1.404936e+003,1.026224e+002
1.405901e+003,1.049437e+002
1.406865e+003,1.045422e+002
1.407829e+003,1.034593e+002
1.408793e+003,1.038807e+002
1.409757e+003,1.056388e+002
1.410722e+003,1.075051e+002
1.411686e+003,1.091833e+002
1.412650e+003,1.101149e+002
1.413614e+003,1.093845e+002
1.414579e+003,1.084371e+002
1.415543e+003,1.093552e+002
1.416507e+003,1.113331e+002
1.417471e+003,1.120513e+002
1.418436e+003,1.107365e+002
1.419400e+003,1.083698e+002
1.420364e+003,1.055604e+002
1.421328e+003,1.028427e+002
1.422292e+003,1.022300e+002
1.423257e+003,1.040752e+002
1.424221e+003,1.063496e+002
1.425185e+003,1.102771e+002
1.426149e+003,1.126016e+002
1.427114e+003,1.106335e+002
1.428078e+003,1.083337e+002
1.429042e+003,1.100152e+002
1.430006e+003,1.147217e+002
1.430971e+003,1.186218e+002
1.431935e+003,1.196613e+002
1.432899e+003,1.184403e+002
1.433863e+003,1.156202e+002
1.434828e+003,1.115562e+002
1.435792e+003,1.100573e+002
1.436756e+003,1.122226e+002
1.437720e+003,1.140592e+002
1.438684e+003,1.153957e+002
1.439649e+003,1.166052e+002
1.440613e+003,1.177385e+002
1.441577e+003,1.189773e+002
1.442541e+003,1.208238e+002
1.443506e+003,1.230985e+002
1.444470e+003,1.243079e+002
1.445434e+003,1.234610e+002
1.446398e+003,1.221256e+002
1.447363e+003,1.225780e+002
1.448327e+003,1.240090e+002
1.449291e+003,1.242669e+002
1.450255e+003,1.232076e+002
1.451219e+003,1.225991e+002
1.452184e+003,1.237203e+002
1.453148e+003,1.250829e+002
1.454112e+003,1.243404e+002
1.455076e+003,1.219631e+002
1.456041e+003,1.209534e+002
1.457005e+003,1.217872e+002
1.457969e+003,1.239537e+002
1.458933e+003,1.288615e+002
1.459898e+003,1.332972e+002
1.460862e+003,1.351173e+002
1.461826e+003,1.351226e+002
1.462790e+003,1.342140e+002
1.463755e+003,1.329274e+002
1.464719e+003,1.323490e+002
1.465683e+003,1.333525e+002
1.466647e+003,1.350839e+002
1.467611e+003,1.355342e+002
1.468576e+003,1.345325e+002
1.469540e+003,1.330358e+002
1.470504e+003,1.294553e+002
1.471468e+003,1.281310e+002
1.472433e+003,1.318173e+002
1.473397e+003,1.355118e+002
1.474361e+003,1.359389e+002
1.475325e+003,1.343706e+002
1.476290e+003,1.328271e+002
1.477254e+003,1.320566e+002
1.478218e+003,1.322413e+002
1.479182e+003,1.336171e+002
1.480146e+003,1.355462e+002
1.481111e+003,1.364902e+002
1.482075e+003,1.363277e+002
1.483039e+003,1.354903e+002
1.484003e+003,1.333460e+002
1.484968e+003,1.316161e+002
1.485932e+003,1.304594e+002
1.486896e+003,1.303033e+002
1.487860e+003,1.322362e+002
1.488825e+003,1.351012e+002
1.489789e+003,1.362458e+002
1.490753e+003,1.351128e+002
1.491717e+003,1.336372e+002
1.492682e+003,1.330556e+002
1.493646e+003,1.328385e+002
1.494610e+003,1.321748e+002
1.495574e+003,1.311333e+002
1.496538e+003,1.297250e+002
1.497503e+003,1.278058e+002
1.498467e+003,1.268407e+002
1.499431e+003,1.283419e+002
1.500395e+003,1.304434e+002
1.501360e+003,1.306849e+002
1.502324e+003,1.295516e+002
1.503288e+003,1.289474e+002
1.504252e+003,1.290692e+002
1.505217e+003,1.296510e+002
1.506181e+003,1.310824e+002
1.507145e+003,1.323978e+002
1.508109e+003,1.327675e+002
1.509073e+003,1.326000e+002
1.510038e+003,1.323047e+002
1.511002e+003,1.320713e+002
1.511966e+003,1.325921e+002
1.512930e+003,1.345618e+002
1.513895e+003,1.366665e+002
1.514859e+003,1.361279e+002
1.515823e+003,1.328813e+002
1.516787e+003,1.308228e+002
1.517752e+003,1.304998e+002
1.518716e+003,1.305996e+002
1.519680e+003,1.310830e+002
1.520644e+003,1.313672e+002
1.521609e+003,1.309825e+002
1.522573e+003,1.303915e+002
1.523537e+003,1.305168e+002
1.524501e+003,1.312057e+002
1.525465e+003,1.311007e+002
1.526430e+003,1.293973e+002
1.527394e+003,1.272686e+002
1.528358e+003,1.267063e+002
1.529322e+003,1.276168e+002
1.530287e+003,1.277454e+002
1.531251e+003,1.266444e+002
1.532215e+003,1.258101e+002
1.533179e+003,1.254353e+002
1.534144e+003,1.249788e+002
1.535108e+003,1.243170e+002
1.536072e+003,1.233626e+002
1.537036e+003,1.217473e+002
1.538000e+003,1.198447e+002
1.538965e+003,1.186522e+002
1.539929e+003,1.185452e+002
1.540893e+003,1.188557e+002
1.541857e+003,1.189351e+002
1.542822e+003,1.188585e+002
1.543786e+003,1.184914e+002
1.544750e+003,1.176618e+002
1.545714e+003,1.167016e+002
1.546679e+003,1.154380e+002
1.547643e+003,1.141668e+002
1.548607e+003,1.128114e+002
1.549571e+003,1.118072e+002
1.550536e+003,1.112264e+002
1.551500e+003,1.112021e+002
1.552464e+003,1.127335e+002
1.553428e+003,1.159943e+002
1.554392e+003,1.184032e+002
1.555357e+003,1.176651e+002
1.556321e+003,1.150631e+002
1.557285e+003,1.130161e+002
1.558249e+003,1.116474e+002
1.559214e+003,1.111400e+002
1.560178e+003,1.119585e+002
1.561142e+003,1.124055e+002
1.562106e+003,1.110665e+002
1.563071e+003,1.097328e+002
1.564035e+003,1.108093e+002
1.564999e+003,1.130919e+002
1.565963e+003,1.132614e+002
1.566927e+003,1.108567e+002
1.567892e+003,1.084459e+002
1.568856e+003,1.071422e+002
1.569820e+003,1.068544e+002
1.570784e+003,1.084444e+002
1.571749e+003,1.105426e+002
1.572713e+003,1.093958e+002
1.573677e+003,1.051527e+002
1.574641e+003,1.021320e+002
1.575606e+003,1.019490e+002
1.576570e+003,1.025439e+002
1.577534e+003,1.028493e+002
1.578498e+003,1.026999e+002
1.579463e+003,1.012904e+002
1.580427e+003,9.873264e+001
1.581391e+003,9.721196e+001
1.582355e+003,9.756546e+001
1.583319e+003,9.822579e+001
1.584284e+003,9.870551e+001
1.585248e+003,9.854791e+001
1.586212e+003,9.644601e+001
1.587176e+003,9.312711e+001
1.588141e+003,9.100491e+001
1.589105e+003,9.066522e+001
1.590069e+003,9.081595e+001
1.591033e+003,9.115614e+001
1.591998e+003,9.079132e+001
1.592962e+003,8.752194e+001
1.593926e+003,8.217309e+001
1.594890e+003,7.971061e+001
1.595854e+003,8.114725e+001
1.596819e+003,8.240197e+001
1.597783e+003,8.184176e+001
1.598747e+003,8.070598e+001
1.599711e+003,7.971020e+001
1.600676e+003,7.882957e+001
1.601640e+003,7.837412e+001
1.602604e+003,7.816634e+001
1.603568e+003,7.719945e+001
1.604533e+003,7.498216e+001
1.605497e+003,7.250671e+001
1.606461e+003,7.069805e+001
1.607425e+003,6.945380e+001
1.608390e+003,6.835804e+001
1.609354e+003,6.746056e+001
1.610318e+003,6.774060e+001
1.611282e+003,6.989685e+001
1.612246e+003,7.147237e+001
1.613211e+003,7.115068e+001
1.614175e+003,7.001246e+001
1.615139e+003,6.849596e+001
1.616103e+003,6.692014e+001
1.617068e+003,6.561366e+001
1.618032e+003,6.465291e+001
1.618996e+003,6.413775e+001
1.619960e+003,6.415614e+001
1.620925e+003,6.414125e+001
1.621889e+003,6.331884e+001
1.622853e+003,6.183538e+001
1.623817e+003,6.028042e+001
1.624781e+003,5.859515e+001
1.625746e+003,5.771108e+001
1.626710e+003,5.860902e+001
1.627674e+003,5.881254e+001
1.628638e+003,5.619825e+001
1.629603e+003,5.313563e+001
1.630567e+003,5.151360e+001
1.631531e+003,5.111219e+001
1.632495e+003,5.152139e+001
1.633460e+003,5.243031e+001
1.634424e+003,5.240063e+001
1.635388e+003,5.014077e+001
1.636352e+003,4.701652e+001
1.637317e+003,4.559437e+001
1.638281e+003,4.574607e+001
1.639245e+003,4.553255e+001
1.640209e+003,4.458910e+001
1.641173e+003,4.457566e+001
1.642138e+003,4.767374e+001
1.643102e+003,4.931808e+001
1.644066e+003,4.535781e+001
1.645030e+003,4.050186e+001
1.645995e+003,3.997881e+001
1.646959e+003,4.245176e+001
1.647923e+003,4.328511e+001
1.648887e+003,4.113298e+001
1.649852e+003,3.878566e+001
1.650816e+003,3.856291e+001
1.651780e+003,3.951586e+001
1.652744e+003,3.977525e+001
1.653708e+003,3.935373e+001
1.654673e+003,3.872517e+001
1.655637e+003,3.796375e+001
1.656601e+003,3.675700e+001
1.657565e+003,3.431086e+001
1.658530e+003,3.240437e+001
1.659494e+003,3.230374e+001
1.660458e+003,3.293723e+001
1.661422e+003,3.362222e+001
1.662387e+003,3.395892e+001
1.663351e+003,3.299812e+001
1.664315e+003,3.049230e+001
1.665279e+003,2.800484e+001
1.666244e+003,2.683873e+001
1.667208e+003,2.661403e+001
1.668172e+003,2.672493e+001
1.669136e+003,2.709946e+001
1.670100e+003,2.693226e+001
1.671065e+003,2.598553e+001
1.672029e+003,2.521180e+001
1.672993e+003,2.509322e+001
1.673957e+003,2.509629e+001
1.674922e+003,2.487242e+001
1.675886e+003,2.451061e+001
1.676850e+003,2.406542e+001
1.677814e+003,2.358581e+001
1.678779e+003,2.319879e+001
1.679743e+003,2.294843e+001
1.680707e+003,2.275607e+001
1.681671e+003,2.276226e+001
1.682635e+003,2.252378e+001
1.683600e+003,2.080675e+001
1.684564e+003,1.803912e+001
1.685528e+003,1.700870e+001
1.686492e+003,1.818400e+001
1.687457e+003,1.899296e+001
1.688421e+003,1.841782e+001
1.689385e+003,1.762337e+001
1.690349e+003,1.728802e+001
1.691314e+003,1.743576e+001
1.692278e+003,1.886788e+001
1.693242e+003,2.080350e+001
1.694206e+003,2.005353e+001
1.695171e+003,1.558589e+001
1.696135e+003,1.165311e+001
1.697099e+003,1.111899e+001
1.698063e+003,1.231993e+001
1.699027e+003,1.384747e+001
1.699992e+003,1.527511e+001
1.700956e+003,1.478029e+001
1.701920e+003,1.224547e+001
1.702884e+003,1.075722e+001
1.703849e+003,1.163615e+001
1.704813e+003,1.275959e+001
1.705777e+003,1.248887e+001
1.706741e+003,1.153094e+001
1.707706e+003,1.107800e+001
1.708670e+003,1.098523e+001
1.709634e+003,1.055466e+001
1.710598e+003,9.614695e+000
1.711563e+003,8.806048e+000
1.712527e+003,8.465815e+000
1.713491e+003,8.274908e+000
1.714455e+003,7.778049e+000
1.715419e+003,7.384406e+000
1.716384e+003,8.172238e+000
1.717348e+003,9.827130e+000
1.718312e+003,1.038436e+001
1.719276e+003,9.223440e+000
1.720241e+003,7.670569e+000
1.721205e+003,6.545804e+000
1.722169e+003,5.904807e+000
1.723133e+003,6.016965e+000
1.724098e+003,6.773923e+000
1.725062e+003,7.001633e+000
1.726026e+003,6.536746e+000
1.726990e+003,6.100320e+000
1.727954e+003,5.480319e+000
1.728919e+003,5.328140e+000
1.729883e+003,6.486246e+000
1.730847e+003,7.795270e+000
1.731811e+003,8.238269e+000
1.732776e+003,7.825958e+000
1.733740e+003,6.524329e+000
1.734704e+003,4.593054e+000
1.735668e+003,3.133325e+000
1.736633e+003,2.777853e+000
1.737597e+003,3.008270e+000
1.738561e+003,3.195056e+000
1.739525e+003,3.391571e+000
1.740490e+003,3.788229e+000
1.741454e+003,4.668234e+000
1.742418e+003,4.567111e+000
1.743382e+003,2.156592e+000
1.744346e+003,8.050232e-001
1.745311e+003,1.961755e+000
1.746275e+003,3.279419e+000
1.747239e+003,3.465976e+000
1.748203e+003,2.992364e+000
1.749168e+003,2.360812e+000
1.750132e+003,1.779797e+000
1.751096e+003,1.376328e+000
1.752060e+003,1.206070e+000
1.753025e+003,1.331015e+000
1.753989e+003,1.839969e+000
1.754953e+003,2.530792e+000
1.755917e+003,2.971701e+000
1.756881e+003,3.162250e+000
1.757846e+003,2.781726e+000
1.758810e+003,1.512320e+000
1.759774e+003,6.663666e-001
1.760738e+003,2.466461e-001
1.761703e+003,4.693268e-001
1.762667e+003,2.344959e+000
1.763631e+003,3.994064e+000
1.764595e+003,3.689126e+000
1.765560e+003,2.207626e+000
1.766524e+003,8.167206e-001
1.767488e+003,-1.365692e-001
1.768452e+003,-4.298584e-001
1.769417e+003,1.250824e-001
1.770381e+003,9.638733e-001
1.771345e+003,1.598673e+000
1.772309e+003,1.945889e+000
1.773273e+003,1.753290e+000
1.774238e+003,1.033844e+000
1.775202e+003,5.209961e-002
1.776166e+003,-1.224200e+000
1.777130e+003,-2.141208e+000
1.778095e+003,-2.443744e+000
1.779059e+003,-2.283908e+000
1.780023e+003,-1.720212e+000
1.780987e+003,-8.279206e-001
1.781952e+003,5.560211e-001
1.782916e+003,2.166229e+000
1.783880e+003,2.701303e+000
1.784844e+003,1.839951e+000
1.785808e+003,7.183288e-001
1.786773e+003,-7.414459e-001
1.787737e+003,-1.687601e+000
1.788701e+003,-1.320431e+000
1.789665e+003,-1.432709e-001
1.790630e+003,1.831955e+000
1.791594e+003,3.884460e+000
1.792558e+003,3.644372e+000
1.793522e+003,7.241424e-001
1.794487e+003,-2.201297e+000
1.795451e+003,-3.491950e+000
1.796415e+003,-3.507538e+000
1.797379e+003,-2.567636e+000
1.798344e+003,-1.018262e+000
1.799308e+003,-5.130218e-001
1.800272e+003,-1.542557e+000
1.801236e+003,-1.812158e+000
1.802201e+003,-2.756958e-001
1.803165e+003,4.429993e-001
1.804129e+003,-9.146698e-001
1.805093e+003,-2.138226e+000
1.806057e+003,-1.875973e+000
1.807022e+003,-9.922363e-001
1.807986e+003,-1.275665e-001
1.808950e+003,3.380463e-001
1.809914e+003,-4.013000e-001
1.810879e+003,-2.264090e+000
1.811843e+003,-3.588177e+000
1.812807e+003,-3.132968e+000
1.813771e+003,-1.791757e+000
1.814736e+003,-8.498718e-001
1.815700e+003,-2.786713e-001
1.816664e+003,-4.945984e-002
1.817628e+003,-2.032440e-001
1.818593e+003,-3.805725e-001
1.819557e+003,-4.911346e-001
1.820521e+003,-6.782287e-001
1.821485e+003,-1.095633e+000
1.822449e+003,-1.497818e+000
1.823414e+003,-1.857004e+000
1.824378e+003,-2.062747e+000
1.825342e+003,-1.839905e+000
1.826306e+003,-1.266382e+000
1.827271e+003,-6.402740e-001
1.828235e+003,1.373596e-002
1.829199e+003,2.204773e-001
1.830163e+003,-7.091034e-001
1.831128e+003,-1.596002e+000
1.832092e+003,-1.312955e+000
1.833056e+003,-4.397339e-001
1.834020e+003,1.947296e-001
1.834984e+003,5.519348e-001
1.835949e+003,8.479309e-001
1.836913e+003,1.137036e+000
1.837877e+003,1.142734e+000
1.838841e+003,6.729523e-001
1.839806e+003,3.732971e-001
1.840770e+003,1.105319e+000
1.841734e+003,2.201346e+000
1.842698e+003,1.500061e+000
1.843663e+003,-1.355957e+000
1.844627e+003,-2.419849e+000
1.845591e+003,-1.671600e-001
1.846555e+003,1.464621e+000
1.847520e+003,2.171195e+000
1.848484e+003,2.428671e+000
1.849448e+003,2.015637e+000
1.850412e+003,1.690204e+000
1.851376e+003,2.383414e+000
1.852341e+003,3.418649e+000
1.853305e+003,3.527170e+000
1.854269e+003,2.663916e+000
1.855233e+003,1.659073e+000
1.856198e+003,9.584778e-001
1.857162e+003,9.031311e-001
1.858126e+003,2.048349e+000
1.859090e+003,3.682107e+000
1.860055e+003,4.193418e+000
1.861019e+003,3.767819e+000
1.861983e+003,3.954559e+000
1.862947e+003,4.891217e+000
1.863911e+003,4.596555e+000
1.864876e+003,2.201190e+000
1.865840e+003,5.422180e-001
1.866804e+003,1.558817e+000
1.867768e+003,3.293848e+000
1.868733e+003,3.253110e+000
1.869697e+003,2.269348e+000
1.870661e+003,3.020016e+000
1.871625e+003,5.513452e+000
1.872590e+003,7.262750e+000
1.873554e+003,7.746478e+000
1.874518e+003,8.033261e+000
1.875482e+003,8.773160e+000
1.876447e+003,9.001554e+000
1.877411e+003,7.820432e+000
1.878375e+003,6.089215e+000
1.879339e+003,4.341159e+000
1.880303e+003,2.965463e+000
1.881268e+003,2.711502e+000
1.882232e+003,3.518967e+000
1.883196e+003,4.481854e+000
1.884160e+003,5.085233e+000
1.885125e+003,5.269031e+000
1.886089e+003,4.878854e+000
1.887053e+003,4.222867e+000
1.888017e+003,4.137796e+000
1.888982e+003,4.633862e+000
1.889946e+003,6.157865e+000
1.890910e+003,9.313748e+000
1.891874e+003,1.027047e+001
1.892839e+003,7.122775e+000
1.893803e+003,4.405459e+000
1.894767e+003,4.156613e+000
1.895731e+003,5.254483e+000
1.896695e+003,7.066648e+000
1.897660e+003,9.305560e+000
1.898624e+003,1.227537e+001
1.899588e+003,1.553226e+001
1.900552e+003,1.548741e+001
1.901517e+003,1.032097e+001
1.902481e+003,6.062396e+000
1.903445e+003,5.854672e+000
1.904409e+003,6.460364e+000
1.905374e+003,5.739203e+000
1.906338e+003,4.728446e+000
1.907302e+003,4.653577e+000
1.908266e+003,5.237289e+000
1.909230e+003,5.832025e+000
1.910195e+003,6.256827e+000
1.911159e+003,6.471225e+000
1.912123e+003,6.510013e+000
1.913087e+003,6.755026e+000
1.914052e+003,7.580057e+000
1.915016e+003,8.467102e+000
1.915980e+003,8.302752e+000
1.916944e+003,7.183853e+000
1.917909e+003,6.298398e+000
1.918873e+003,5.622159e+000
1.919837e+003,5.535608e+000
1.920801e+003,6.449448e+000
1.921766e+003,6.855405e+000
1.922730e+003,5.879379e+000
1.923694e+003,4.714496e+000
1.924658e+003,3.933017e+000
1.925622e+003,3.689987e+000
1.926587e+003,4.542209e+000
1.927551e+003,6.099383e+000
1.928515e+003,6.948746e+000
1.929479e+003,6.897696e+000
1.930444e+003,6.743649e+000
1.931408e+003,6.862531e+000
1.932372e+003,6.631943e+000
1.933336e+003,5.043692e+000
1.934301e+003,3.768411e+000
1.935265e+003,4.713602e+000
1.936229e+003,6.513464e+000
1.937193e+003,7.104590e+000
1.938157e+003,6.659943e+000
1.939122e+003,6.482623e+000
1.940086e+003,6.883881e+000
1.941050e+003,7.066037e+000
1.942014e+003,6.556067e+000
1.942979e+003,6.171298e+000
1.943943e+003,7.046426e+000
1.944907e+003,8.547592e+000
1.945871e+003,8.668216e+000
1.946836e+003,7.530255e+000
1.947800e+003,7.404678e+000
1.948764e+003,8.461569e+000
1.949728e+003,9.011200e+000
1.950693e+003,8.660983e+000
1.951657e+003,7.868390e+000
1.952621e+003,6.620148e+000
1.953585e+003,5.586676e+000
1.954549e+003,5.449387e+000
1.955514e+003,5.903650e+000
1.956478e+003,6.468866e+000
1.957442e+003,7.108200e+000
1.958406e+003,7.157346e+000
1.959371e+003,6.259088e+000
1.960335e+003,5.697772e+000
1.961299e+003,5.561130e+000
1.962263e+003,5.946854e+000
1.963228e+003,7.875684e+000
1.964192e+003,9.235809e+000
1.965156e+003,7.423175e+000
1.966120e+003,4.999930e+000
1.967084e+003,5.637314e+000
1.968049e+003,8.513346e+000
1.969013e+003,1.075772e+001
1.969977e+003,1.150918e+001
1.970941e+003,1.135434e+001
1.971906e+003,1.059142e+001
1.972870e+003,9.662592e+000
1.973834e+003,8.999799e+000
1.974798e+003,8.533051e+000
1.975763e+003,7.965845e+000
1.976727e+003,7.471768e+000
1.977691e+003,7.908606e+000
1.978655e+003,9.091558e+000
1.979620e+003,9.338016e+000
1.980584e+003,8.346295e+000
1.981548e+003,7.936822e+000
1.982512e+003,9.086706e+000
1.983476e+003,1.036176e+001
1.984441e+003,1.026988e+001
1.985405e+003,9.384180e+000
1.986369e+003,9.116397e+000
1.987333e+003,9.471395e+000
1.988298e+003,8.995028e+000
1.989262e+003,6.739853e+000
1.990226e+003,6.350363e+000
1.991190e+003,9.548304e+000
1.992155e+003,1.169617e+001
1.993119e+003,1.113665e+001
1.994083e+003,9.934580e+000
1.995047e+003,8.399866e+000
1.996011e+003,7.310678e+000
1.996976e+003,7.987543e+000
1.997940e+003,9.626572e+000
1.998904e+003,1.018590e+001
1.999868e+003,9.524414e+000
2.000833e+003,9.183011e+000
2.001797e+003,9.638211e+000
2.002761e+003,1.014259e+001
2.003725e+003,1.061589e+001
2.004690e+003,1.079933e+001
2.005654e+003,1.000445e+001
2.006618e+003,9.306867e+000
2.007582e+003,1.030740e+001
2.008547e+003,1.197596e+001
2.009511e+003,1.239162e+001
2.010475e+003,1.155532e+001
2.011439e+003,1.052774e+001
2.012403e+003,9.790912e+000
2.013368e+003,9.590693e+000
2.014332e+003,1.015327e+001
2.015296e+003,1.092723e+001
2.016260e+003,1.102492e+001
2.017225e+003,1.091274e+001
2.018189e+003,1.210219e+001
2.019153e+003,1.400544e+001
2.020117e+003,1.384783e+001
2.021082e+003,1.171775e+001
2.022046e+003,1.098783e+001
2.023010e+003,1.250006e+001
2.023974e+003,1.344432e+001
2.024938e+003,1.219908e+001
2.025903e+003,1.068743e+001
2.026867e+003,1.101017e+001
2.027831e+003,1.217830e+001
2.028795e+003,1.176464e+001
2.029760e+003,9.900156e+000
2.030724e+003,9.501681e+000
2.031688e+003,1.132981e+001
2.032652e+003,1.150687e+001
2.033617e+003,8.867483e+000
2.034581e+003,6.998279e+000
2.035545e+003,6.976089e+000
2.036509e+003,7.666190e+000
2.037474e+003,8.742929e+000
2.038438e+003,9.846924e+000
2.039402e+003,1.079370e+001
2.040366e+003,1.147739e+001
2.041330e+003,1.145165e+001
2.042295e+003,1.077385e+001
2.043259e+003,1.075637e+001
2.044223e+003,1.202141e+001
2.045187e+003,1.270001e+001
2.046152e+003,1.195562e+001
2.047116e+003,1.120006e+001
2.048080e+003,1.120110e+001
2.049044e+003,1.106289e+001
2.050009e+003,9.694455e+000
2.050973e+003,8.239456e+000
2.051937e+003,8.148517e+000
2.052901e+003,9.109222e+000
2.053865e+003,1.036471e+001
2.054830e+003,1.151373e+001
2.055794e+003,1.169445e+001
2.056758e+003,1.043093e+001
2.057722e+003,9.208517e+000
2.058687e+003,9.227011e+000
2.059651e+003,9.690180e+000
2.060615e+003,9.873861e+000
2.061579e+003,9.922678e+000
2.062544e+003,1.030420e+001
2.063508e+003,1.068918e+001
2.064472e+003,9.933859e+000
2.065436e+003,8.386258e+000
2.066401e+003,7.969931e+000
2.067365e+003,9.048101e+000
2.068329e+003,9.675812e+000
2.069293e+003,8.641611e+000
2.070258e+003,7.242755e+000
2.071222e+003,6.975336e+000
2.072186e+003,7.497253e+000
2.073150e+003,8.248675e+000
2.074115e+003,9.110952e+000
2.075079e+003,9.495935e+000
2.076043e+003,9.417432e+000
2.077007e+003,9.272949e+000
2.077971e+003,9.176221e+000
2.078936e+003,9.654239e+000
2.079900e+003,1.091154e+001
2.080864e+003,1.134908e+001
2.081828e+003,9.690414e+000
2.082792e+003,8.013489e+000
2.083757e+003,9.442935e+000
2.084721e+003,1.261698e+001
2.085685e+003,1.245977e+001
2.086649e+003,8.769922e+000
2.087614e+003,7.598523e+000
2.088578e+003,9.604953e+000
2.089542e+003,1.091270e+001
2.090506e+003,1.081277e+001
2.091471e+003,1.081848e+001
2.092435e+003,1.158704e+001
2.093399e+003,1.234291e+001
2.094363e+003,1.272727e+001
2.095328e+003,1.257057e+001
2.096292e+003,1.130526e+001
2.097256e+003,9.422684e+000
2.098220e+003,8.854212e+000
2.099185e+003,9.824542e+000
2.100149e+003,1.026732e+001
2.101113e+003,9.618521e+000
2.102077e+003,9.399485e+000
2.103042e+003,1.073232e+001
2.104006e+003,1.091462e+001
2.104970e+003,7.506662e+000
2.105934e+003,5.016916e+000
2.106898e+003,7.040790e+000
2.107863e+003,1.013137e+001
2.108827e+003,1.047188e+001
2.109791e+003,9.256839e+000
2.110755e+003,9.362833e+000
2.111719e+003,1.088293e+001
2.112684e+003,1.226633e+001
2.113648e+003,1.345701e+001
2.114612e+003,1.408130e+001
2.115576e+003,1.389812e+001
2.116541e+003,1.329482e+001
2.117505e+003,1.179474e+001
2.118469e+003,1.068031e+001
2.119433e+003,1.101587e+001
2.120398e+003,1.192574e+001
2.121362e+003,1.283647e+001
2.122326e+003,1.336189e+001
2.123290e+003,1.278171e+001
2.124255e+003,1.134731e+001
2.125219e+003,1.046663e+001
2.126183e+003,1.056156e+001
2.127147e+003,1.070748e+001
2.128112e+003,1.047159e+001
2.129076e+003,1.026819e+001
2.130040e+003,9.971725e+000
2.131004e+003,1.014783e+001
2.131969e+003,1.186804e+001
2.132933e+003,1.373733e+001
2.133897e+003,1.426854e+001
2.134861e+003,1.373294e+001
2.135825e+003,1.236301e+001
2.136790e+003,1.071187e+001
2.137754e+003,1.024981e+001
2.138718e+003,1.133228e+001
2.139682e+003,1.228407e+001
2.140646e+003,1.203758e+001
2.141611e+003,1.184633e+001
2.142575e+003,1.326481e+001
2.143539e+003,1.459818e+001
2.144503e+003,1.381736e+001
2.145468e+003,1.223810e+001
2.146432e+003,1.148146e+001
2.147396e+003,1.141626e+001
2.148360e+003,1.146052e+001
2.149325e+003,1.159645e+001
2.150289e+003,1.245706e+001
2.151253e+003,1.394561e+001
2.152217e+003,1.443533e+001
2.153182e+003,1.300322e+001
2.154146e+003,1.136368e+001
2.155110e+003,1.094164e+001
2.156074e+003,1.144047e+001
2.157039e+003,1.324698e+001
2.158003e+003,1.507188e+001
2.158967e+003,1.425752e+001
2.159931e+003,1.211542e+001
2.160896e+003,1.179792e+001
2.161860e+003,1.312674e+001
2.162824e+003,1.413955e+001
2.163788e+003,1.434090e+001
2.164752e+003,1.437048e+001
2.165717e+003,1.456361e+001
2.166681e+003,1.484083e+001
2.167645e+003,1.518238e+001
2.168609e+003,1.533263e+001
2.169573e+003,1.468410e+001
2.170538e+003,1.381534e+001
2.171502e+003,1.392369e+001
2.172466e+003,1.459069e+001
2.173430e+003,1.508540e+001
2.174395e+003,1.522231e+001
2.175359e+003,1.431518e+001
2.176323e+003,1.260144e+001
2.177287e+003,1.190224e+001
2.178252e+003,1.274986e+001
2.179216e+003,1.313504e+001
2.180180e+003,1.160571e+001
2.181144e+003,1.026673e+001
2.182109e+003,1.194696e+001
2.183073e+003,1.499957e+001
2.184037e+003,1.651620e+001
2.185001e+003,1.678132e+001
2.185966e+003,1.633028e+001
2.186930e+003,1.537613e+001
2.187894e+003,1.408507e+001
2.188858e+003,1.269802e+001
2.189823e+003,1.199169e+001
2.190787e+003,1.212631e+001
2.191751e+003,1.292924e+001
2.192715e+003,1.426206e+001
2.193679e+003,1.495779e+001
2.194644e+003,1.370521e+001
2.195608e+003,1.212984e+001
2.196572e+003,1.345773e+001
2.197536e+003,1.614175e+001
2.198500e+003,1.612621e+001
2.199465e+003,1.435745e+001
2.200429e+003,1.346064e+001
2.201393e+003,1.352332e+001
2.202357e+003,1.404049e+001
2.203322e+003,1.476787e+001
2.204286e+003,1.531198e+001
2.205250e+003,1.548910e+001
2.206214e+003,1.508340e+001
2.207179e+003,1.394574e+001
2.208143e+003,1.280364e+001
2.209107e+003,1.241479e+001
2.210071e+003,1.277004e+001
2.211036e+003,1.447935e+001
2.212000e+003,1.660978e+001
2.212964e+003,1.637933e+001
2.213928e+003,1.467073e+001
2.214893e+003,1.444615e+001
2.215857e+003,1.572305e+001
2.216821e+003,1.701772e+001
2.217785e+003,1.784421e+001
2.218750e+003,1.825479e+001
2.219714e+003,1.829974e+001
2.220678e+003,1.805591e+001
2.221642e+003,1.754108e+001
2.222606e+003,1.739063e+001
2.223571e+003,1.864819e+001
2.224535e+003,2.054954e+001
2.225499e+003,2.178243e+001
2.226463e+003,2.262241e+001
2.227427e+003,2.354564e+001
2.228392e+003,2.461250e+001
2.229356e+003,2.617267e+001
2.230320e+003,2.791202e+001
2.231284e+003,2.825366e+001
2.232249e+003,2.719397e+001
2.233213e+003,2.746674e+001
2.234177e+003,3.040035e+001
2.235141e+003,3.328104e+001
2.236106e+003,3.351571e+001
2.237070e+003,3.336528e+001
2.238034e+003,3.570460e+001
2.238998e+003,3.913286e+001
2.239963e+003,4.212204e+001
2.240927e+003,4.458313e+001
2.241891e+003,4.601668e+001
2.242855e+003,4.709998e+001
2.243820e+003,4.940401e+001
2.244784e+003,5.274116e+001
2.245748e+003,5.545731e+001
2.246712e+003,5.724586e+001
2.247677e+003,5.983478e+001
2.248641e+003,6.423273e+001
2.249605e+003,6.803857e+001
2.250569e+003,6.901981e+001
2.251533e+003,6.903658e+001
2.252498e+003,7.007185e+001
2.253462e+003,7.069576e+001
2.254426e+003,6.886633e+001
2.255390e+003,6.613606e+001
2.256354e+003,6.473640e+001
2.257319e+003,6.406292e+001
2.258283e+003,6.269200e+001
2.259247e+003,6.048345e+001
2.260211e+003,5.794184e+001
2.261176e+003,5.519390e+001
2.262140e+003,5.189164e+001
2.263104e+003,4.762924e+001
2.264068e+003,4.366952e+001
2.265033e+003,4.043375e+001
2.265997e+003,3.810805e+001
2.266961e+003,3.761158e+001
2.267925e+003,3.713433e+001
2.268890e+003,3.489125e+001
2.269854e+003,3.224697e+001
2.270818e+003,3.106564e+001
2.271782e+003,3.050721e+001
2.272747e+003,2.870736e+001
2.273711e+003,2.593279e+001
2.274675e+003,2.393139e+001
2.275639e+003,2.304149e+001
2.276604e+003,2.255017e+001
2.277568e+003,2.273442e+001
2.278532e+003,2.234109e+001
2.279496e+003,2.063516e+001
2.280460e+003,1.877882e+001
2.281425e+003,1.668809e+001
2.282389e+003,1.518411e+001
2.283353e+003,1.536520e+001
2.284317e+003,1.585646e+001
2.285281e+003,1.538411e+001
2.286246e+003,1.429143e+001
2.287210e+003,1.307377e+001
2.288174e+003,1.181498e+001
2.289138e+003,1.102565e+001
2.290103e+003,1.094141e+001
2.291067e+003,1.013597e+001
2.292031e+003,8.095016e+000
2.292995e+003,6.293719e+000
2.293960e+003,4.020535e+000
2.294924e+003,3.466138e+000
2.295888e+003,6.375067e+000
2.296852e+003,8.810221e+000
2.297817e+003,8.695035e+000
2.298781e+003,7.635614e+000
2.299745e+003,6.842560e+000
2.300709e+003,6.415384e+000
2.301674e+003,6.541617e+000
2.302638e+003,7.085175e+000
2.303602e+003,7.452951e+000
2.304566e+003,7.616422e+000
2.305531e+003,7.584439e+000
2.306495e+003,7.365628e+000
2.307459e+003,7.247305e+000
2.308423e+003,7.231729e+000
2.309387e+003,7.436978e+000
2.310352e+003,7.957080e+000
2.311316e+003,7.614279e+000
2.312280e+003,5.788687e+000
2.313244e+003,4.111069e+000
2.314208e+003,3.920627e+000
2.315173e+003,4.633591e+000
2.316137e+003,5.655972e+000
2.317101e+003,6.346603e+000
2.318065e+003,4.105170e+000
2.319030e+003,2.115295e-001
2.319994e+003,3.863190e-001
2.320958e+003,3.564438e+000
2.321922e+003,5.211624e+000
2.322887e+003,5.176993e+000
2.323851e+003,5.378427e+000
2.324815e+003,6.006055e+000
2.325779e+003,5.406644e+000
2.326744e+003,3.198422e+000
2.327708e+003,1.524521e+000
2.328672e+003,1.757233e+000
2.329636e+003,2.416141e+000
2.330601e+003,2.258469e+000
2.331565e+003,1.590402e+000
2.332529e+003,5.114746e-002
2.333493e+003,-1.114249e+000
2.334458e+003,4.126526e-001
2.335422e+003,2.570532e+000
2.336386e+003,2.279758e+000
2.337350e+003,5.797943e-001
2.338314e+003,-5.225769e-001
2.339279e+003,-7.509277e-001
2.340243e+003,-2.762024e-001
2.341207e+003,6.850159e-001
2.342171e+003,1.126221e+000
2.343135e+003,6.762604e-001
2.344100e+003,-9.576416e-003
2.345064e+003,-1.246866e+000
2.346028e+003,-1.840122e+000
2.346992e+003,-5.224518e-001
2.347957e+003,4.419403e-001
2.348921e+003,-3.629822e-001
2.349885e+003,-1.597623e+000
2.350849e+003,-2.624576e+000
2.351814e+003,-3.273975e+000
2.352778e+003,-3.228162e+000
2.353742e+003,-2.709222e+000
2.354706e+003,-2.090060e+000
2.355671e+003,-1.406836e+000
2.356635e+003,-1.570724e+000
2.357599e+003,-2.945093e+000
2.358563e+003,-3.675061e+000
2.359528e+003,-3.616217e+000
2.360492e+003,-3.379996e+000
2.361456e+003,-2.910263e+000
2.362420e+003,-2.649832e+000
2.363385e+003,-2.728265e+000
2.364349e+003,-3.191397e+000
2.365313e+003,-4.171829e+000
2.366277e+003,-4.725229e+000
2.367241e+003,-3.915115e+000
2.368206e+003,-2.619498e+000
2.369170e+003,-2.192624e+000
2.370134e+003,-2.563376e+000
2.371098e+003,-4.060770e+000
2.372063e+003,-6.082013e+000
2.373027e+003,-5.579114e+000
2.373991e+003,-3.341321e+000
2.374955e+003,-2.871268e+000
2.375919e+003,-3.836047e+000
2.376884e+003,-3.262112e+000
2.377848e+003,-1.061145e+000
2.378812e+003,3.421539e-001
2.379776e+003,1.400146e-001
2.380741e+003,-7.334747e-001
2.381705e+003,-1.780237e+000
2.382669e+003,-2.827707e+000
2.383633e+003,-4.315695e+000
2.384598e+003,-4.737918e+000
2.385562e+003,-1.520795e+000
2.386526e+003,1.542566e+000
2.387490e+003,7.497131e-001
2.388455e+003,-1.026788e+000
2.389419e+003,-4.140778e-001
2.390383e+003,6.266998e-001
2.391347e+003,-1.774307e+000
2.392312e+003,-5.704059e+000
2.393276e+003,-5.860333e+000
2.394240e+003,-2.415393e+000
2.395204e+003,-7.960510e-001
2.396168e+003,-2.033615e+000
2.397133e+003,-2.864194e+000
2.398097e+003,-3.096463e+000
2.399061e+003,-2.979462e+000
2.400025e+003,-2.280264e+000
2.400990e+003,-1.785080e+000
2.401954e+003,-1.816025e+000
2.402918e+003,-1.687598e+000
2.403882e+003,-1.017398e+000
2.404846e+003,-2.898346e-001
2.405811e+003,1.403290e-001
2.406775e+003,3.019440e-001
2.407739e+003,1.789856e-001
2.408703e+003,-1.164887e-001
2.409668e+003,-1.833832e-001
2.410632e+003,-1.076538e-001
2.411596e+003,-5.153869e-001
2.412560e+003,-1.253357e+000
2.413525e+003,-1.537619e+000
2.414489e+003,-1.421469e+000
2.415453e+003,-1.394928e+000
2.416417e+003,-1.459143e+000
2.417382e+003,-1.413824e+000
2.418346e+003,-1.148547e+000
2.419310e+003,-2.552368e-001
2.420274e+003,1.362372e+000
2.421239e+003,2.399567e+000
2.422203e+003,1.853101e+000
2.423167e+003,1.148929e+000
2.424131e+003,1.353018e+000
2.425095e+003,1.682330e+000
2.426060e+003,1.794742e+000
2.427024e+003,1.634692e+000
2.427988e+003,6.447083e-001
2.428952e+003,-1.355865e-001
2.429917e+003,7.647034e-001
2.430881e+003,2.263803e+000
2.431845e+003,2.559274e+000
2.432809e+003,1.907800e+000
2.433773e+003,1.511926e+000
2.434738e+003,1.400812e+000
2.435702e+003,1.900452e+000
2.436666e+003,3.519772e+000
2.437630e+003,3.800803e+000
2.438595e+003,2.215079e+000
2.439559e+003,1.477814e+000
2.440523e+003,1.968246e+000
2.441487e+003,3.576892e+000
2.442452e+003,6.361108e+000
2.443416e+003,7.957376e+000
2.444380e+003,7.162015e+000
2.445344e+003,6.081833e+000
2.446309e+003,6.477304e+000
2.447273e+003,7.183942e+000
2.448237e+003,6.485983e+000
2.449201e+003,5.550049e+000
2.450166e+003,6.957895e+000
2.451130e+003,8.964640e+000
2.452094e+003,8.266126e+000
2.453058e+003,6.512473e+000
2.454022e+003,6.741067e+000
2.454987e+003,7.781961e+000
2.455951e+003,6.688315e+000
2.456915e+003,4.297778e+000
2.457879e+003,3.636578e+000
2.458844e+003,4.943759e+000
2.459808e+003,6.186358e+000
2.460772e+003,6.919061e+000
2.461736e+003,7.316177e+000
2.462700e+003,6.965805e+000
2.463665e+003,6.966199e+000
2.464629e+003,8.001062e+000
2.465593e+003,8.565201e+000
2.466557e+003,8.085245e+000
2.467522e+003,7.557965e+000
2.468486e+003,7.216302e+000
2.469450e+003,7.550097e+000
2.470414e+003,9.112082e+000
2.471379e+003,1.070913e+001
2.472343e+003,1.084297e+001
2.473307e+003,1.024140e+001
2.474271e+003,1.042072e+001
2.475236e+003,1.115099e+001
2.476200e+003,1.182339e+001
2.477164e+003,1.235770e+001
2.478128e+003,1.270777e+001
2.479093e+003,1.263938e+001
2.480057e+003,1.095666e+001
2.481021e+003,8.498285e+000
2.481985e+003,7.698047e+000
2.482949e+003,8.612656e+000
2.483914e+003,9.668118e+000
2.484878e+003,1.038428e+001
2.485842e+003,1.123550e+001
2.486806e+003,1.264599e+001
2.487771e+003,1.282474e+001
2.488735e+003,9.330719e+000
2.489699e+003,7.415747e+000
2.490663e+003,9.741498e+000
2.491627e+003,1.190453e+001
2.492592e+003,1.233233e+001
2.493556e+003,1.246938e+001
2.494520e+003,1.294428e+001
2.495484e+003,1.349186e+001
2.496449e+003,1.386454e+001
2.497413e+003,1.418257e+001
2.498377e+003,1.469222e+001
2.499341e+003,1.519137e+001
2.500306e+003,1.509947e+001
2.501270e+003,1.455428e+001
2.502234e+003,1.395620e+001
2.503198e+003,1.345320e+001
2.504163e+003,1.368225e+001
2.505127e+003,1.442935e+001
2.506091e+003,1.507181e+001
2.507055e+003,1.558041e+001
2.508020e+003,1.608024e+001
2.508984e+003,1.671594e+001
2.509948e+003,1.793638e+001
2.510912e+003,1.974973e+001
2.511876e+003,2.095762e+001
2.512841e+003,2.107834e+001
2.513805e+003,2.075646e+001
2.514769e+003,1.931063e+001
2.515733e+003,1.882502e+001
2.516698e+003,2.047552e+001
2.517662e+003,2.216767e+001
2.518626e+003,2.337752e+001
2.519590e+003,2.444332e+001
2.520554e+003,2.539636e+001
2.521519e+003,2.650537e+001
2.522483e+003,2.805605e+001
2.523447e+003,2.966862e+001
2.524411e+003,3.084162e+001
2.525376e+003,3.171245e+001
2.526340e+003,3.248097e+001
2.527304e+003,3.313450e+001
2.528268e+003,3.355444e+001
2.529233e+003,3.404858e+001
2.530197e+003,3.548328e+001
2.531161e+003,3.750537e+001
2.532125e+003,3.938536e+001
2.533090e+003,4.093655e+001
2.534054e+003,4.178635e+001
2.535018e+003,4.232409e+001
2.535982e+003,4.416436e+001
2.536947e+003,4.753563e+001
2.537911e+003,4.969213e+001
2.538875e+003,4.945558e+001
2.539839e+003,4.948699e+001
2.540803e+003,5.017772e+001
2.541768e+003,5.108426e+001
2.542732e+003,5.217986e+001
2.543696e+003,5.340164e+001
2.544660e+003,5.489479e+001
2.545625e+003,5.631679e+001
2.546589e+003,5.755050e+001
2.547553e+003,5.802030e+001
2.548517e+003,5.718987e+001
2.549482e+003,5.632667e+001
2.550446e+003,5.700745e+001
2.551410e+003,5.832776e+001
2.552374e+003,5.903276e+001
2.553339e+003,5.925663e+001
2.554303e+003,5.915899e+001
2.555267e+003,5.883846e+001
2.556231e+003,5.832574e+001
2.557196e+003,5.769387e+001
2.558160e+003,5.744224e+001
2.559124e+003,5.685347e+001
2.560088e+003,5.413860e+001
2.561052e+003,5.019601e+001
2.562017e+003,4.830016e+001
2.562981e+003,4.848295e+001
2.563945e+003,4.788166e+001
2.564909e+003,4.623952e+001
2.565874e+003,4.532903e+001
2.566838e+003,4.543619e+001
2.567802e+003,4.412545e+001
2.568766e+003,4.120644e+001
2.569730e+003,3.835732e+001
2.570695e+003,3.595190e+001
2.571659e+003,3.387725e+001
2.572623e+003,3.216227e+001
2.573587e+003,3.175574e+001
2.574552e+003,3.306850e+001
2.575516e+003,3.332633e+001
2.576480e+003,3.028947e+001
2.577444e+003,2.692902e+001
2.578409e+003,2.464551e+001
2.579373e+003,2.325096e+001
2.580337e+003,2.356269e+001
2.581301e+003,2.370646e+001
2.582266e+003,2.221262e+001
2.583230e+003,2.073932e+001
2.584194e+003,2.057628e+001
2.585158e+003,2.056946e+001
2.586123e+003,1.954712e+001
2.587087e+003,1.819350e+001
2.588051e+003,1.764591e+001
2.589015e+003,1.763694e+001
2.589979e+003,1.730363e+001
2.590944e+003,1.677494e+001
2.591908e+003,1.684839e+001
2.592872e+003,1.703549e+001
2.593836e+003,1.577596e+001
2.594801e+003,1.381195e+001
2.595765e+003,1.293711e+001
2.596729e+003,1.288213e+001
2.597693e+003,1.256759e+001
2.598657e+003,1.181287e+001
2.599622e+003,1.073109e+001
2.600586e+003,9.366776e+000
2.601550e+003,8.313980e+000
2.602514e+003,7.656897e+000
2.603479e+003,7.372113e+000
2.604443e+003,7.656705e+000
2.605407e+003,7.699323e+000
2.606371e+003,7.499454e+000
2.607336e+003,6.689926e+000
2.608300e+003,5.165637e+000
2.609264e+003,4.430389e+000
2.610228e+003,4.968185e+000
2.611193e+003,5.374295e+000
2.612157e+003,4.871735e+000
2.613121e+003,4.639627e+000
2.614085e+003,5.776010e+000
2.615050e+003,6.667239e+000
2.616014e+003,5.317566e+000
2.616978e+003,4.119657e+000
2.617942e+003,5.042334e+000
2.618906e+003,6.123349e+000
2.619871e+003,6.474170e+000
2.620835e+003,6.098086e+000
2.621799e+003,4.637244e+000
2.622763e+003,3.018555e+000
2.623728e+003,2.127496e+000
2.624692e+003,1.527005e+000
2.625656e+003,4.220215e-001
2.626620e+003,-6.435242e-001
2.627584e+003,7.586670e-003
2.628549e+003,1.808966e+000
2.629513e+003,3.528754e+000
2.630477e+003,4.504111e+000
2.631441e+003,2.060577e+000
2.632406e+003,-1.499194e+000
2.633370e+003,-1.428967e+000
2.634334e+003,1.002603e+000
2.635298e+003,2.629773e+000
2.636263e+003,3.075699e+000
2.637227e+003,2.800101e+000
2.638191e+003,1.956519e+000
2.639155e+003,1.635056e+000
2.640120e+003,2.034943e+000
2.641084e+003,1.791583e+000
2.642048e+003,5.784241e-001
2.643012e+003,8.655945e-001
2.643977e+003,2.828250e+000
2.644941e+003,3.027582e+000
2.645905e+003,1.201019e+000
2.646869e+003,1.898132e-001
2.647833e+003,6.941284e-001
2.648798e+003,1.568857e+000
2.649762e+003,2.291028e+000
2.650726e+003,2.700940e+000
2.651690e+003,2.643033e+000
2.652655e+003,2.589685e+000
2.653619e+003,3.066458e+000
2.654583e+003,3.130508e+000
2.655547e+003,2.051993e+000
2.656511e+003,1.257422e+000
2.657476e+003,1.054810e+000
2.658440e+003,1.333777e+000
2.659404e+003,2.273001e+000
2.660368e+003,2.440741e+000
2.661333e+003,8.388885e-001
2.662297e+003,-6.934082e-001
2.663261e+003,-3.505005e-001
2.664225e+003,6.843140e-001
2.665190e+003,1.190854e+000
2.666154e+003,1.155560e+000
2.667118e+003,-7.929687e-002
2.668082e+003,-1.057892e+000
2.669047e+003,2.701233e-001
2.670011e+003,1.625641e+000
2.670975e+003,2.729767e-001
2.671939e+003,-1.582599e+000
2.672904e+003,-1.425873e+000
2.673868e+003,-6.758728e-002
2.674832e+003,1.696976e+000
2.675796e+003,3.087866e+000
2.676760e+003,1.790241e+000
2.677725e+003,-1.251315e+000
2.678689e+003,-2.208893e+000
2.679653e+003,-1.598245e+000
2.680617e+003,-5.572845e-001
2.681582e+003,5.161438e-001
2.682546e+003,1.095322e+000
2.683510e+003,1.187701e+000
2.684474e+003,5.659851e-001
2.685438e+003,-3.333313e-001
2.686403e+003,-4.354736e-001
2.687367e+003,2.380737e-001
2.688331e+003,7.175263e-001
2.689295e+003,9.864594e-001
2.690260e+003,1.645932e+000
2.691224e+003,2.823325e+000
2.692188e+003,3.082245e+000
2.693152e+003,2.403662e+000
2.694117e+003,1.344470e+000
2.695081e+003,1.501221e-001
2.696045e+003,-4.921936e-001
2.697009e+003,-5.321563e-001
2.697974e+003,-3.871063e-001
2.698938e+003,-1.933044e-001
2.699902e+003,1.534485e-001
2.700866e+003,7.079956e-001
2.701831e+003,1.052435e+000
2.702795e+003,9.157837e-001
2.703759e+003,8.443359e-001
2.704723e+003,7.256683e-001
2.705688e+003,1.287192e+000
2.706652e+003,2.802658e+000
2.707616e+003,3.437293e+000
2.708580e+003,2.760071e+000
2.709544e+003,1.784775e+000
2.710509e+003,9.630554e-001
2.711473e+003,1.674652e-001
2.712437e+003,-6.753418e-001
2.713401e+003,-5.522766e-001
2.714365e+003,1.837836e+000
2.715330e+003,3.680847e+000
2.716294e+003,3.559857e+000
2.717258e+003,2.547986e+000
2.718222e+003,2.042572e-001
2.719187e+003,-1.765549e+000
2.720151e+003,-3.113473e+000
2.721115e+003,-3.082654e+000
2.722079e+003,-1.106769e+000
2.723044e+003,4.933624e-001
2.724008e+003,-4.795227e-002
2.724972e+003,-5.804779e-001
2.725936e+003,1.375549e+000
2.726901e+003,3.220749e+000
2.727865e+003,1.011325e+000
2.728829e+003,-1.163843e+000
2.729793e+003,1.051447e+000
2.730758e+003,3.222702e+000
2.731722e+003,1.456543e+000
2.732686e+003,-5.763305e-001
2.733650e+003,-3.596497e-002
2.734615e+003,1.042993e+000
2.735579e+003,9.512573e-001
2.736543e+003,4.951447e-001
2.737507e+003,8.147766e-001
2.738471e+003,1.206332e+000
2.739436e+003,-2.342194e-001
2.740400e+003,-1.883160e+000
2.741364e+003,-4.312561e-001
2.742328e+003,1.831488e+000
2.743292e+003,2.516949e+000
2.744257e+003,2.221185e+000
2.745221e+003,1.337582e+000
2.746185e+003,3.159302e-001
2.747149e+003,-5.330658e-001
2.748114e+003,-1.041293e+000
2.749078e+003,-9.356354e-001
2.750042e+003,-3.146057e-001
2.751006e+003,6.968262e-001
2.751971e+003,1.773840e+000
2.752935e+003,1.676624e+000
2.753899e+003,8.720276e-001
2.754863e+003,5.437622e-002
2.755828e+003,-4.321259e-001
2.756792e+003,3.692261e-001
2.757756e+003,1.423132e+000
2.758720e+003,8.366455e-001
2.759685e+003,-6.621857e-001
2.760649e+003,-9.577149e-001
2.761613e+003,-5.778443e-001
2.762577e+003,-1.516226e+000
2.763542e+003,-3.418784e+000
2.764506e+003,-3.043155e+000
2.765470e+003,-1.044073e+000
2.766434e+003,-1.206928e+000
2.767398e+003,-2.609641e+000
2.768363e+003,-2.522516e+000
2.769327e+003,-1.621204e+000
2.770291e+003,-1.967474e+000
2.771255e+003,-3.034720e+000
2.772219e+003,-3.047266e+000
2.773184e+003,-2.005194e+000
2.774148e+003,-9.652069e-001
2.775112e+003,1.383057e-002
2.776076e+003,9.560913e-001
2.777041e+003,1.884360e+000
2.778005e+003,5.406677e-001
2.778969e+003,-2.375595e+000
2.779933e+003,-2.822315e+000
2.780898e+003,-1.462872e+000
2.781862e+003,-1.164969e+000
2.782826e+003,-1.819943e+000
2.783790e+003,-1.881464e+000
2.784755e+003,-1.244266e+000
2.785719e+003,-7.212921e-001
2.786683e+003,-4.149994e-001
2.787647e+003,7.516785e-002
2.788612e+003,8.470856e-001
2.789576e+003,5.079803e-001
2.790540e+003,-8.626801e-001
2.791504e+003,-9.293548e-001
2.792469e+003,6.381226e-003
2.793433e+003,-6.682526e-001
2.794397e+003,-2.401431e+000
2.795361e+003,-1.945816e+000
2.796325e+003,4.702637e-001
2.797290e+003,1.741971e+000
2.798254e+003,1.291321e+000
2.799218e+003,1.660278e-001
2.800182e+003,-1.793280e+000
2.801146e+003,-2.361029e+000
2.802111e+003,-1.343143e+000
2.803075e+003,-6.238708e-001
2.804039e+003,-3.261536e-001
2.805003e+003,-3.504303e-001
2.805968e+003,-6.599426e-001
2.806932e+003,-1.098975e+000
2.807896e+003,-1.524759e+000
2.808860e+003,-1.905646e+000
2.809825e+003,-2.183990e+000
2.810789e+003,-1.794348e+000
2.811753e+003,-3.569519e-001
2.812717e+003,-6.224182e-001
2.813682e+003,-3.321942e+000
2.814646e+003,-3.846616e+000
2.815610e+003,-2.143652e+000
2.816574e+003,1.921082e-001
2.817539e+003,2.514725e+000
2.818503e+003,2.583057e+000
2.819467e+003,8.326446e-001
2.820431e+003,5.193207e-001
2.821396e+003,2.000378e+000
2.822360e+003,2.229642e+000
2.823324e+003,3.408325e-001
2.824288e+003,-2.792145e-001
2.825252e+003,1.000226e+000
2.826217e+003,1.530875e+000
2.827181e+003,1.304394e+000
2.828145e+003,1.486554e+000
2.829109e+003,2.003613e+000
2.830073e+003,1.738937e+000
2.831038e+003,8.497894e-001
2.832002e+003,5.328491e-001
2.832966e+003,9.595429e-001
2.833930e+003,1.617712e+000
2.834895e+003,2.368536e+000
2.835859e+003,2.502777e+000
2.836823e+003,1.906421e+000
2.837787e+003,9.724213e-001
2.838752e+003,-3.896759e-001
2.839716e+003,1.148071e-001
2.840680e+003,2.204910e+000
2.841644e+003,3.265909e+000
2.842609e+003,3.027304e+000
2.843573e+003,1.773608e+000
2.844537e+003,1.481567e-001
2.845501e+003,1.393738e-002
2.846466e+003,1.537219e+000
2.847430e+003,1.856622e+000
2.848394e+003,6.040497e-001
2.849358e+003,-9.157410e-001
2.850323e+003,-2.796365e+000
2.851287e+003,-2.481210e+000
2.852251e+003,-3.237122e-001
2.853215e+003,1.054877e+000
2.854179e+003,1.558929e+000
2.855144e+003,2.123056e+000
2.856108e+003,2.695328e+000
2.857072e+003,2.591260e+000
2.858036e+003,1.761450e+000
2.859000e+003,4.323761e-001
2.859965e+003,-1.375656e+000
2.860929e+003,-1.609961e+000
2.861893e+003,-2.602844e-001
2.862857e+003,1.443176e+000
2.863822e+003,3.171017e+000
2.864786e+003,2.860629e+000
2.865750e+003,1.310834e+000
2.866714e+003,1.155350e+000
2.867679e+003,2.025711e+000
2.868643e+003,2.130087e+000
2.869607e+003,1.393619e+000
2.870571e+003,4.714417e-001
2.871536e+003,-4.521607e-001
2.872500e+003,1.303284e-001
2.873464e+003,2.067535e+000
2.874428e+003,2.124377e+000
2.875393e+003,8.525971e-001
2.876357e+003,-3.733551e-001
2.877321e+003,-1.016956e+000
2.878285e+003,2.696564e-001
2.879250e+003,2.372919e+000
2.880214e+003,2.976157e+000
2.881178e+003,2.370132e+000
2.882142e+003,2.192911e+000
2.883106e+003,2.270084e+000
2.884071e+003,1.647580e+000
2.885035e+003,5.908905e-001
2.885999e+003,7.054871e-001
2.886963e+003,1.436609e+000
2.887927e+003,1.527405e+000
2.888892e+003,1.277979e+000
2.889856e+003,1.264853e+000
2.890820e+003,1.267307e+000
2.891784e+003,5.250732e-001
2.892749e+003,-2.046783e-001
2.893713e+003,4.559570e-001
2.894677e+003,1.833514e+000
2.895641e+003,2.426657e+000
2.896606e+003,2.432532e+000
2.897570e+003,2.259708e+000
2.898534e+003,2.085712e+000
2.899498e+003,2.438480e+000
2.900463e+003,2.664801e+000
2.901427e+003,1.614526e+000
2.902391e+003,4.772797e-001
2.903355e+003,6.487610e-001
2.904320e+003,1.276633e+000
2.905284e+003,1.546243e+000
2.906248e+003,1.547083e+000
2.907212e+003,1.456631e+000
2.908177e+003,1.186066e+000
2.909141e+003,1.055206e-001
2.910105e+003,-7.008880e-001
2.911069e+003,3.932373e-001
2.912033e+003,1.654184e+000
2.912998e+003,1.954510e+000
2.913962e+003,1.621005e+000
2.914926e+003,6.184204e-001
2.915890e+003,-9.217529e-002
2.916854e+003,2.306519e-001
2.917819e+003,6.905243e-001
2.918783e+003,3.560883e-001
2.919747e+003,-1.001099e-001
2.920711e+003,2.078552e-001
2.921676e+003,4.172272e-001
2.922640e+003,-6.177368e-001
2.923604e+003,-9.165619e-001
2.924568e+003,6.096131e-001
2.925533e+003,2.298605e+000
2.926497e+003,3.625821e+000
2.927461e+003,3.836404e+000
2.928425e+003,2.843082e+000
2.929390e+003,1.849814e+000
2.930354e+003,1.131122e+000
2.931318e+003,4.617065e-001
2.932282e+003,-2.193481e-001
2.933247e+003,-6.656342e-001
2.934211e+003,3.555512e-001
2.935175e+003,9.220551e-001
2.936139e+003,4.152039e-001
2.937104e+003,-8.038269e-001
2.938068e+003,-2.400735e+000
2.939032e+003,-2.217566e+000
2.939996e+003,1.171936e-001
2.940960e+003,2.315750e+000
2.941925e+003,3.444754e+000
2.942889e+003,3.551263e+000
2.943853e+003,2.360233e+000
2.944817e+003,9.375061e-001
2.945781e+003,-9.540130e-001
2.946746e+003,-1.257535e+000
2.947710e+003,-1.417236e-002
2.948674e+003,1.320334e+000
2.949638e+003,2.197617e+000
2.950603e+003,9.845306e-001
2.951567e+003,-1.529626e+000
2.952531e+003,-1.263870e+000
2.953495e+003,2.041211e+000
2.954460e+003,2.956314e+000
2.955424e+003,1.330289e+000
2.956388e+003,-6.723083e-001
2.957352e+003,-2.872125e+000
2.958317e+003,-3.537717e+000
2.959281e+003,-2.742633e+000
2.960245e+003,3.638275e-001
2.961209e+003,3.785220e+000
2.962174e+003,3.180225e+000
2.963138e+003,3.910034e-001
2.964102e+003,3.129272e-001
2.965066e+003,1.959534e+000
2.966031e+003,2.979346e+000
2.966995e+003,3.364307e+000
2.967959e+003,2.787585e+000
2.968923e+003,1.782965e+000
2.969887e+003,1.283490e+000
2.970852e+003,1.269983e+000
2.971816e+003,2.151871e+000
2.972780e+003,3.012018e+000
2.973744e+003,2.633719e+000
2.974708e+003,2.309757e+000
2.975673e+003,3.286487e+000
2.976637e+003,4.019287e+000
2.977601e+003,2.512729e+000
2.978565e+003,5.529053e-001
2.979530e+003,3.269836e-001
2.980494e+003,1.089175e+000
2.981458e+003,3.693326e+000
2.982422e+003,4.896192e+000
2.983387e+003,1.604404e+000
2.984351e+003,-4.860199e-001
2.985315e+003,8.088166e-001
2.986279e+003,1.914630e+000
2.987244e+003,1.027289e+000
2.988208e+003,7.101746e-002
2.989172e+003,2.490875e-001
2.990136e+003,5.997162e-001
2.991101e+003,6.618835e-001
2.992065e+003,6.622650e-001
2.993029e+003,4.303772e-001
2.993993e+003,8.476349e-001
2.994958e+003,2.047492e+000
2.995922e+003,2.467133e+000
2.996886e+003,1.894608e+000
2.997850e+003,8.443634e-001
2.998814e+003,-2.945923e-001
2.999779e+003,-4.680725e-001
3.000743e+003,5.790192e-001
3.001707e+003,1.000110e+000
3.002671e+003,5.893921e-001
3.003635e+003,9.009095e-002
3.004600e+003,-4.472534e-001
3.005564e+003,3.840179e-001
3.006528e+003,1.960580e+000
3.007492e+003,2.043738e+000
3.008457e+003,1.216156e+000
3.009421e+003,1.222891e+000
3.010385e+003,1.914551e+000
3.011349e+003,2.548828e+000
3.012314e+003,2.766483e+000
3.013278e+003,1.394788e+000
3.014242e+003,-7.949707e-001
3.015206e+003,-1.144253e+000
3.016171e+003,-6.129120e-001
3.017135e+003,-5.942291e-001
3.018099e+003,-8.703156e-001
3.019063e+003,-1.554123e+000
3.020028e+003,-1.807916e+000
3.020992e+003,-7.481292e-001
3.021956e+003,1.560944e-001
3.022920e+003,-4.513733e-001
3.023885e+003,-1.112271e+000
3.024849e+003,-1.188202e-001
3.025813e+003,1.248138e+000
3.026777e+003,2.835107e+000
3.027741e+003,2.728854e+000
3.028706e+003,-2.558920e+000
3.029670e+003,-4.995906e+000
3.030634e+003,-2.106311e+000
3.031598e+003,2.432983e-001
3.032563e+003,1.463867e-001
3.033527e+003,9.534912e-002
3.034491e+003,1.114996e+000
3.035455e+003,1.580972e+000
3.036420e+003,6.433228e-001
3.037384e+003,1.100159e-001
3.038348e+003,5.925446e-001
3.039312e+003,3.169525e-001
3.040277e+003,-7.243530e-001
3.041241e+003,-4.559845e-001
3.042205e+003,8.932770e-001
3.043169e+003,1.900885e+000
3.044134e+003,2.139288e+000
3.045098e+003,9.590820e-001
3.046062e+003,-1.231815e+000
3.047026e+003,-2.517839e+000
3.047990e+003,-2.913722e+000
3.048955e+003,-2.651016e+000
3.049919e+003,-1.973105e+000
3.050883e+003,-2.123671e+000
3.051847e+003,-2.463762e+000
3.052812e+003,-1.705530e+000
3.053776e+003,-6.718689e-001
3.054740e+003,-6.611145e-001
3.055704e+003,-6.549469e-001
3.056668e+003,4.973511e-001
3.057633e+003,1.646423e+000
3.058597e+003,1.487814e+000
3.059561e+003,8.376251e-001
3.060525e+003,7.058258e-001
3.061490e+003,5.534455e-001
3.062454e+003,-1.537506e-001
3.063418e+003,-8.091156e-001
3.064382e+003,-1.520407e+000
3.065347e+003,-9.952484e-001
3.066311e+003,1.190750e+000
3.067275e+003,1.797433e+000
3.068239e+003,-1.541534e-001
3.069204e+003,-1.544739e+000
3.070168e+003,-1.010901e+000
3.071132e+003,-8.014160e-001
3.072096e+003,-1.993051e+000
3.073061e+003,-2.462590e+000
3.074025e+003,-2.181450e+000
3.074989e+003,-4.794006e-001
3.075953e+003,2.003238e+000
3.076917e+003,2.029382e+000
3.077882e+003,1.712341e-001
3.078846e+003,-1.450536e+000
3.079810e+003,-2.219881e+000
3.080774e+003,-1.466328e+000
3.081739e+003,2.990692e-001
3.082703e+003,1.970297e+000
3.083667e+003,3.119217e+000
3.084631e+003,1.487305e+000
3.085595e+003,-7.608887e-001
3.086560e+003,3.205078e-001
3.087524e+003,2.145489e+000
3.088488e+003,2.078012e+000
3.089452e+003,1.445428e+000
3.090417e+003,1.211172e+000
3.091381e+003,6.856629e-001
3.092345e+003,-7.001007e-001
3.093309e+003,-1.878308e+000
3.094274e+003,-1.870834e+000
3.095238e+003,-1.379172e+000
3.096202e+003,-5.952789e-001
3.097166e+003,2.914886e-001
3.098131e+003,1.556280e+000
3.099095e+003,1.310214e+000
3.100059e+003,-6.295990e-001
3.101023e+003,-1.772847e+000
3.101988e+003,-1.568213e+000
3.102952e+003,-5.906769e-001
3.103916e+003,7.504608e-001
3.104880e+003,5.364410e-001
3.105844e+003,-1.449779e+000
3.106809e+003,-1.473505e+000
3.107773e+003,1.543579e-001
3.108737e+003,-6.324493e-001
3.109701e+003,-2.672415e+000
3.110666e+003,-3.042696e+000
3.111630e+003,-2.336992e+000
3.112594e+003,-1.353230e+000
3.113558e+003,-8.669174e-001
3.114522e+003,-1.885057e+000
3.115487e+003,-3.077122e+000
3.116451e+003,-2.495485e+000
3.117415e+003,-1.101860e+000
3.118379e+003,2.645477e-001
3.119344e+003,1.007236e+000
3.120308e+003,2.152710e-001
3.121272e+003,-7.480866e-001
3.122236e+003,-1.518278e+000
3.123201e+003,-1.660834e+000
3.124165e+003,-1.060765e+000
3.125129e+003,-5.175781e-001
3.126093e+003,-3.881195e-001
3.127058e+003,-6.055405e-001
3.128022e+003,-1.249837e+000
3.128986e+003,-1.015507e+000
3.129950e+003,6.877747e-001
3.130915e+003,1.426993e+000
3.131879e+003,1.218625e+000
3.132843e+003,-4.173660e-001
3.133807e+003,-2.500801e+000
3.134771e+003,-1.967308e+000
3.135736e+003,-1.392517e-002
3.136700e+003,1.009094e-001
3.137664e+003,-1.067360e+000
3.138628e+003,-2.127450e+000
3.139593e+003,-3.028772e+000
3.140557e+003,-4.010809e+000
3.141521e+003,-4.291141e+000
3.142485e+003,-1.905823e+000
3.143449e+003,7.102844e-001
3.144414e+003,2.501813e+000
3.145378e+003,2.194638e+000
3.146342e+003,-1.109077e+000
3.147306e+003,-3.696219e+000
3.148271e+003,-3.830868e+000
3.149235e+003,-3.353186e+000
3.150199e+003,-3.283905e+000
3.151163e+003,-2.947368e+000
3.152128e+003,-1.545816e+000
3.153092e+003,-1.252121e+000
3.154056e+003,-2.268256e+000
3.155020e+003,-2.815001e+000
3.155985e+003,-2.849918e+000
3.156949e+003,-2.819780e+000
3.157913e+003,-2.681309e+000
3.158877e+003,-1.876712e+000
3.159842e+003,-9.546432e-001
3.160806e+003,-1.547261e+000
3.161770e+003,-2.895142e+000
3.162734e+003,-2.963951e+000
3.163698e+003,-2.261934e+000
3.164663e+003,-1.668390e+000
3.165627e+003,-1.234991e+000
3.166591e+003,-9.116409e-001
3.167555e+003,-9.424393e-001
3.168520e+003,-1.576811e+000
3.169484e+003,-2.116029e+000
3.170448e+003,-2.227856e+000
3.171412e+003,-2.164735e+000
3.172376e+003,-2.079530e+000
3.173341e+003,-1.554282e+000
3.174305e+003,-7.748719e-002
3.175269e+003,9.432312e-001
3.176233e+003,1.406113e+000
3.177198e+003,1.362714e+000
3.178162e+003,8.295929e-001
3.179126e+003,-5.461701e-001
3.180090e+003,-2.054955e+000
3.181055e+003,-1.477490e+000
3.182019e+003,3.591019e-001
3.182983e+003,5.355698e-001
3.183947e+003,-3.577881e-001
3.184912e+003,-9.255112e-001
3.185876e+003,-1.033284e+000
3.186840e+003,9.081116e-002
3.187804e+003,1.234256e+000
3.188769e+003,1.271204e+000
3.189733e+003,5.268158e-001
3.190697e+003,-1.189462e+000
3.191661e+003,-2.202283e+000
3.192625e+003,-1.818507e+000
3.193590e+003,-1.400540e+000
3.194554e+003,-1.664378e+000
3.195518e+003,-2.257527e+000
3.196482e+003,-3.365546e+000
3.197447e+003,-3.025935e+000
3.198411e+003,-8.637238e-001
3.199375e+003,4.637329e-001
3.200339e+003,1.063245e+000
3.201303e+003,2.439398e+000
3.202268e+003,3.987946e+000
3.203232e+003,4.100537e+000
3.204196e+003,2.808368e+000
3.205160e+003,3.386383e-001
3.206125e+003,-2.053102e+000
3.207089e+003,-2.053815e+000
3.208053e+003,-7.981415e-001
3.209017e+003,1.010681e-001
3.209982e+003,7.997879e-001
3.210946e+003,1.788824e+000
3.211910e+003,1.886505e+000
3.212874e+003,4.512665e-001
3.213839e+003,-4.302353e-001
3.214803e+003,-1.304154e-001
3.215767e+003,1.487869e-001
3.216731e+003,-1.121384e-001
3.217696e+003,-1.136748e+000
3.218660e+003,-3.343004e+000
3.219624e+003,-3.345664e+000
3.220588e+003,-1.062125e+000
3.221552e+003,8.150329e-002
3.222517e+003,2.259079e-001
3.223481e+003,-4.553024e-001
3.224445e+003,-1.307661e+000
3.225409e+003,-1.340727e+000
3.226374e+003,-7.725906e-001
3.227338e+003,1.273239e-001
3.228302e+003,8.965759e-001
3.229266e+003,9.748367e-001
3.230230e+003,6.281692e-001
3.231195e+003,-3.145432e-001
3.232159e+003,-7.398728e-001
3.233123e+003,4.730972e-001
3.234087e+003,6.621826e-001
3.235052e+003,-5.827911e-001
3.236016e+003,-8.267914e-001
3.236980e+003,1.799759e-001
3.237944e+003,4.181519e-001
3.238909e+003,-3.835053e-001
3.239873e+003,-4.049225e-002
3.240837e+003,1.320019e+000
3.241801e+003,1.345746e+000
3.242766e+003,4.305649e-001
3.243730e+003,2.601212e-001
3.244694e+003,1.856598e-001
3.245658e+003,-1.067328e+000
3.246623e+003,-2.343535e+000
3.247587e+003,-2.755989e+000
3.248551e+003,-2.289268e+000
3.249515e+003,-8.830200e-001
3.250479e+003,-3.373917e-001
3.251444e+003,-2.183614e+000
3.252408e+003,-3.852971e+000
3.253372e+003,-3.969038e+000
3.254336e+003,-3.545421e+000
3.255301e+003,-2.599179e+000
3.256265e+003,-1.933318e+000
3.257229e+003,-1.577223e+000
3.258193e+003,-1.409993e+000
3.259157e+003,-1.324980e+000
3.260122e+003,-1.095032e+000
3.261086e+003,-7.495376e-001
3.262050e+003,-3.358444e-001
3.263014e+003,-1.355835e-001
3.263979e+003,-1.328020e+000
3.264943e+003,-2.389241e+000
3.265907e+003,-6.943176e-001
3.266871e+003,6.505585e-001
3.267836e+003,-4.610901e-001
3.268800e+003,-1.089381e+000
3.269764e+003,-3.873154e-001
3.270728e+003,8.393250e-002
3.271693e+003,-2.151459e-001
3.272657e+003,-4.757629e-001
3.273621e+003,-4.281708e-001
3.274585e+003,-2.454514e-001
3.275550e+003,8.582000e-002
3.276514e+003,-3.960175e-001
3.277478e+003,-1.236705e+000
3.278442e+003,-1.017946e+000
3.279406e+003,-3.878983e-001
3.280371e+003,-2.245163e-001
3.281335e+003,-5.671951e-001
3.282299e+003,-1.462573e+000
3.283263e+003,-2.199265e+000
3.284228e+003,-2.148686e+000
3.285192e+003,-1.448213e+000
3.286156e+003,6.638794e-001
3.287120e+003,1.488612e+000
3.288084e+003,-6.634064e-002
3.289049e+003,-9.966095e-001
3.290013e+003,-1.032262e+000
3.290977e+003,-1.732910e-001
3.291941e+003,1.003748e+000
3.292906e+003,6.362717e-001
3.293870e+003,-7.414047e-001
3.294834e+003,-4.931763e-001
3.295798e+003,5.887924e-001
3.296763e+003,2.972397e-001
3.297727e+003,-6.421814e-001
3.298691e+003,-1.545967e+000
3.299655e+003,-1.744319e+000
3.300620e+003,1.657227e-001
3.301584e+003,1.040926e+000
3.302548e+003,-7.214355e-002
3.303512e+003,1.943970e-003
3.304477e+003,2.176939e+000
3.305441e+003,3.361758e+000
3.306405e+003,2.397284e+000
3.307369e+003,1.681416e+000
3.308333e+003,1.398206e+000
3.309298e+003,1.228989e+000
3.310262e+003,1.205812e+000
3.311226e+003,1.274329e+000
3.312190e+003,1.667630e+000
3.313155e+003,3.316184e+000
3.314119e+003,4.538825e+000
3.315083e+003,3.987131e+000
3.316047e+003,3.016402e+000
3.317011e+003,2.734851e+000
3.317976e+003,2.389156e+000
3.318940e+003,6.002060e-001
3.319904e+003,9.687851e-001
3.320868e+003,4.946136e+000
3.321833e+003,4.941428e+000
3.322797e+003,1.509454e+000
3.323761e+003,1.467944e+000
3.324725e+003,4.051544e+000
3.325690e+003,5.072766e+000
3.326654e+003,4.357980e+000
3.327618e+003,2.745671e+000
3.328582e+003,1.237466e+000
3.329547e+003,2.125911e+000
3.330511e+003,3.598044e+000
3.331475e+003,3.649905e+000
3.332439e+003,3.372665e+000
3.333404e+003,3.342040e+000
3.334368e+003,2.532907e+000
3.335332e+003,8.528885e-001
3.336296e+003,-2.019958e-001
3.337260e+003,-3.037933e-001
3.338225e+003,-9.473114e-002
3.339189e+003,2.030182e-001
3.340153e+003,-9.873352e-002
3.341117e+003,-7.954422e-001
3.342082e+003,-7.421677e-001
3.343046e+003,-3.559235e-001
3.344010e+003,-1.311523e-001
3.344974e+003,-8.534088e-002
3.345938e+003,-3.726608e-001
3.346903e+003,-1.499451e-001
3.347867e+003,9.509705e-001
3.348831e+003,1.033656e+000
3.349795e+003,-9.685776e-001
3.350760e+003,-2.335956e+000
3.351724e+003,-1.981325e+000
3.352688e+003,-1.066132e+000
3.353652e+003,2.871048e-001
3.354617e+003,2.955368e-001
3.355581e+003,-2.501602e-001
3.356545e+003,7.494934e-001
3.357509e+003,2.127562e+000
3.358474e+003,2.241901e+000
3.359438e+003,1.756818e+000
3.360402e+003,1.252887e+000
3.361366e+003,1.022499e+000
3.362331e+003,1.584343e+000
3.363295e+003,1.763103e+000
3.364259e+003,9.334167e-001
3.365223e+003,1.754166e-001
3.366188e+003,-3.459946e-001
3.367152e+003,9.919739e-002
3.368116e+003,1.164188e+000
3.369080e+003,1.609439e+000
3.370044e+003,1.617168e+000
3.371009e+003,2.201526e+000
3.371973e+003,2.917174e+000
3.372937e+003,2.897849e+000
3.373901e+003,2.438750e+000
3.374865e+003,1.617275e+000
3.375830e+003,9.198990e-001
3.376794e+003,4.708771e-001
3.377758e+003,4.732147e-001
3.378722e+003,9.224976e-001
3.379687e+003,1.498505e+000
3.380651e+003,2.047637e+000
3.381615e+003,2.267600e+000
3.382579e+003,2.197093e+000
3.383544e+003,2.513814e+000
3.384508e+003,2.907150e+000
3.385472e+003,2.213554e+000
3.386436e+003,9.830170e-001
3.387401e+003,-9.988678e-001
3.388365e+003,-1.774571e+000
3.389329e+003,-3.966751e-001
3.390293e+003,1.523117e+000
3.391258e+003,3.254304e+000
3.392222e+003,4.630774e+000
3.393186e+003,5.600369e+000
3.394150e+003,5.148758e+000
3.395115e+003,3.168517e+000
3.396079e+003,2.771413e+000
3.397043e+003,3.615311e+000
3.398007e+003,5.146848e+000
3.398971e+003,6.709738e+000
3.399936e+003,7.630694e+000
3.400900e+003,7.697250e+000
3.401864e+003,6.682303e+000
3.402828e+003,6.599179e+000
3.403792e+003,8.894888e+000
3.404757e+003,1.061367e+001
3.405721e+003,9.735385e+000
3.406685e+003,9.165079e+000
3.407649e+003,9.027960e+000
3.408614e+003,1.143919e+001
3.409578e+003,1.498043e+001
3.410542e+003,1.565200e+001
3.411506e+003,1.473005e+001
3.412471e+003,1.419780e+001
3.413435e+003,1.515150e+001
3.414399e+003,1.887075e+001
3.415363e+003,2.220809e+001
3.416328e+003,2.177785e+001
3.417292e+003,2.072110e+001
3.418256e+003,1.971435e+001
3.419220e+003,1.976060e+001
3.420185e+003,2.079416e+001
3.421149e+003,2.154309e+001
3.422113e+003,2.208415e+001
3.423077e+003,2.362043e+001
3.424042e+003,2.498541e+001
3.425006e+003,2.400454e+001
3.425970e+003,2.221726e+001
3.426934e+003,2.208963e+001
