7.140112e+001,1.148814e+002
7.236536e+001,1.093479e+002
7.332959e+001,1.062269e+002
7.429382e+001,1.104607e+002
7.525806e+001,1.228335e+002
7.622229e+001,1.302651e+002
7.718652e+001,1.238298e+002
7.815076e+001,9.572375e+001
7.911499e+001,7.807719e+001
8.007922e+001,6.962284e+001
8.104346e+001,6.856526e+001
8.200769e+001,7.410939e+001
8.297192e+001,9.069603e+001
8.393616e+001,1.077345e+002
8.490039e+001,1.272351e+002
8.586462e+001,1.451215e+002
8.682886e+001,1.548502e+002
8.779310e+001,1.409223e+002
8.875733e+001,1.194745e+002
8.972157e+001,9.862069e+001
9.068580e+001,8.159165e+001
9.165003e+001,6.850716e+001
9.261427e+001,6.204855e+001
9.357850e+001,6.017818e+001
9.454273e+001,6.107966e+001
9.550697e+001,6.396378e+001
9.647120e+001,7.055186e+001
9.743543e+001,7.258716e+001
9.839967e+001,6.891445e+001
9.936390e+001,6.224482e+001
1.003281e+002,5.543578e+001
1.012924e+002,4.677673e+001
1.022566e+002,4.099784e+001
1.032208e+002,3.969928e+001
1.041851e+002,4.186843e+001
1.051493e+002,4.506075e+001
1.061135e+002,4.924649e+001
1.070778e+002,5.201215e+001
1.080420e+002,5.155177e+001
1.090062e+002,4.764040e+001
1.099705e+002,4.185076e+001
1.109347e+002,3.719466e+001
1.118989e+002,3.367344e+001
1.128632e+002,3.259770e+001
1.138274e+002,3.498132e+001
1.147916e+002,4.165436e+001
1.157559e+002,4.429478e+001
1.167201e+002,4.179504e+001
1.176843e+002,3.751566e+001
1.186486e+002,3.554039e+001
1.196128e+002,3.782502e+001
1.205770e+002,3.999569e+001
1.215413e+002,4.313291e+001
1.225055e+002,4.598838e+001
1.234697e+002,4.601420e+001
1.244340e+002,3.728761e+001
1.253982e+002,2.850582e+001
1.263624e+002,2.152919e+001
1.273267e+002,1.728148e+001
1.282909e+002,1.604078e+001
1.292551e+002,2.179615e+001
1.302194e+002,2.983065e+001
1.311836e+002,3.612565e+001
1.321478e+002,3.807438e+001
1.331121e+002,3.544987e+001
1.340763e+002,3.181296e+001
1.350405e+002,2.703705e+001
1.360048e+002,2.261923e+001
1.369690e+002,2.002371e+001
1.379332e+002,1.976237e+001
1.388975e+002,2.149516e+001
1.398617e+002,2.715693e+001
1.408259e+002,3.400877e+001
1.417902e+002,3.773356e+001
1.427544e+002,3.430427e+001
1.437186e+002,2.968418e+001
1.446829e+002,2.428515e+001
1.456471e+002,1.887899e+001
1.466113e+002,1.456900e+001
1.475756e+002,1.271136e+001
1.485398e+002,1.306391e+001
1.495040e+002,1.762861e+001
1.504683e+002,2.646613e+001
1.514325e+002,3.755126e+001
1.523967e+002,3.783403e+001
1.533610e+002,2.987782e+001
1.543252e+002,2.113516e+001
1.552894e+002,1.709700e+001
1.562537e+002,2.009150e+001
1.572179e+002,2.049156e+001
1.581821e+002,1.497880e+001
1.591464e+002,9.380957e+000
1.601106e+002,1.044974e+001
1.610748e+002,2.651128e+001
1.620391e+002,3.733446e+001
1.630033e+002,3.666036e+001
1.639676e+002,2.874029e+001
1.649318e+002,2.025997e+001
1.658960e+002,1.699896e+001
1.668603e+002,1.614425e+001
1.678245e+002,1.633090e+001
1.687887e+002,1.711332e+001
1.697530e+002,1.827264e+001
1.707172e+002,1.934851e+001
1.716814e+002,2.031787e+001
1.726457e+002,2.124741e+001
1.736099e+002,2.220602e+001
1.745741e+002,2.323102e+001
1.755384e+002,2.248910e+001
1.765026e+002,1.903821e+001
1.774668e+002,1.546947e+001
1.784311e+002,1.330203e+001
1.793953e+002,1.328073e+001
1.803595e+002,1.259656e+001
1.813238e+002,9.287366e+000
1.822880e+002,5.974786e+000
1.832522e+002,5.331500e+000
1.842165e+002,1.044600e+001
1.851807e+002,1.464625e+001
1.861449e+002,1.206650e+001
1.871092e+002,5.848169e+000
1.880734e+002,5.180664e-002
1.890376e+002,3.302307e-001
1.900019e+002,5.204944e+000
1.909661e+002,9.700073e+000
1.919303e+002,1.343497e+001
1.928946e+002,1.637505e+001
1.938588e+002,1.821097e+001
1.948230e+002,1.823149e+001
1.957873e+002,1.868351e+001
1.967515e+002,1.940154e+001
1.977157e+002,2.049763e+001
1.986800e+002,2.414050e+001
1.996442e+002,3.114608e+001
2.006084e+002,3.958138e+001
2.015727e+002,5.133671e+001
2.025369e+002,6.673463e+001
2.035011e+002,7.720182e+001
2.044654e+002,7.499159e+001
2.054296e+002,6.750237e+001
2.063938e+002,5.718134e+001
2.073581e+002,4.583039e+001
2.083223e+002,3.595499e+001
2.092865e+002,3.257638e+001
2.102508e+002,3.433401e+001
2.112150e+002,4.073558e+001
2.121792e+002,5.149794e+001
2.131435e+002,6.862981e+001
2.141077e+002,7.596687e+001
2.150719e+002,6.933736e+001
2.160362e+002,5.674454e+001
2.170004e+002,5.004841e+001
2.179646e+002,5.405353e+001
2.189289e+002,5.834159e+001
2.198931e+002,6.060757e+001
2.208573e+002,6.241182e+001
2.218216e+002,6.716814e+001
2.227858e+002,8.128362e+001
2.237500e+002,9.456506e+001
2.247143e+002,1.054116e+002
2.256785e+002,1.121444e+002
2.266427e+002,1.125747e+002
2.276070e+002,9.735780e+001
2.285712e+002,7.449052e+001
2.295354e+002,5.358115e+001
2.304997e+002,3.758349e+001
2.314639e+002,2.625169e+001
2.324281e+002,1.920986e+001
2.333924e+002,1.704295e+001
2.343566e+002,1.558910e+001
2.353208e+002,1.321957e+001
2.362851e+002,9.628027e+000
2.372493e+002,7.077502e+000
2.382135e+002,5.886889e+000
2.391778e+002,5.203400e+000
2.401420e+002,4.833026e+000
2.411062e+002,4.807422e+000
2.420705e+002,4.451599e+000
2.430347e+002,2.729956e+000
2.439989e+002,8.604065e-001
2.449632e+002,-4.476319e-002
2.459274e+002,9.307373e-001
2.468916e+002,2.787994e+000
2.478559e+002,3.485339e+000
2.488201e+002,3.231329e+000
2.497843e+002,2.106207e+000
2.507486e+002,1.581482e-001
2.517128e+002,-2.938910e+000
2.526770e+002,-3.609546e+000
2.536413e+002,-1.105237e+000
2.546055e+002,2.911377e+000
2.555697e+002,5.884607e+000
2.565340e+002,7.141052e+000
2.574982e+002,8.121674e+000
2.584625e+002,9.441358e+000
2.594267e+002,1.066712e+001
2.603909e+002,1.086843e+001
2.613552e+002,8.056738e+000
2.623194e+002,5.526196e+000
2.632836e+002,5.102142e+000
2.642479e+002,6.350958e+000
2.652121e+002,7.982581e+000
2.661763e+002,8.073590e+000
2.671406e+002,7.223901e+000
2.681048e+002,6.155164e+000
2.690690e+002,5.039331e+000
2.700333e+002,4.047046e+000
2.709975e+002,4.048395e+000
2.719617e+002,5.626196e+000
2.729260e+002,6.378589e+000
2.738902e+002,5.157788e+000
2.748544e+002,2.005365e+000
2.758187e+002,2.518555e-001
2.767829e+002,1.615833e+000
2.777471e+002,2.628296e+000
2.787114e+002,2.099933e+000
2.796756e+002,-7.902221e-002
2.806398e+002,-2.167365e+000
2.816041e+002,-3.623926e+000
2.825683e+002,-4.230304e+000
2.835325e+002,-3.459442e+000
2.844968e+002,-1.206165e+000
2.854610e+002,1.811584e+000
2.864252e+002,4.437909e+000
2.873895e+002,6.539728e+000
2.883537e+002,7.518622e+000
2.893179e+002,7.004541e+000
2.902822e+002,4.924115e+000
2.912464e+002,3.484802e+000
2.922106e+002,2.924676e+000
2.931749e+002,2.341217e+000
2.941391e+002,8.229492e-001
2.951033e+002,-2.457025e+000
2.960676e+002,-4.085126e+000
2.970318e+002,-3.045953e+000
2.979960e+002,-1.120312e+000
2.989603e+002,6.285950e-001
2.999245e+002,1.786999e+000
3.008887e+002,2.286584e+000
3.018530e+002,1.068500e+000
3.028172e+002,-2.120667e-001
3.037814e+002,6.625061e-001
3.047457e+002,5.726160e+000
3.057099e+002,1.260163e+001
3.066741e+002,1.379705e+001
3.076384e+002,1.029783e+001
3.086026e+002,4.936090e+000
3.095668e+002,7.980164e-001
3.105311e+002,-1.789398e+000
3.114953e+002,-2.953674e+000
3.124595e+002,-1.853119e+000
3.134238e+002,-9.010620e-002
3.143880e+002,3.040954e-001
3.153522e+002,-2.221478e+000
3.163165e+002,-3.566150e+000
3.172807e+002,-2.405597e+000
3.182449e+002,3.723145e-003
3.192092e+002,2.303760e+000
3.201734e+002,3.721967e+000
3.211376e+002,4.326477e+000
3.221019e+002,3.901618e+000
3.230661e+002,3.026111e+000
3.240303e+002,2.598969e+000
3.249946e+002,3.799676e+000
3.259588e+002,6.226056e+000
3.269230e+002,7.037707e+000
3.278873e+002,6.158539e+000
3.288515e+002,4.730804e+000
3.298157e+002,4.807715e+000
3.307800e+002,8.233606e+000
3.317442e+002,1.020570e+001
3.327084e+002,9.214282e+000
3.336727e+002,7.069220e+000
3.346369e+002,7.117999e+000
3.356011e+002,1.255818e+001
3.365654e+002,1.685562e+001
3.375296e+002,1.819778e+001
3.384938e+002,1.753115e+001
3.394581e+002,1.625059e+001
3.404223e+002,1.470408e+001
3.413865e+002,1.422421e+001
3.423508e+002,1.628055e+001
3.433150e+002,2.039450e+001
3.442792e+002,2.530513e+001
3.452435e+002,2.896818e+001
3.462077e+002,3.151161e+001
3.471719e+002,3.575102e+001
3.481362e+002,4.141294e+001
3.491004e+002,4.928637e+001
3.500646e+002,6.117266e+001
3.510289e+002,7.665700e+001
3.519931e+002,9.878938e+001
3.529573e+002,1.285608e+002
3.539216e+002,1.645512e+002
3.548858e+002,2.064684e+002
3.558500e+002,2.706039e+002
3.568143e+002,3.160392e+002
3.577785e+002,3.275822e+002
3.587427e+002,3.116508e+002
3.597070e+002,2.793705e+002
3.606712e+002,2.355309e+002
3.616354e+002,1.883444e+002
3.625997e+002,1.467368e+002
3.635639e+002,1.118485e+002
3.645281e+002,8.448766e+001
3.654924e+002,6.585038e+001
3.664566e+002,5.873052e+001
3.674208e+002,5.122602e+001
3.683851e+002,4.246741e+001
3.693493e+002,3.358557e+001
3.703135e+002,2.713476e+001
3.712778e+002,2.519553e+001
3.722420e+002,2.360213e+001
3.732062e+002,2.210082e+001
3.741705e+002,2.070033e+001
3.751347e+002,1.945300e+001
3.760989e+002,1.824753e+001
3.770632e+002,1.749518e+001
3.780274e+002,1.766422e+001
3.789916e+002,1.822541e+001
3.799559e+002,1.836689e+001
3.809201e+002,1.708667e+001
3.818844e+002,1.506760e+001
3.828486e+002,1.412091e+001
3.838128e+002,1.421850e+001
3.847771e+002,1.495167e+001
3.857413e+002,1.570911e+001
3.867055e+002,1.653589e+001
3.876698e+002,1.739844e+001
3.886340e+002,1.798992e+001
3.895982e+002,1.862411e+001
3.905625e+002,1.987559e+001
3.915267e+002,2.253658e+001
3.924909e+002,2.455707e+001
3.934552e+002,2.543781e+001
3.944194e+002,2.567191e+001
3.953836e+002,2.584970e+001
3.963479e+002,2.642552e+001
3.973121e+002,2.659061e+001
3.982763e+002,2.547805e+001
3.992406e+002,2.373719e+001
4.002048e+002,2.213629e+001
4.011690e+002,2.137797e+001
4.021333e+002,2.148388e+001
4.030975e+002,2.200920e+001
4.040617e+002,2.292575e+001
4.050260e+002,2.452018e+001
4.059902e+002,2.721863e+001
4.069544e+002,3.165123e+001
4.079187e+002,3.532048e+001
4.088829e+002,3.746104e+001
4.098471e+002,3.954281e+001
4.108114e+002,4.212853e+001
4.117756e+002,4.476669e+001
4.127398e+002,5.060277e+001
4.137041e+002,6.516091e+001
4.146683e+002,7.982382e+001
4.156325e+002,8.823680e+001
4.165968e+002,8.706401e+001
4.175610e+002,7.992387e+001
4.185252e+002,7.077421e+001
4.194895e+002,6.127423e+001
4.204537e+002,5.361044e+001
4.214179e+002,4.918417e+001
4.223822e+002,4.788176e+001
4.233464e+002,4.786510e+001
4.243106e+002,4.866943e+001
4.252749e+002,5.052953e+001
4.262391e+002,5.345232e+001
4.272033e+002,5.747797e+001
4.281676e+002,6.350664e+001
4.291318e+002,7.071045e+001
4.300960e+002,8.057932e+001
4.310603e+002,9.345707e+001
4.320245e+002,1.093268e+002
4.329887e+002,1.284255e+002
4.339530e+002,1.541751e+002
4.349172e+002,1.813190e+002
4.358814e+002,2.097643e+002
4.368457e+002,2.378719e+002
4.378099e+002,2.626541e+002
4.387741e+002,2.785323e+002
4.397384e+002,2.851074e+002
4.407026e+002,2.795371e+002
4.416668e+002,2.600982e+002
4.426311e+002,2.310128e+002
4.435953e+002,2.064273e+002
4.445595e+002,1.884705e+002
4.455238e+002,1.732232e+002
4.464880e+002,1.610120e+002
4.474522e+002,1.514108e+002
4.484165e+002,1.439092e+002
4.493807e+002,1.405871e+002
4.503449e+002,1.368579e+002
4.513092e+002,1.320733e+002
4.522734e+002,1.256912e+002
4.532376e+002,1.167092e+002
4.542019e+002,1.033372e+002
4.551661e+002,8.913265e+001
4.561303e+002,7.839104e+001
4.570946e+002,7.072333e+001
4.580588e+002,6.532117e+001
4.590230e+002,6.134019e+001
4.599873e+002,5.896010e+001
4.609515e+002,5.564043e+001
4.619157e+002,5.010413e+001
4.628800e+002,4.576670e+001
4.638442e+002,4.628704e+001
4.648084e+002,5.394242e+001
4.657727e+002,5.965128e+001
4.667369e+002,6.245796e+001
4.677011e+002,6.430358e+001
4.686654e+002,6.610286e+001
4.696296e+002,6.807939e+001
4.705938e+002,7.008151e+001
4.715581e+002,7.364011e+001
4.725223e+002,7.612350e+001
4.734865e+002,7.519347e+001
4.744508e+002,7.025391e+001
4.754150e+002,6.301206e+001
4.763792e+002,5.718378e+001
4.773435e+002,5.238793e+001
4.783077e+002,4.790471e+001
4.792719e+002,4.350355e+001
4.802362e+002,3.931145e+001
4.812004e+002,3.596025e+001
4.821646e+002,3.365592e+001
4.831289e+002,3.187593e+001
4.840931e+002,3.108694e+001
4.850573e+002,3.072524e+001
4.860216e+002,2.925217e+001
4.869858e+002,2.486414e+001
4.879500e+002,2.149804e+001
4.889143e+002,2.073718e+001
4.898785e+002,2.166171e+001
4.908427e+002,2.274737e+001
4.918070e+002,2.269728e+001
4.927712e+002,2.216078e+001
4.937354e+002,2.239850e+001
4.946997e+002,2.320795e+001
4.956639e+002,2.405478e+001
4.966281e+002,2.438776e+001
4.975924e+002,2.414375e+001
4.985566e+002,2.437881e+001
4.995208e+002,2.458513e+001
5.004851e+002,2.571036e+001
5.014493e+002,2.882678e+001
5.024135e+002,3.453204e+001
5.033778e+002,3.944979e+001
5.043420e+002,4.328130e+001
5.053063e+002,4.659406e+001
5.062705e+002,4.980791e+001
5.072347e+002,5.282428e+001
5.081990e+002,5.454547e+001
5.091632e+002,5.383088e+001
5.101274e+002,5.133491e+001
5.110917e+002,4.627885e+001
5.120559e+002,3.917167e+001
5.130201e+002,3.171146e+001
5.139844e+002,2.730908e+001
5.149486e+002,2.573524e+001
5.159128e+002,2.376076e+001
5.168771e+002,2.107956e+001
5.178413e+002,1.781833e+001
5.188055e+002,1.414855e+001
5.197698e+002,8.885816e+000
5.207340e+002,5.146588e+000
5.216982e+002,3.708282e+000
5.226625e+002,3.317786e+000
5.236267e+002,2.499640e+000
5.245909e+002,4.725159e-001
5.255552e+002,-8.996887e-001
5.265194e+002,-3.618164e-001
5.274836e+002,9.113342e-001
5.284479e+002,1.992279e+000
5.294121e+002,2.367908e+000
5.303763e+002,2.323297e+000
5.313406e+002,2.062256e+000
5.323048e+002,1.781683e+000
5.332690e+002,2.323956e+000
5.342333e+002,4.199060e+000
5.351975e+002,7.038202e+000
5.361617e+002,7.712140e+000
5.371260e+002,4.442706e+000
5.380902e+002,1.853723e+000
5.390544e+002,7.607422e-001
5.400187e+002,8.678833e-001
5.409829e+002,1.377991e+000
5.419471e+002,2.623498e+000
5.429114e+002,3.818518e+000
5.438756e+002,5.137213e+000
5.448398e+002,6.138202e+000
5.458041e+002,6.059405e+000
5.467683e+002,4.045599e+000
5.477325e+002,1.600336e+000
5.486968e+002,8.421021e-001
5.496610e+002,1.299786e+000
5.506252e+002,2.210706e+000
5.515895e+002,2.950116e+000
5.525537e+002,3.503546e+000
5.535179e+002,3.731213e+000
5.544822e+002,3.780884e+000
5.554464e+002,3.540668e+000
5.564106e+002,2.768518e+000
5.573749e+002,1.421454e+000
5.583391e+002,2.796509e-001
5.593033e+002,-5.166565e-001
5.602676e+002,-1.047662e+000
5.612318e+002,-1.372919e+000
5.621960e+002,-1.457281e+000
5.631603e+002,-1.146106e+000
5.641245e+002,-2.277222e-002
5.650887e+002,1.235114e+000
5.660530e+002,2.237329e+000
5.670172e+002,2.891370e+000
5.679814e+002,3.005499e+000
5.689457e+002,2.325909e+000
5.699099e+002,9.751404e-001
5.708741e+002,9.681091e-001
5.718384e+002,2.637030e+000
5.728026e+002,3.939612e+000
5.737668e+002,2.727368e+000
5.747311e+002,-1.902820e+000
5.756953e+002,-4.572553e+000
5.766595e+002,-4.193359e+000
5.776238e+002,-3.296075e+000
5.785880e+002,-2.723614e+000
5.795522e+002,-2.549701e+000
5.805165e+002,-2.295923e+000
5.814807e+002,-1.063391e+000
5.824449e+002,-1.833862e-001
5.834092e+002,-9.258850e-001
5.843734e+002,-2.812250e+000
5.853376e+002,-4.426867e+000
5.863019e+002,-3.992023e+000
5.872661e+002,-1.930206e+000
5.882303e+002,-1.160321e+000
5.891946e+002,-1.705432e+000
5.901588e+002,-2.511395e+000
5.911230e+002,-2.502704e+000
5.920873e+002,-1.471118e+000
5.930515e+002,-4.560730e-001
5.940157e+002,1.085925e+000
5.949800e+002,2.157263e+000
5.959442e+002,2.021472e+000
5.969084e+002,6.853698e-001
5.978727e+002,-5.934876e-001
5.988369e+002,-1.230878e+000
5.998011e+002,-1.534979e+000
6.007654e+002,-1.367053e+000
6.017296e+002,-9.313599e-001
6.026938e+002,-6.838745e-001
6.036581e+002,-1.249524e+000
6.046223e+002,-2.258826e+000
6.055865e+002,-2.597907e+000
6.065508e+002,-2.250183e+000
6.075150e+002,-1.416492e+000
6.084792e+002,-2.927124e-001
6.094435e+002,1.186517e+000
6.104077e+002,2.786420e+000
6.113719e+002,5.489716e+000
6.123362e+002,7.234693e+000
6.133004e+002,6.159112e+000
6.142646e+002,2.302002e+000
6.152289e+002,-1.707397e-001
6.161931e+002,1.973547e+000
6.171573e+002,4.514136e+000
6.181216e+002,6.374316e+000
6.190858e+002,7.404547e+000
6.200500e+002,7.705896e+000
6.210143e+002,6.887231e+000
6.219785e+002,6.077490e+000
6.229427e+002,7.661120e+000
6.239070e+002,1.121137e+001
6.248712e+002,1.500446e+001
6.258354e+002,1.740672e+001
6.267997e+002,1.835181e+001
6.277639e+002,1.940222e+001
6.287281e+002,2.069467e+001
6.296924e+002,2.169603e+001
6.306566e+002,2.224387e+001
6.316208e+002,2.233430e+001
6.325851e+002,2.191871e+001
6.335493e+002,2.036851e+001
6.345135e+002,1.902233e+001
6.354778e+002,1.811703e+001
6.364420e+002,1.766539e+001
6.374063e+002,1.767765e+001
6.383705e+002,1.831919e+001
6.393347e+002,1.908505e+001
6.402990e+002,1.932521e+001
6.412632e+002,1.911396e+001
6.422274e+002,1.848520e+001
6.431917e+002,1.743837e+001
6.441559e+002,1.596641e+001
6.451201e+002,1.453378e+001
6.460844e+002,1.293038e+001
6.470486e+002,1.168466e+001
6.480128e+002,1.122654e+001
6.489771e+002,1.134100e+001
6.499413e+002,1.103954e+001
6.509055e+002,9.481787e+000
6.518698e+002,8.340222e+000
6.528340e+002,8.372503e+000
6.537982e+002,8.975879e+000
6.547625e+002,9.377380e+000
6.557267e+002,9.124756e+000
6.566909e+002,8.453089e+000
6.576552e+002,7.401007e+000
6.586194e+002,6.293005e+000
6.595836e+002,5.723126e+000
6.605479e+002,6.000964e+000
6.615121e+002,6.998908e+000
6.624763e+002,8.091846e+000
6.634406e+002,9.673243e+000
6.644048e+002,1.022512e+001
6.653690e+002,8.802930e+000
6.663333e+002,6.304346e+000
6.672975e+002,4.400427e+000
6.682617e+002,3.157635e+000
6.692260e+002,3.095618e+000
6.701902e+002,4.942157e+000
6.711544e+002,7.288300e+000
6.721187e+002,9.041516e+000
6.730829e+002,9.789594e+000
6.740471e+002,9.964630e+000
6.750114e+002,9.666590e+000
6.759756e+002,9.439679e+000
6.769398e+002,1.012446e+001
6.779041e+002,1.177170e+001
6.788683e+002,1.359991e+001
6.798325e+002,1.418629e+001
6.807968e+002,1.309145e+001
6.817610e+002,1.217437e+001
6.827252e+002,1.104711e+001
6.836895e+002,1.037895e+001
6.846537e+002,1.106772e+001
6.856179e+002,1.346646e+001
6.865822e+002,1.504171e+001
6.875464e+002,1.483913e+001
6.885106e+002,1.414648e+001
6.894749e+002,1.325885e+001
6.904391e+002,1.237396e+001
6.914034e+002,1.160824e+001
6.923676e+002,1.083623e+001
6.933318e+002,1.071333e+001
6.942961e+002,1.237534e+001
6.952603e+002,1.536240e+001
6.962245e+002,1.819838e+001
6.971888e+002,1.951706e+001
6.981530e+002,1.925176e+001
6.991172e+002,1.928264e+001
7.000815e+002,1.948600e+001
7.010457e+002,1.999399e+001
7.020099e+002,2.110640e+001
7.029742e+002,2.271007e+001
7.039384e+002,2.408693e+001
7.049026e+002,2.488076e+001
7.058669e+002,2.559985e+001
7.068311e+002,2.608464e+001
7.077953e+002,2.666398e+001
7.087596e+002,2.816890e+001
7.097238e+002,3.118621e+001
7.106880e+002,3.381199e+001
7.116523e+002,3.182543e+001
7.126165e+002,2.762817e+001
7.135807e+002,2.467064e+001
7.145450e+002,2.429769e+001
7.155092e+002,2.567516e+001
7.164734e+002,2.647747e+001
7.174377e+002,2.640128e+001
7.184019e+002,2.624703e+001
7.193661e+002,2.604337e+001
7.203304e+002,2.565233e+001
7.212946e+002,2.502083e+001
7.222589e+002,2.423568e+001
7.232231e+002,2.297132e+001
7.241873e+002,1.986847e+001
7.251516e+002,1.735854e+001
7.261158e+002,1.730455e+001
7.270800e+002,1.935089e+001
7.280443e+002,2.128703e+001
7.290085e+002,2.060822e+001
7.299727e+002,1.865436e+001
7.309370e+002,1.850100e+001
7.319012e+002,1.993000e+001
7.328654e+002,2.132227e+001
7.338297e+002,2.117983e+001
7.347939e+002,1.941023e+001
7.357581e+002,1.792409e+001
7.367224e+002,1.616703e+001
7.376866e+002,1.528583e+001
7.386508e+002,1.592118e+001
7.396151e+002,1.766992e+001
7.405793e+002,1.955323e+001
7.415435e+002,2.192117e+001
7.425078e+002,2.331484e+001
7.434720e+002,2.284330e+001
7.444362e+002,2.133368e+001
7.454005e+002,1.921431e+001
7.463647e+002,1.683834e+001
7.473289e+002,1.507336e+001
7.482932e+002,1.659091e+001
7.492574e+002,2.004389e+001
7.502216e+002,2.182228e+001
7.511859e+002,2.095729e+001
7.521501e+002,1.886748e+001
7.531143e+002,1.819794e+001
7.540786e+002,1.981631e+001
7.550428e+002,2.100991e+001
7.560070e+002,2.196298e+001
7.569713e+002,2.241664e+001
7.579355e+002,2.182495e+001
7.588997e+002,2.028944e+001
7.598640e+002,1.925499e+001
7.608282e+002,2.024809e+001
7.617924e+002,2.133364e+001
7.627567e+002,2.139380e+001
7.637209e+002,2.072116e+001
7.646851e+002,1.980944e+001
7.656494e+002,1.901862e+001
7.666136e+002,1.874958e+001
7.675778e+002,2.161821e+001
7.685421e+002,2.712204e+001
7.695063e+002,3.066547e+001
7.704705e+002,2.954235e+001
7.714348e+002,2.510502e+001
7.723990e+002,2.282966e+001
7.733632e+002,2.447360e+001
7.743275e+002,2.571844e+001
7.752917e+002,2.604584e+001
7.762559e+002,2.607159e+001
7.772202e+002,2.620517e+001
7.781844e+002,2.654460e+001
7.791486e+002,2.727839e+001
7.801129e+002,2.934421e+001
7.810771e+002,3.137258e+001
7.820413e+002,3.216578e+001
7.830056e+002,3.188445e+001
7.839698e+002,3.154001e+001
7.849340e+002,3.227348e+001
7.858983e+002,3.408216e+001
7.868625e+002,3.621133e+001
7.878267e+002,3.890049e+001
7.887910e+002,4.102105e+001
7.897552e+002,4.182782e+001
7.907194e+002,4.148345e+001
7.916837e+002,4.111054e+001
7.926479e+002,4.048702e+001
7.936121e+002,4.018022e+001
7.945764e+002,4.038213e+001
7.955406e+002,4.085395e+001
7.965048e+002,4.124921e+001
7.974691e+002,4.147665e+001
7.984333e+002,4.217726e+001
7.993975e+002,4.478668e+001
8.003618e+002,4.796474e+001
8.013260e+002,5.018549e+001
8.022902e+002,5.122633e+001
8.032545e+002,5.197070e+001
8.042187e+002,5.381716e+001
8.051829e+002,5.717451e+001
8.061472e+002,5.936660e+001
8.071114e+002,5.885894e+001
8.080756e+002,5.899580e+001
8.090399e+002,6.152543e+001
8.100041e+002,6.629088e+001
8.109683e+002,7.198767e+001
8.119326e+002,7.897499e+001
8.128968e+002,8.595111e+001
8.138610e+002,9.270777e+001
8.148253e+002,9.904990e+001
8.157895e+002,1.043854e+002
8.167537e+002,1.085431e+002
8.177180e+002,1.125701e+002
8.186822e+002,1.187609e+002
8.196464e+002,1.263913e+002
8.206107e+002,1.344294e+002
8.215749e+002,1.427350e+002
8.225391e+002,1.499806e+002
8.235034e+002,1.540110e+002
8.244676e+002,1.540662e+002
8.254318e+002,1.526869e+002
8.263961e+002,1.508444e+002
8.273603e+002,1.474361e+002
8.283245e+002,1.408714e+002
8.292888e+002,1.319449e+002
8.302530e+002,1.238117e+002
8.312172e+002,1.181321e+002
8.321815e+002,1.134085e+002
8.331457e+002,1.085224e+002
8.341099e+002,1.039359e+002
8.350742e+002,1.004464e+002
8.360384e+002,9.833403e+001
8.370026e+002,9.676409e+001
8.379669e+002,9.359621e+001
8.389311e+002,8.871111e+001
8.398953e+002,8.477924e+001
8.408596e+002,8.237895e+001
8.418238e+002,8.058702e+001
8.427880e+002,7.842833e+001
8.437523e+002,7.588118e+001
8.447165e+002,7.317869e+001
8.456807e+002,6.998478e+001
8.466450e+002,6.707797e+001
8.476092e+002,6.496016e+001
8.485734e+002,6.323402e+001
8.495377e+002,6.100179e+001
8.505019e+002,5.761299e+001
8.514661e+002,5.427724e+001
8.524304e+002,5.272991e+001
8.533946e+002,5.224053e+001
8.543588e+002,5.184129e+001
8.553231e+002,5.113787e+001
8.562873e+002,5.028788e+001
8.572515e+002,4.963755e+001
8.582158e+002,4.924672e+001
8.591800e+002,4.888511e+001
8.601442e+002,4.817956e+001
8.611085e+002,4.774021e+001
8.620727e+002,4.850307e+001
8.630369e+002,5.034018e+001
8.640012e+002,5.098404e+001
8.649654e+002,4.794850e+001
8.659296e+002,4.557780e+001
8.668939e+002,4.640637e+001
8.678581e+002,4.882867e+001
8.688223e+002,5.064462e+001
8.697866e+002,5.070374e+001
8.707508e+002,4.969013e+001
8.717150e+002,4.862967e+001
8.726793e+002,4.765269e+001
8.736435e+002,4.778506e+001
8.746077e+002,4.956353e+001
8.755720e+002,5.138076e+001
8.765362e+002,5.092318e+001
8.775004e+002,4.751255e+001
8.784647e+002,4.479276e+001
8.794289e+002,4.281592e+001
8.803931e+002,4.142197e+001
8.813574e+002,4.090873e+001
8.823216e+002,4.087207e+001
8.832858e+002,4.066072e+001
8.842501e+002,4.007545e+001
8.852143e+002,3.914574e+001
8.861785e+002,3.734899e+001
8.871428e+002,3.537272e+001
8.881070e+002,3.430165e+001
8.890712e+002,3.431287e+001
8.900355e+002,3.444936e+001
8.909997e+002,3.313071e+001
8.919639e+002,3.001826e+001
8.929282e+002,2.844123e+001
8.938924e+002,2.923968e+001
8.948566e+002,3.017280e+001
8.958209e+002,3.035607e+001
8.967851e+002,2.981724e+001
8.977493e+002,2.848693e+001
8.987136e+002,2.529954e+001
8.996778e+002,2.304072e+001
9.006420e+002,2.330398e+001
9.016063e+002,2.449631e+001
9.025705e+002,2.533626e+001
9.035347e+002,2.536859e+001
9.044990e+002,2.486492e+001
9.054632e+002,2.411932e+001
9.064274e+002,2.293686e+001
9.073917e+002,2.084768e+001
9.083559e+002,1.783744e+001
9.093201e+002,1.531486e+001
9.102844e+002,1.451456e+001
9.112486e+002,1.532546e+001
9.122128e+002,1.576217e+001
9.131771e+002,1.539367e+001
9.141413e+002,1.519517e+001
9.151055e+002,1.567319e+001
9.160698e+002,1.612351e+001
9.170340e+002,1.560784e+001
9.179982e+002,1.395088e+001
9.189625e+002,1.239636e+001
9.199267e+002,1.204795e+001
9.208909e+002,1.233419e+001
9.218552e+002,1.316054e+001
9.228194e+002,1.417034e+001
9.237836e+002,1.436308e+001
9.247479e+002,1.292592e+001
9.257121e+002,1.032064e+001
9.266763e+002,9.324579e+000
9.276406e+002,1.098166e+001
9.286048e+002,1.189647e+001
9.295690e+002,1.124989e+001
9.305333e+002,1.005189e+001
9.314975e+002,9.511554e+000
9.324617e+002,9.799707e+000
9.334260e+002,9.809314e+000
9.343902e+002,8.628199e+000
9.353545e+002,7.443372e+000
9.363187e+002,6.249060e+000
9.372830e+002,5.532275e+000
9.382472e+002,6.385821e+000
9.392114e+002,9.451385e+000
9.401757e+002,1.338496e+001
9.411399e+002,1.470604e+001
9.421041e+002,1.373261e+001
9.430684e+002,1.233423e+001
9.440326e+002,1.044337e+001
9.449968e+002,8.928040e+000
9.459611e+002,9.308624e+000
9.469253e+002,1.213585e+001
9.478895e+002,1.372593e+001
9.488538e+002,1.229218e+001
9.498180e+002,1.126926e+001
9.507822e+002,1.206011e+001
9.517465e+002,1.362450e+001
9.527107e+002,1.418243e+001
9.536749e+002,1.301227e+001
9.546392e+002,1.176484e+001
9.556034e+002,1.266777e+001
9.565676e+002,1.461242e+001
9.575319e+002,1.650900e+001
9.584961e+002,1.817788e+001
9.594603e+002,1.953508e+001
9.604246e+002,2.041607e+001
9.613888e+002,2.078804e+001
9.623530e+002,2.144340e+001
9.633173e+002,2.256694e+001
9.642815e+002,2.367785e+001
9.652457e+002,2.366843e+001
9.662100e+002,2.431423e+001
9.671742e+002,2.761754e+001
9.681384e+002,3.393571e+001
9.691027e+002,4.244250e+001
9.700669e+002,5.329966e+001
9.710311e+002,6.586870e+001
9.719954e+002,8.332670e+001
9.729596e+002,1.021084e+002
9.739238e+002,1.148045e+002
9.748881e+002,1.163961e+002
9.758523e+002,1.089172e+002
9.768165e+002,9.829146e+001
9.777808e+002,8.363756e+001
9.787450e+002,7.074135e+001
9.797092e+002,6.030449e+001
9.806735e+002,5.172794e+001
9.816377e+002,4.440833e+001
9.826019e+002,3.835801e+001
9.835662e+002,3.418041e+001
9.845304e+002,3.318584e+001
9.854946e+002,3.300005e+001
9.864589e+002,3.325665e+001
9.874231e+002,3.365610e+001
9.883873e+002,3.378540e+001
9.893516e+002,3.350867e+001
9.903158e+002,3.318395e+001
9.912800e+002,3.314942e+001
9.922443e+002,3.386010e+001
9.932085e+002,3.631129e+001
9.941727e+002,4.063087e+001
9.951370e+002,4.606140e+001
9.961012e+002,5.154815e+001
9.970654e+002,5.722373e+001
9.980297e+002,6.524548e+001
9.989939e+002,7.401524e+001
9.999581e+002,8.888748e+001
1.000922e+003,1.036762e+002
1.001887e+003,1.296094e+002
1.002851e+003,1.802407e+002
1.003815e+003,2.522689e+002
1.004779e+003,3.300638e+002
1.005744e+003,4.141029e+002
1.006708e+003,4.757587e+002
1.007672e+003,4.692646e+002
1.008636e+003,4.138615e+002
1.009600e+003,3.467913e+002
1.010565e+003,2.835512e+002
1.011529e+003,2.258470e+002
1.012493e+003,1.781235e+002
1.013457e+003,1.419581e+002
1.014422e+003,1.134563e+002
1.015386e+003,9.297887e+001
1.016350e+003,7.745261e+001
1.017314e+003,6.735240e+001
1.018279e+003,6.083649e+001
1.019243e+003,5.467492e+001
1.020207e+003,4.771897e+001
1.021171e+003,4.182548e+001
1.022135e+003,3.938163e+001
1.023100e+003,3.823438e+001
1.024064e+003,3.676506e+001
1.025028e+003,3.470382e+001
1.025992e+003,3.240992e+001
1.026957e+003,3.021320e+001
1.027921e+003,2.821059e+001
1.028885e+003,2.675002e+001
1.029849e+003,2.626583e+001
1.030814e+003,2.531310e+001
1.031778e+003,2.289003e+001
1.032742e+003,2.043632e+001
1.033706e+003,1.957734e+001
1.034671e+003,2.040763e+001
1.035635e+003,2.124570e+001
1.036599e+003,2.134915e+001
1.037563e+003,2.146446e+001
1.038527e+003,2.243919e+001
1.039492e+003,2.343913e+001
1.040456e+003,2.293656e+001
1.041420e+003,2.067804e+001
1.042384e+003,1.846129e+001
1.043349e+003,1.904931e+001
1.044313e+003,2.240668e+001
1.045277e+003,2.460367e+001
1.046241e+003,2.565342e+001
1.047206e+003,2.577612e+001
1.048170e+003,2.451331e+001
1.049134e+003,2.250496e+001
1.050098e+003,2.136691e+001
1.051063e+003,2.151184e+001
1.052027e+003,2.178797e+001
1.052991e+003,2.161724e+001
1.053955e+003,2.148674e+001
1.054919e+003,2.190745e+001
1.055884e+003,2.257501e+001
1.056848e+003,2.282111e+001
1.057812e+003,2.227612e+001
1.058776e+003,2.127862e+001
1.059741e+003,2.019193e+001
1.060705e+003,1.906987e+001
1.061669e+003,1.889969e+001
1.062633e+003,2.011668e+001
1.063598e+003,2.133141e+001
1.064562e+003,2.120210e+001
1.065526e+003,1.987872e+001
1.066490e+003,1.879525e+001
1.067454e+003,1.755633e+001
1.068419e+003,1.741934e+001
1.069383e+003,1.947581e+001
1.070347e+003,2.184802e+001
1.071311e+003,2.301855e+001
1.072276e+003,2.296512e+001
1.073240e+003,2.279094e+001
1.074204e+003,2.339017e+001
1.075168e+003,2.420310e+001
1.076133e+003,2.375068e+001
1.077097e+003,2.237109e+001
1.078061e+003,2.106902e+001
1.079025e+003,1.997011e+001
1.079990e+003,1.955698e+001
1.080954e+003,2.094673e+001
1.081918e+003,2.460726e+001
1.082882e+003,2.680371e+001
1.083846e+003,2.610349e+001
1.084811e+003,2.528531e+001
1.085775e+003,2.471292e+001
1.086739e+003,2.436454e+001
1.087703e+003,2.425414e+001
1.088668e+003,2.438391e+001
1.089632e+003,2.460028e+001
1.090596e+003,2.472827e+001
1.091560e+003,2.478289e+001
1.092525e+003,2.473936e+001
1.093489e+003,2.464107e+001
1.094453e+003,2.485997e+001
1.095417e+003,2.565566e+001
1.096381e+003,2.663686e+001
1.097346e+003,2.691046e+001
1.098310e+003,2.615856e+001
1.099274e+003,2.582253e+001
1.100238e+003,2.619980e+001
1.101203e+003,2.667694e+001
1.102167e+003,2.720631e+001
1.103131e+003,2.762133e+001
1.104095e+003,2.762367e+001
1.105060e+003,2.715051e+001
1.106024e+003,2.669298e+001
1.106988e+003,2.667434e+001
1.107952e+003,2.710897e+001
1.108917e+003,2.809367e+001
1.109881e+003,2.942429e+001
1.110845e+003,3.031503e+001
1.111809e+003,3.028443e+001
1.112773e+003,2.973735e+001
1.113738e+003,2.976599e+001
1.114702e+003,3.093158e+001
1.115666e+003,3.124026e+001
1.116630e+003,3.011373e+001
1.117595e+003,2.887354e+001
1.118559e+003,2.758615e+001
1.119523e+003,2.662934e+001
1.120487e+003,2.646719e+001
1.121452e+003,2.724523e+001
1.122416e+003,2.889834e+001
1.123380e+003,3.229893e+001
1.124344e+003,3.558073e+001
1.125308e+003,3.581671e+001
1.126273e+003,3.372075e+001
1.127237e+003,3.207799e+001
1.128201e+003,3.242175e+001
1.129165e+003,3.386909e+001
1.130130e+003,3.428917e+001
1.131094e+003,3.307659e+001
1.132058e+003,3.251976e+001
1.133022e+003,3.351333e+001
1.133987e+003,3.399178e+001
1.134951e+003,3.283615e+001
1.135915e+003,3.104550e+001
1.136879e+003,3.005798e+001
1.137844e+003,3.022610e+001
1.138808e+003,3.074375e+001
1.139772e+003,3.089977e+001
1.140736e+003,3.099157e+001
1.141700e+003,3.158294e+001
1.142665e+003,3.259089e+001
1.143629e+003,3.375011e+001
1.144593e+003,3.498244e+001
1.145557e+003,3.595317e+001
1.146522e+003,3.582414e+001
1.147486e+003,3.405087e+001
1.148450e+003,3.294596e+001
1.149414e+003,3.277018e+001
1.150379e+003,3.304436e+001
1.151343e+003,3.403602e+001
1.152307e+003,3.522803e+001
1.153271e+003,3.585213e+001
1.154235e+003,3.577616e+001
1.155200e+003,3.576592e+001
1.156164e+003,3.640231e+001
1.157128e+003,3.758338e+001
1.158092e+003,3.948649e+001
1.159057e+003,4.162607e+001
1.160021e+003,4.261553e+001
1.160985e+003,4.188586e+001
1.161949e+003,4.042999e+001
1.162914e+003,3.971159e+001
1.163878e+003,3.981618e+001
1.164842e+003,4.023557e+001
1.165806e+003,4.077924e+001
1.166771e+003,4.184687e+001
1.167735e+003,4.423476e+001
1.168699e+003,4.662877e+001
1.169663e+003,4.748902e+001
1.170627e+003,4.703072e+001
1.171592e+003,4.722302e+001
1.172556e+003,4.951662e+001
1.173520e+003,5.234867e+001
1.174484e+003,5.317777e+001
1.175449e+003,5.279560e+001
1.176413e+003,5.255901e+001
1.177377e+003,5.275692e+001
1.178341e+003,5.331718e+001
1.179306e+003,5.424297e+001
1.180270e+003,5.554863e+001
1.181234e+003,5.693657e+001
1.182198e+003,5.829674e+001
1.183162e+003,5.984766e+001
1.184127e+003,6.259734e+001
1.185091e+003,6.453368e+001
1.186055e+003,6.394307e+001
1.187019e+003,6.171198e+001
1.187984e+003,6.004285e+001
1.188948e+003,5.991002e+001
1.189912e+003,5.993435e+001
1.190876e+003,5.790288e+001
1.191841e+003,5.501596e+001
1.192805e+003,5.463752e+001
1.193769e+003,5.691228e+001
1.194733e+003,5.859088e+001
1.195698e+003,5.734629e+001
1.196662e+003,5.436656e+001
1.197626e+003,5.281513e+001
1.198590e+003,5.302761e+001
1.199554e+003,5.335049e+001
1.200519e+003,5.371505e+001
1.201483e+003,5.416430e+001
1.202447e+003,5.525640e+001
1.203411e+003,5.614433e+001
1.204376e+003,5.525967e+001
1.205340e+003,5.254057e+001
1.206304e+003,5.023454e+001
1.207268e+003,5.071350e+001
1.208233e+003,5.283703e+001
1.209197e+003,5.237526e+001
1.210161e+003,4.965018e+001
1.211125e+003,4.803177e+001
1.212089e+003,4.875630e+001
1.213054e+003,5.014727e+001
1.214018e+003,5.033883e+001
1.214982e+003,4.955460e+001
1.215946e+003,4.960308e+001
1.216911e+003,5.128471e+001
1.217875e+003,5.243940e+001
1.218839e+003,5.198415e+001
1.219803e+003,5.114828e+001
1.220768e+003,5.072173e+001
1.221732e+003,5.087613e+001
1.222696e+003,5.165536e+001
1.223660e+003,5.301295e+001
1.224625e+003,5.443023e+001
1.225589e+003,5.491733e+001
1.226553e+003,5.438462e+001
1.227517e+003,5.423507e+001
1.228481e+003,5.457662e+001
1.229446e+003,5.515331e+001
1.230410e+003,5.661912e+001
1.231374e+003,5.785759e+001
1.232338e+003,5.634209e+001
1.233303e+003,5.172944e+001
1.234267e+003,4.890323e+001
1.235231e+003,5.098024e+001
1.236195e+003,5.334806e+001
1.237160e+003,5.290785e+001
1.238124e+003,5.146394e+001
1.239088e+003,5.175587e+001
1.240052e+003,5.398213e+001
1.241016e+003,5.565844e+001
1.241981e+003,5.434438e+001
1.242945e+003,5.091724e+001
1.243909e+003,4.950323e+001
1.244873e+003,5.127071e+001
1.245838e+003,5.251836e+001
1.246802e+003,5.278930e+001
1.247766e+003,5.298793e+001
1.248730e+003,5.366646e+001
1.249695e+003,5.462999e+001
1.250659e+003,5.543539e+001
1.251623e+003,5.598650e+001
1.252587e+003,5.646010e+001
1.253552e+003,5.732204e+001
1.254516e+003,5.771964e+001
1.255480e+003,5.628792e+001
1.256444e+003,5.385436e+001
1.257408e+003,5.234389e+001
1.258373e+003,5.252082e+001
1.259337e+003,5.376857e+001
1.260301e+003,5.538634e+001
1.261265e+003,5.742630e+001
1.262230e+003,5.854829e+001
1.263194e+003,5.741857e+001
1.264158e+003,5.695853e+001
1.265122e+003,5.813525e+001
1.266087e+003,5.930788e+001
1.267051e+003,5.901374e+001
1.268015e+003,5.790627e+001
1.268979e+003,5.798634e+001
1.269943e+003,6.007159e+001
1.270908e+003,6.207017e+001
1.271872e+003,6.130355e+001
1.272836e+003,5.914747e+001
1.273800e+003,5.930394e+001
1.274765e+003,6.158943e+001
1.275729e+003,6.291075e+001
1.276693e+003,6.150217e+001
1.277657e+003,5.905154e+001
1.278622e+003,5.816637e+001
1.279586e+003,5.890282e+001
1.280550e+003,5.947017e+001
1.281514e+003,5.931720e+001
1.282479e+003,5.997900e+001
1.283443e+003,6.293612e+001
1.284407e+003,6.573618e+001
1.285371e+003,6.619190e+001
1.286335e+003,6.472749e+001
1.287300e+003,6.283485e+001
1.288264e+003,6.144804e+001
1.289228e+003,6.128465e+001
1.290192e+003,6.377100e+001
1.291157e+003,6.866002e+001
1.292121e+003,7.053860e+001
1.293085e+003,6.831071e+001
1.294049e+003,6.652322e+001
1.295014e+003,6.708839e+001
1.295978e+003,6.874221e+001
1.296942e+003,7.019605e+001
1.297906e+003,7.139120e+001
1.298870e+003,7.227949e+001
1.299835e+003,7.280815e+001
1.300799e+003,7.275732e+001
1.301763e+003,7.165486e+001
1.302727e+003,7.018994e+001
1.303692e+003,6.863696e+001
1.304656e+003,6.745708e+001
1.305620e+003,6.767826e+001
1.306584e+003,6.981492e+001
1.307549e+003,7.271181e+001
1.308513e+003,7.420027e+001
1.309477e+003,7.409494e+001
1.310441e+003,7.356097e+001
1.311406e+003,7.150378e+001
1.312370e+003,7.073334e+001
1.313334e+003,7.255230e+001
1.314298e+003,7.505721e+001
1.315263e+003,7.699855e+001
1.316227e+003,7.816444e+001
1.317191e+003,7.839175e+001
1.318155e+003,7.753371e+001
1.319120e+003,7.644930e+001
1.320084e+003,7.610975e+001
1.321048e+003,7.614434e+001
1.322012e+003,7.554803e+001
1.322976e+003,7.440282e+001
1.323941e+003,7.408568e+001
1.324905e+003,7.559541e+001
1.325869e+003,7.765126e+001
1.326833e+003,7.829504e+001
1.327798e+003,7.750540e+001
1.328762e+003,7.642866e+001
1.329726e+003,7.418671e+001
1.330690e+003,7.347675e+001
1.331655e+003,7.637175e+001
1.332619e+003,7.954015e+001
1.333583e+003,8.100384e+001
1.334547e+003,8.085752e+001
1.335511e+003,7.944633e+001
1.336476e+003,7.716609e+001
1.337440e+003,7.516408e+001
1.338404e+003,7.493287e+001
1.339368e+003,7.628422e+001
1.340333e+003,7.736723e+001
1.341297e+003,7.815547e+001
1.342261e+003,7.859683e+001
1.343225e+003,7.884126e+001
1.344190e+003,7.862971e+001
1.345154e+003,7.717122e+001
1.346118e+003,7.524664e+001
1.347082e+003,7.492973e+001
1.348047e+003,7.674515e+001
1.349011e+003,7.830048e+001
1.349975e+003,7.761030e+001
1.350939e+003,7.676041e+001
1.351903e+003,7.857616e+001
1.352868e+003,8.171970e+001
1.353832e+003,8.333012e+001
1.354796e+003,8.268398e+001
1.355760e+003,8.119035e+001
1.356725e+003,8.000745e+001
1.357689e+003,7.921160e+001
1.358653e+003,7.919291e+001
1.359617e+003,8.016328e+001
1.360582e+003,8.131377e+001
1.361546e+003,8.296216e+001
1.362510e+003,8.424400e+001
1.363474e+003,8.489716e+001
1.364438e+003,8.520509e+001
1.365403e+003,8.524152e+001
1.366367e+003,8.507918e+001
1.367331e+003,8.505405e+001
1.368295e+003,8.541454e+001
1.369260e+003,8.564641e+001
1.370224e+003,8.475381e+001
1.371188e+003,8.289100e+001
1.372152e+003,8.174133e+001
1.373117e+003,8.080687e+001
1.374081e+003,8.130492e+001
1.375045e+003,8.539361e+001
1.376009e+003,8.981211e+001
1.376974e+003,9.053506e+001
1.377938e+003,8.810918e+001
1.378902e+003,8.606715e+001
1.379866e+003,8.524736e+001
1.380830e+003,8.495683e+001
1.381795e+003,8.480642e+001
1.382759e+003,8.494489e+001
1.383723e+003,8.575788e+001
1.384687e+003,8.705338e+001
1.385652e+003,8.822251e+001
1.386616e+003,8.901963e+001
1.387580e+003,8.966354e+001
1.388544e+003,9.041287e+001
1.389509e+003,9.118487e+001
1.390473e+003,9.162498e+001
1.391437e+003,9.158873e+001
1.392401e+003,9.184599e+001
1.393365e+003,9.288394e+001
1.394330e+003,9.354587e+001
1.395294e+003,9.283675e+001
1.396258e+003,9.169331e+001
1.397222e+003,9.150236e+001
1.398187e+003,9.240199e+001
1.399151e+003,9.330217e+001
1.400115e+003,9.334794e+001
1.401079e+003,9.316786e+001
1.402044e+003,9.429443e+001
1.403008e+003,9.672254e+001
1.403972e+003,9.718530e+001
1.404936e+003,9.483864e+001
1.405901e+003,9.293069e+001
1.406865e+003,9.264308e+001
1.407829e+003,9.306968e+001
1.408793e+003,9.334727e+001
1.409757e+003,9.355392e+001
1.410722e+003,9.420482e+001
1.411686e+003,9.548303e+001
1.412650e+003,9.629717e+001
1.413614e+003,9.522314e+001
1.414579e+003,9.417185e+001
1.415543e+003,9.571275e+001
1.416507e+003,9.894483e+001
1.417471e+003,1.012360e+002
1.418436e+003,1.017207e+002
1.419400e+003,1.017698e+002
1.420364e+003,1.029212e+002
1.421328e+003,1.048560e+002
1.422292e+003,1.058905e+002
1.423257e+003,1.058228e+002
1.424221e+003,1.051840e+002
1.425185e+003,1.025641e+002
1.426149e+003,1.010384e+002
1.427114e+003,1.027303e+002
1.428078e+003,1.053085e+002
1.429042e+003,1.061828e+002
1.430006e+003,1.056004e+002
1.430971e+003,1.055723e+002
1.431935e+003,1.071275e+002
1.432899e+003,1.091166e+002
1.433863e+003,1.098539e+002
1.434828e+003,1.095617e+002
1.435792e+003,1.103427e+002
1.436756e+003,1.132327e+002
1.437720e+003,1.143608e+002
1.438684e+003,1.119645e+002
1.439649e+003,1.097988e+002
1.440613e+003,1.105576e+002
1.441577e+003,1.127157e+002
1.442541e+003,1.135252e+002
1.443506e+003,1.125163e+002
1.444470e+003,1.109389e+002
1.445434e+003,1.093511e+002
1.446398e+003,1.084167e+002
1.447363e+003,1.093861e+002
1.448327e+003,1.115310e+002
1.449291e+003,1.131648e+002
1.450255e+003,1.142100e+002
1.451219e+003,1.148297e+002
1.452184e+003,1.149002e+002
1.453148e+003,1.147159e+002
1.454112e+003,1.145885e+002
1.455076e+003,1.145201e+002
1.456041e+003,1.144655e+002
1.457005e+003,1.141980e+002
1.457969e+003,1.151664e+002
1.458933e+003,1.197299e+002
1.459898e+003,1.238295e+002
1.460862e+003,1.241515e+002
1.461826e+003,1.226173e+002
1.462790e+003,1.225066e+002
1.463755e+003,1.242023e+002
1.464719e+003,1.252998e+002
1.465683e+003,1.239677e+002
1.466647e+003,1.216419e+002
1.467611e+003,1.218003e+002
1.468576e+003,1.249484e+002
1.469540e+003,1.264323e+002
1.470504e+003,1.246066e+002
1.471468e+003,1.237773e+002
1.472433e+003,1.253473e+002
1.473397e+003,1.271198e+002
1.474361e+003,1.281346e+002
1.475325e+003,1.282737e+002
1.476290e+003,1.270249e+002
1.477254e+003,1.246753e+002
1.478218e+003,1.230028e+002
1.479182e+003,1.234966e+002
1.480146e+003,1.254457e+002
1.481111e+003,1.273015e+002
1.482075e+003,1.291290e+002
1.483039e+003,1.291277e+002
1.484003e+003,1.259056e+002
1.484968e+003,1.233436e+002
1.485932e+003,1.225646e+002
1.486896e+003,1.227136e+002
1.487860e+003,1.233587e+002
1.488825e+003,1.241177e+002
1.489789e+003,1.242406e+002
1.490753e+003,1.236392e+002
1.491717e+003,1.236545e+002
1.492682e+003,1.256052e+002
1.493646e+003,1.277338e+002
1.494610e+003,1.263190e+002
1.495574e+003,1.226629e+002
1.496538e+003,1.211494e+002
1.497503e+003,1.224969e+002
1.498467e+003,1.240259e+002
1.499431e+003,1.245358e+002
1.500395e+003,1.242790e+002
1.501360e+003,1.232334e+002
1.502324e+003,1.217856e+002
1.503288e+003,1.216486e+002
1.504252e+003,1.232886e+002
1.505217e+003,1.245837e+002
1.506181e+003,1.245190e+002
1.507145e+003,1.238198e+002
1.508109e+003,1.228808e+002
1.509073e+003,1.219124e+002
1.510038e+003,1.211423e+002
1.511002e+003,1.206414e+002
1.511966e+003,1.206199e+002
1.512930e+003,1.213384e+002
1.513895e+003,1.222695e+002
1.514859e+003,1.223133e+002
1.515823e+003,1.213825e+002
1.516787e+003,1.206599e+002
1.517752e+003,1.205006e+002
1.518716e+003,1.201092e+002
1.519680e+003,1.191652e+002
1.520644e+003,1.178461e+002
1.521609e+003,1.156400e+002
1.522573e+003,1.134783e+002
1.523537e+003,1.124127e+002
1.524501e+003,1.126392e+002
1.525465e+003,1.140804e+002
1.526430e+003,1.165143e+002
1.527394e+003,1.186382e+002
1.528358e+003,1.183817e+002
1.529322e+003,1.159570e+002
1.530287e+003,1.150882e+002
1.531251e+003,1.172575e+002
1.532215e+003,1.182636e+002
1.533179e+003,1.170304e+002
1.534144e+003,1.158380e+002
1.535108e+003,1.157549e+002
1.536072e+003,1.159518e+002
1.537036e+003,1.154274e+002
1.538000e+003,1.143440e+002
1.538965e+003,1.135746e+002
1.539929e+003,1.134525e+002
1.540893e+003,1.134288e+002
1.541857e+003,1.129728e+002
1.542822e+003,1.121625e+002
1.543786e+003,1.107820e+002
1.544750e+003,1.081155e+002
1.545714e+003,1.071614e+002
1.546679e+003,1.096706e+002
1.547643e+003,1.113396e+002
1.548607e+003,1.103465e+002
1.549571e+003,1.084572e+002
1.550536e+003,1.070393e+002
1.551500e+003,1.060955e+002
1.552464e+003,1.052669e+002
1.553428e+003,1.045636e+002
1.554392e+003,1.045783e+002
1.555357e+003,1.058884e+002
1.556321e+003,1.074854e+002
1.557285e+003,1.073561e+002
1.558249e+003,1.056404e+002
1.559214e+003,1.044239e+002
1.560178e+003,1.038895e+002
1.561142e+003,1.035065e+002
1.562106e+003,1.035017e+002
1.563071e+003,1.029683e+002
1.564035e+003,1.005023e+002
1.564999e+003,9.726485e+001
1.565963e+003,9.584118e+001
1.566927e+003,9.656120e+001
1.567892e+003,9.804668e+001
1.568856e+003,9.999836e+001
1.569820e+003,1.012730e+002
1.570784e+003,1.001204e+002
1.571749e+003,9.744916e+001
1.572713e+003,9.533186e+001
1.573677e+003,9.388028e+001
1.574641e+003,9.335532e+001
1.575606e+003,9.416743e+001
1.576570e+003,9.505412e+001
1.577534e+003,9.513424e+001
1.578498e+003,9.467039e+001
1.579463e+003,9.417759e+001
1.580427e+003,9.360038e+001
1.581391e+003,9.216663e+001
1.582355e+003,8.940784e+001
1.583319e+003,8.686180e+001
1.584284e+003,8.553943e+001
1.585248e+003,8.514321e+001
1.586212e+003,8.549497e+001
1.587176e+003,8.609011e+001
1.588141e+003,8.568755e+001
1.589105e+003,8.412886e+001
1.590069e+003,8.313608e+001
1.591033e+003,8.415645e+001
1.591998e+003,8.573843e+001
1.592962e+003,8.599538e+001
1.593926e+003,8.496930e+001
1.594890e+003,8.254885e+001
1.595854e+003,7.834859e+001
1.596819e+003,7.570715e+001
1.597783e+003,7.688699e+001
1.598747e+003,7.818230e+001
1.599711e+003,7.624249e+001
1.600676e+003,7.320802e+001
1.601640e+003,7.161385e+001
1.602604e+003,7.153767e+001
1.603568e+003,7.224852e+001
1.604533e+003,7.354308e+001
1.605497e+003,7.393736e+001
1.606461e+003,7.137230e+001
1.607425e+003,6.711494e+001
1.608390e+003,6.468970e+001
1.609354e+003,6.420219e+001
1.610318e+003,6.401402e+001
1.611282e+003,6.382048e+001
1.612246e+003,6.371229e+001
1.613211e+003,6.394439e+001
1.614175e+003,6.407503e+001
1.615139e+003,6.404854e+001
1.616103e+003,6.372344e+001
1.617068e+003,6.255144e+001
1.618032e+003,6.065867e+001
1.618996e+003,5.927139e+001
1.619960e+003,5.910772e+001
1.620925e+003,5.930161e+001
1.621889e+003,5.884151e+001
1.622853e+003,5.777444e+001
1.623817e+003,5.607512e+001
1.624781e+003,5.364006e+001
1.625746e+003,5.155839e+001
1.626710e+003,4.976934e+001
1.627674e+003,4.868686e+001
1.628638e+003,4.910345e+001
1.629603e+003,4.961222e+001
1.630567e+003,4.899553e+001
1.631531e+003,4.765298e+001
1.632495e+003,4.651721e+001
1.633460e+003,4.587534e+001
1.634424e+003,4.560095e+001
1.635388e+003,4.567304e+001
1.636352e+003,4.566473e+001
1.637317e+003,4.462925e+001
1.638281e+003,4.265831e+001
1.639245e+003,4.137468e+001
1.640209e+003,4.088419e+001
1.641173e+003,4.075592e+001
1.642138e+003,4.106625e+001
1.643102e+003,4.157558e+001
1.644066e+003,4.293528e+001
1.645030e+003,4.378414e+001
1.645995e+003,4.236500e+001
1.646959e+003,3.934344e+001
1.647923e+003,3.630151e+001
1.648887e+003,3.387980e+001
1.649852e+003,3.296600e+001
1.650816e+003,3.467760e+001
1.651780e+003,3.748652e+001
1.652744e+003,3.806489e+001
1.653708e+003,3.649424e+001
1.654673e+003,3.516930e+001
1.655637e+003,3.417904e+001
1.656601e+003,3.354071e+001
1.657565e+003,3.357878e+001
1.658530e+003,3.359996e+001
1.659494e+003,3.356340e+001
1.660458e+003,3.303932e+001
1.661422e+003,3.092870e+001
1.662387e+003,2.796958e+001
1.663351e+003,2.653536e+001
1.664315e+003,2.737919e+001
1.665279e+003,2.846884e+001
1.666244e+003,2.806164e+001
1.667208e+003,2.685986e+001
1.668172e+003,2.611666e+001
1.669136e+003,2.581570e+001
1.670100e+003,2.622742e+001
1.671065e+003,2.769222e+001
1.672029e+003,2.842763e+001
1.672993e+003,2.785598e+001
1.673957e+003,2.652611e+001
1.674922e+003,2.385754e+001
1.675886e+003,2.127127e+001
1.676850e+003,2.079012e+001
1.677814e+003,2.187543e+001
1.678779e+003,2.234069e+001
1.679743e+003,2.150596e+001
1.680707e+003,2.021199e+001
1.681671e+003,1.896985e+001
1.682635e+003,1.780247e+001
1.683600e+003,1.662728e+001
1.684564e+003,1.555638e+001
1.685528e+003,1.529835e+001
1.686492e+003,1.601335e+001
1.687457e+003,1.633042e+001
1.688421e+003,1.549790e+001
1.689385e+003,1.478267e+001
1.690349e+003,1.549227e+001
1.691314e+003,1.669286e+001
1.692278e+003,1.767554e+001
1.693242e+003,1.814167e+001
1.694206e+003,1.694947e+001
1.695171e+003,1.363655e+001
1.696135e+003,1.096243e+001
1.697099e+003,1.112801e+001
1.698063e+003,1.236056e+001
1.699027e+003,1.243614e+001
1.699992e+003,1.172712e+001
1.700956e+003,1.126066e+001
1.701920e+003,1.113331e+001
1.702884e+003,1.139158e+001
1.703849e+003,1.224904e+001
1.704813e+003,1.267555e+001
1.705777e+003,1.160598e+001
1.706741e+003,9.918982e+000
1.707706e+003,9.008258e+000
1.708670e+003,8.751907e+000
1.709634e+003,8.718231e+000
1.710598e+003,8.920352e+000
1.711563e+003,8.889951e+000
1.712527e+003,8.275418e+000
1.713491e+003,7.512222e+000
1.714455e+003,6.900427e+000
1.715419e+003,6.426581e+000
1.716384e+003,5.863559e+000
1.717348e+003,5.350333e+000
1.718312e+003,5.980151e+000
1.719276e+003,8.092905e+000
1.720241e+003,9.186182e+000
1.721205e+003,7.132245e+000
1.722169e+003,4.136206e+000
1.723133e+003,4.004974e+000
1.724098e+003,6.287000e+000
1.725062e+003,6.897397e+000
1.726026e+003,5.304480e+000
1.726990e+003,4.257937e+000
1.727954e+003,4.609329e+000
1.728919e+003,5.030902e+000
1.729883e+003,4.935767e+000
1.730847e+003,4.638382e+000
1.731811e+003,4.403360e+000
1.732776e+003,4.251541e+000
1.733740e+003,4.271799e+000
1.734704e+003,4.390161e+000
1.735668e+003,4.042642e+000
1.736633e+003,2.902274e+000
1.737597e+003,1.812647e+000
1.738561e+003,1.945221e+000
1.739525e+003,3.035269e+000
1.740490e+003,3.750641e+000
1.741454e+003,4.062243e+000
1.742418e+003,4.001126e+000
1.743382e+003,2.983130e+000
1.744346e+003,2.477115e+000
1.745311e+003,3.653677e+000
1.746275e+003,4.347113e+000
1.747239e+003,2.320108e+000
1.748203e+003,-2.309051e-001
1.749168e+003,-1.992615e-001
1.750132e+003,1.956522e+000
1.751096e+003,3.701660e+000
1.752060e+003,4.017270e+000
1.753025e+003,3.869421e+000
1.753989e+003,4.177630e+000
1.754953e+003,4.424918e+000
1.755917e+003,3.196494e+000
1.756881e+003,4.406860e-001
1.757846e+003,-9.085876e-001
1.758810e+003,-3.057800e-001
1.759774e+003,2.372864e-001
1.760738e+003,2.499512e-001
1.761703e+003,3.478638e-001
1.762667e+003,1.140048e+000
1.763631e+003,1.742700e+000
1.764595e+003,1.241321e+000
1.765560e+003,1.608460e-001
1.766524e+003,-5.982788e-001
1.767488e+003,-8.792602e-001
1.768452e+003,-8.952698e-001
1.769417e+003,-7.132233e-001
1.770381e+003,-4.915924e-001
1.771345e+003,-4.704529e-001
1.772309e+003,-5.457184e-001
1.773273e+003,-4.045959e-001
1.774238e+003,-8.911743e-002
1.775202e+003,5.534973e-002
1.776166e+003,-3.834229e-002
1.777130e+003,4.529724e-002
1.778095e+003,7.153198e-001
1.779059e+003,1.100305e+000
1.780023e+003,-1.140167e-001
1.780987e+003,-1.708459e+000
1.781952e+003,-1.251556e+000
1.782916e+003,7.061096e-001
1.783880e+003,1.229935e+000
1.784844e+003,-4.531708e-001
1.785808e+003,-1.775418e+000
1.786773e+003,-1.526938e+000
1.787737e+003,-7.235443e-001
1.788701e+003,1.432892e-001
1.789665e+003,8.634491e-001
1.790630e+003,1.328339e+000
1.791594e+003,1.373636e+000
1.792558e+003,2.027985e-001
1.793522e+003,-2.199890e+000
1.794487e+003,-3.939841e+000
1.795451e+003,-3.817001e+000
1.796415e+003,-2.548523e+000
1.797379e+003,-9.106506e-001
1.798344e+003,7.547058e-001
1.799308e+003,7.786102e-001
1.800272e+003,-1.575909e+000
1.801236e+003,-2.799262e+000
1.802201e+003,-2.208829e+000
1.803165e+003,-1.576324e+000
1.804129e+003,-8.161560e-001
1.805093e+003,-4.610443e-001
1.806057e+003,-1.412775e+000
1.807022e+003,-2.467862e+000
1.807986e+003,-1.988470e+000
1.808950e+003,-4.807068e-001
1.809914e+003,4.629669e-001
1.810879e+003,3.781830e-001
1.811843e+003,-7.779541e-002
1.812807e+003,-4.413849e-001
1.813771e+003,-7.092316e-001
1.814736e+003,-8.718323e-001
1.815700e+003,-8.972351e-001
1.816664e+003,-6.424286e-001
1.817628e+003,-8.200683e-002
1.818593e+003,4.484253e-001
1.819557e+003,1.073914e+000
1.820521e+003,1.276822e+000
1.821485e+003,5.561523e-001
1.822449e+003,-2.594543e-001
1.823414e+003,-6.013886e-001
1.824378e+003,-7.194397e-001
1.825342e+003,-9.495575e-001
1.826306e+003,-1.191077e+000
1.827271e+003,-9.144135e-001
1.828235e+003,7.875977e-002
1.829199e+003,6.213531e-001
1.830163e+003,-3.160736e-001
1.831128e+003,-1.362735e+000
1.832092e+003,-1.194983e+000
1.833056e+003,-5.049591e-001
1.834020e+003,-3.399262e-001
1.834984e+003,-6.759461e-001
1.835949e+003,-1.342352e+000
1.836913e+003,-2.141257e+000
1.837877e+003,-1.943155e+000
1.838841e+003,-9.872437e-002
1.839806e+003,1.986078e+000
1.840770e+003,2.784134e+000
1.841734e+003,2.484174e+000
1.842698e+003,1.560410e+000
1.843663e+003,-1.464722e-001
1.844627e+003,-6.885163e-001
1.845591e+003,1.157584e+000
1.846555e+003,2.206860e+000
1.847520e+003,1.816553e+000
1.848484e+003,1.274002e+000
1.849448e+003,1.044492e+000
1.850412e+003,9.493103e-001
1.851376e+003,6.514069e-001
1.852341e+003,4.181427e-001
1.853305e+003,7.823273e-001
1.854269e+003,1.693451e+000
1.855233e+003,2.780026e+000
1.856198e+003,3.845941e+000
1.857162e+003,4.276147e+000
1.858126e+003,3.245492e+000
1.859090e+003,1.542880e+000
1.860055e+003,6.731598e-001
1.861019e+003,5.235474e-001
1.861983e+003,6.810486e-001
1.862947e+003,1.146170e+000
1.863911e+003,1.573691e+000
1.864876e+003,1.920944e+000
1.865840e+003,2.158884e+000
1.866804e+003,2.300153e+000
1.867768e+003,2.193967e+000
1.868733e+003,1.078000e+000
1.869697e+003,-2.255707e-001
1.870661e+003,1.177753e+000
1.871625e+003,5.305191e+000
1.872590e+003,7.754016e+000
1.873554e+003,7.291516e+000
1.874518e+003,6.723645e+000
1.875482e+003,7.087332e+000
1.876447e+003,7.276135e+000
1.877411e+003,6.601031e+000
1.878375e+003,5.431403e+000
1.879339e+003,3.440173e+000
1.880303e+003,1.547363e+000
1.881268e+003,2.117877e+000
1.882232e+003,4.956424e+000
1.883196e+003,6.810193e+000
1.884160e+003,5.982129e+000
1.885125e+003,4.264053e+000
1.886089e+003,3.606101e+000
1.887053e+003,3.724783e+000
1.888017e+003,3.832977e+000
1.888982e+003,3.931433e+000
1.889946e+003,5.062018e+000
1.890910e+003,7.642828e+000
1.891874e+003,9.145584e+000
1.892839e+003,8.848196e+000
1.893803e+003,7.929114e+000
1.894767e+003,6.377210e+000
1.895731e+003,5.116449e+000
1.896695e+003,5.121414e+000
1.897660e+003,5.864966e+000
1.898624e+003,6.753793e+000
1.899588e+003,7.645273e+000
1.900552e+003,7.701434e+000
1.901517e+003,6.444486e+000
1.902481e+003,5.457370e+000
1.903445e+003,5.467023e+000
1.904409e+003,5.880445e+000
1.905374e+003,6.425986e+000
1.906338e+003,7.113437e+000
1.907302e+003,8.335348e+000
1.908266e+003,9.471768e+000
1.909230e+003,9.035357e+000
1.910195e+003,7.181643e+000
1.911159e+003,5.424808e+000
1.912123e+003,4.583585e+000
1.913087e+003,5.220129e+000
1.914052e+003,7.979541e+000
1.915016e+003,1.116465e+001
1.915980e+003,1.104881e+001
1.916944e+003,7.947085e+000
1.917909e+003,6.025995e+000
1.918873e+003,5.398166e+000
1.919837e+003,5.527100e+000
1.920801e+003,6.886694e+000
1.921766e+003,7.449057e+000
1.922730e+003,5.640021e+000
1.923694e+003,4.072992e+000
1.924658e+003,5.366595e+000
1.925622e+003,7.451779e+000
1.926587e+003,7.755548e+000
1.927551e+003,6.726730e+000
1.928515e+003,6.054513e+000
1.929479e+003,5.965433e+000
1.930444e+003,5.691495e+000
1.931408e+003,4.838568e+000
1.932372e+003,3.969852e+000
1.933336e+003,3.129587e+000
1.934301e+003,2.617676e+000
1.935265e+003,2.633221e+000
1.936229e+003,3.185736e+000
1.937193e+003,4.678092e+000
1.938157e+003,6.571195e+000
1.939122e+003,7.581399e+000
1.940086e+003,7.443640e+000
1.941050e+003,6.747067e+000
1.942014e+003,5.869678e+000
1.942979e+003,5.259488e+000
1.943943e+003,5.514737e+000
1.944907e+003,6.385187e+000
1.945871e+003,7.313498e+000
1.946836e+003,8.291916e+000
1.947800e+003,8.568631e+000
1.948764e+003,8.011685e+000
1.949728e+003,7.392962e+000
1.950693e+003,6.723783e+000
1.951657e+003,6.530673e+000
1.952621e+003,7.317090e+000
1.953585e+003,8.299234e+000
1.954549e+003,8.836514e+000
1.955514e+003,8.950086e+000
1.956478e+003,8.506968e+000
1.957442e+003,7.565820e+000
1.958406e+003,7.076089e+000
1.959371e+003,7.147049e+000
1.960335e+003,7.376547e+000
1.961299e+003,7.915991e+000
1.962263e+003,8.358179e+000
1.963228e+003,8.338559e+000
1.964192e+003,8.394098e+000
1.965156e+003,9.014026e+000
1.966120e+003,9.842661e+000
1.967084e+003,1.064477e+001
1.968049e+003,1.121196e+001
1.969013e+003,1.094634e+001
1.969977e+003,9.914190e+000
1.970941e+003,9.499682e+000
1.971906e+003,1.057472e+001
1.972870e+003,1.167557e+001
1.973834e+003,1.107745e+001
1.974798e+003,9.705191e+000
1.975763e+003,9.164630e+000
1.976727e+003,9.134912e+000
1.977691e+003,8.452072e+000
1.978655e+003,7.267523e+000
1.979620e+003,7.409039e+000
1.980584e+003,9.246649e+000
1.981548e+003,1.053024e+001
1.982512e+003,1.001853e+001
1.983476e+003,8.895758e+000
1.984441e+003,8.323446e+000
1.985405e+003,8.360721e+000
1.986369e+003,9.324219e+000
1.987333e+003,1.119240e+001
1.988298e+003,1.125123e+001
1.989262e+003,8.345462e+000
1.990226e+003,6.842429e+000
1.991190e+003,7.504684e+000
1.992155e+003,8.489792e+000
1.993119e+003,9.956058e+000
1.994083e+003,1.092246e+001
1.995047e+003,1.040389e+001
1.996011e+003,9.494665e+000
1.996976e+003,9.175082e+000
1.997940e+003,9.441534e+000
1.998904e+003,1.046236e+001
1.999868e+003,1.216171e+001
2.000833e+003,1.276033e+001
2.001797e+003,1.103369e+001
2.002761e+003,1.013603e+001
2.003725e+003,1.245771e+001
2.004690e+003,1.462393e+001
2.005654e+003,1.425477e+001
2.006618e+003,1.284731e+001
2.007582e+003,1.161971e+001
2.008547e+003,1.079807e+001
2.009511e+003,1.049095e+001
2.010475e+003,1.063392e+001
2.011439e+003,1.115901e+001
2.012403e+003,1.191259e+001
2.013368e+003,1.228998e+001
2.014332e+003,1.186347e+001
2.015296e+003,1.087746e+001
2.016260e+003,9.134204e+000
2.017225e+003,7.438611e+000
2.018189e+003,8.175421e+000
2.019153e+003,1.058408e+001
2.020117e+003,1.147130e+001
2.021082e+003,1.073564e+001
2.022046e+003,1.035823e+001
2.023010e+003,1.086123e+001
2.023974e+003,1.143848e+001
2.024938e+003,1.165044e+001
2.025903e+003,1.147802e+001
2.026867e+003,1.088603e+001
2.027831e+003,9.994528e+000
2.028795e+003,9.053006e+000
2.029760e+003,8.111249e+000
2.030724e+003,7.738883e+000
2.031688e+003,8.083532e+000
2.032652e+003,8.249524e+000
2.033617e+003,8.180768e+000
2.034581e+003,8.009677e+000
2.035545e+003,7.453668e+000
2.036509e+003,7.415710e+000
2.037474e+003,9.112457e+000
2.038438e+003,1.075350e+001
2.039402e+003,9.949621e+000
2.040366e+003,7.925552e+000
2.041330e+003,7.465066e+000
2.042295e+003,8.600241e+000
2.043259e+003,9.632419e+000
2.044223e+003,1.061370e+001
2.045187e+003,1.089967e+001
2.046152e+003,9.509519e+000
2.047116e+003,8.569992e+000
2.048080e+003,9.450989e+000
2.049044e+003,1.038386e+001
2.050009e+003,1.003864e+001
2.050973e+003,9.147547e+000
2.051937e+003,8.456461e+000
2.052901e+003,8.117685e+000
2.053865e+003,8.209689e+000
2.054830e+003,8.652044e+000
2.055794e+003,9.120749e+000
2.056758e+003,9.498343e+000
2.057722e+003,9.700391e+000
2.058687e+003,9.502011e+000
2.059651e+003,9.328461e+000
2.060615e+003,9.728638e+000
2.061579e+003,1.023319e+001
2.062544e+003,1.024470e+001
2.063508e+003,9.922305e+000
2.064472e+003,9.584058e+000
2.065436e+003,9.265140e+000
2.066401e+003,8.730673e+000
2.067365e+003,8.032175e+000
2.068329e+003,8.009659e+000
2.069293e+003,9.183347e+000
2.070258e+003,1.042906e+001
2.071222e+003,1.034717e+001
2.072186e+003,9.622721e+000
2.073150e+003,9.711225e+000
2.074115e+003,1.043805e+001
2.075079e+003,1.122083e+001
2.076043e+003,1.193032e+001
2.077007e+003,1.171370e+001
2.077971e+003,1.052947e+001
2.078936e+003,9.954300e+000
2.079900e+003,1.057015e+001
2.080864e+003,1.089787e+001
2.081828e+003,9.809015e+000
2.082792e+003,8.661493e+000
2.083757e+003,9.449041e+000
2.084721e+003,1.146015e+001
2.085685e+003,1.216578e+001
2.086649e+003,1.151953e+001
2.087614e+003,1.124608e+001
2.088578e+003,1.150434e+001
2.089542e+003,1.132985e+001
2.090506e+003,1.040190e+001
2.091471e+003,9.530286e+000
2.092435e+003,8.773541e+000
2.093399e+003,8.796741e+000
2.094363e+003,1.055629e+001
2.095328e+003,1.253224e+001
2.096292e+003,1.258988e+001
2.097256e+003,1.127295e+001
2.098220e+003,1.052400e+001
2.099185e+003,1.041965e+001
2.100149e+003,1.060249e+001
2.101113e+003,1.104847e+001
2.102077e+003,1.173910e+001
2.103042e+003,1.365703e+001
2.104006e+003,1.438500e+001
2.104970e+003,1.184907e+001
2.105934e+003,9.847934e+000
2.106898e+003,1.143985e+001
2.107863e+003,1.365760e+001
2.108827e+003,1.326335e+001
2.109791e+003,1.123133e+001
2.110755e+003,9.580945e+000
2.111719e+003,8.489716e+000
2.112684e+003,8.459979e+000
2.113648e+003,1.014094e+001
2.114612e+003,1.126265e+001
2.115576e+003,1.072909e+001
2.116541e+003,1.038509e+001
2.117505e+003,1.122356e+001
2.118469e+003,1.208789e+001
2.119433e+003,1.223522e+001
2.120398e+003,1.206749e+001
2.121362e+003,1.208272e+001
2.122326e+003,1.205458e+001
2.123290e+003,1.105003e+001
2.124255e+003,9.482864e+000
2.125219e+003,9.930987e+000
2.126183e+003,1.335121e+001
2.127147e+003,1.535947e+001
2.128112e+003,1.252424e+001
2.129076e+003,1.007851e+001
2.130040e+003,1.145163e+001
2.131004e+003,1.362851e+001
2.131969e+003,1.463359e+001
2.132933e+003,1.470890e+001
2.133897e+003,1.396687e+001
2.134861e+003,1.289729e+001
2.135825e+003,1.194756e+001
2.136790e+003,1.134714e+001
2.137754e+003,1.162963e+001
2.138718e+003,1.285577e+001
2.139682e+003,1.376336e+001
2.140646e+003,1.349788e+001
2.141611e+003,1.323965e+001
2.142575e+003,1.428809e+001
2.143539e+003,1.538461e+001
2.144503e+003,1.508295e+001
2.145468e+003,1.427665e+001
2.146432e+003,1.434010e+001
2.147396e+003,1.475878e+001
2.148360e+003,1.394781e+001
2.149325e+003,1.234160e+001
2.150289e+003,1.222131e+001
2.151253e+003,1.395403e+001
2.152217e+003,1.518600e+001
2.153182e+003,1.458972e+001
2.154146e+003,1.381567e+001
2.155110e+003,1.451184e+001
2.156074e+003,1.568798e+001
2.157039e+003,1.612819e+001
2.158003e+003,1.606967e+001
2.158967e+003,1.590576e+001
2.159931e+003,1.566088e+001
2.160896e+003,1.514671e+001
2.161860e+003,1.452313e+001
2.162824e+003,1.432863e+001
2.163788e+003,1.463263e+001
2.164752e+003,1.513636e+001
2.165717e+003,1.563470e+001
2.166681e+003,1.559233e+001
2.167645e+003,1.436368e+001
2.168609e+003,1.316643e+001
2.169573e+003,1.430022e+001
2.170538e+003,1.628609e+001
2.171502e+003,1.604333e+001
2.172466e+003,1.435553e+001
2.173430e+003,1.285555e+001
2.174395e+003,1.190184e+001
2.175359e+003,1.218191e+001
2.176323e+003,1.351262e+001
2.177287e+003,1.462640e+001
2.178252e+003,1.496261e+001
2.179216e+003,1.459865e+001
2.180180e+003,1.359279e+001
2.181144e+003,1.266377e+001
2.182109e+003,1.269224e+001
2.183073e+003,1.327741e+001
2.184037e+003,1.406478e+001
2.185001e+003,1.465375e+001
2.185966e+003,1.337545e+001
2.186930e+003,1.115924e+001
2.187894e+003,1.149727e+001
2.188858e+003,1.413770e+001
2.189823e+003,1.555276e+001
2.190787e+003,1.482563e+001
2.191751e+003,1.376332e+001
2.192715e+003,1.343284e+001
2.193679e+003,1.363619e+001
2.194644e+003,1.422938e+001
2.195608e+003,1.476843e+001
2.196572e+003,1.424645e+001
2.197536e+003,1.328851e+001
2.198500e+003,1.388462e+001
2.199465e+003,1.523629e+001
2.200429e+003,1.459811e+001
2.201393e+003,1.240243e+001
2.202357e+003,1.113064e+001
2.203322e+003,1.117404e+001
2.204286e+003,1.157064e+001
2.205250e+003,1.191542e+001
2.206214e+003,1.234181e+001
2.207179e+003,1.294752e+001
2.208143e+003,1.356702e+001
2.209107e+003,1.392480e+001
2.210071e+003,1.433416e+001
2.211036e+003,1.553073e+001
2.212000e+003,1.714764e+001
2.212964e+003,1.852348e+001
2.213928e+003,1.943464e+001
2.214893e+003,1.917306e+001
2.215857e+003,1.802996e+001
2.216821e+003,1.696584e+001
2.217785e+003,1.636650e+001
2.218750e+003,1.672777e+001
2.219714e+003,1.820365e+001
2.220678e+003,2.002459e+001
2.221642e+003,2.165593e+001
2.222606e+003,2.288335e+001
2.223571e+003,2.297803e+001
2.224535e+003,2.283621e+001
2.225499e+003,2.445756e+001
2.226463e+003,2.687863e+001
2.227427e+003,2.817723e+001
2.228392e+003,2.847210e+001
2.229356e+003,2.793664e+001
2.230320e+003,2.719605e+001
2.231284e+003,2.832574e+001
2.232249e+003,3.143192e+001
2.233213e+003,3.361167e+001
2.234177e+003,3.344254e+001
2.235141e+003,3.327632e+001
2.236106e+003,3.509666e+001
2.237070e+003,3.799305e+001
2.238034e+003,4.139265e+001
2.238998e+003,4.462429e+001
2.239963e+003,4.666882e+001
2.240927e+003,4.803246e+001
2.241891e+003,4.933271e+001
2.242855e+003,5.086466e+001
2.243820e+003,5.299888e+001
2.244784e+003,5.570803e+001
2.245748e+003,5.891055e+001
2.246712e+003,6.239444e+001
2.247677e+003,6.523267e+001
2.248641e+003,6.694421e+001
2.249605e+003,6.866533e+001
2.250569e+003,7.147707e+001
2.251533e+003,7.427354e+001
2.252498e+003,7.653304e+001
2.253462e+003,7.771879e+001
2.254426e+003,7.682533e+001
2.255390e+003,7.490004e+001
2.256354e+003,7.337617e+001
2.257319e+003,7.188808e+001
2.258283e+003,6.921166e+001
2.259247e+003,6.566411e+001
2.260211e+003,6.276669e+001
2.261176e+003,6.086290e+001
2.262140e+003,5.896012e+001
2.263104e+003,5.669787e+001
2.264068e+003,5.386819e+001
2.265033e+003,5.006385e+001
2.265997e+003,4.606066e+001
2.266961e+003,4.162075e+001
2.267925e+003,3.792886e+001
2.268890e+003,3.656221e+001
2.269854e+003,3.584649e+001
2.270818e+003,3.379813e+001
2.271782e+003,3.115034e+001
2.272747e+003,2.961744e+001
2.273711e+003,2.896399e+001
2.274675e+003,2.744767e+001
2.275639e+003,2.471686e+001
2.276604e+003,2.239337e+001
2.277568e+003,2.076223e+001
2.278532e+003,1.985728e+001
2.279496e+003,2.049164e+001
2.280460e+003,2.059053e+001
2.281425e+003,1.909078e+001
2.282389e+003,1.724494e+001
2.283353e+003,1.533923e+001
2.284317e+003,1.394305e+001
2.285281e+003,1.407482e+001
2.286246e+003,1.474849e+001
2.287210e+003,1.391870e+001
2.288174e+003,1.194513e+001
2.289138e+003,1.147376e+001
2.290103e+003,1.302951e+001
2.291067e+003,1.370439e+001
2.292031e+003,1.332881e+001
2.292995e+003,1.237997e+001
2.293960e+003,9.980743e+000
2.294924e+003,8.626966e+000
2.295888e+003,9.188049e+000
2.296852e+003,1.045403e+001
2.297817e+003,1.251561e+001
2.298781e+003,1.384377e+001
2.299745e+003,1.276649e+001
2.300709e+003,1.061795e+001
2.301674e+003,9.638407e+000
2.302638e+003,9.502411e+000
2.303602e+003,8.551874e+000
2.304566e+003,6.635669e+000
2.305531e+003,5.999682e+000
2.306495e+003,6.927609e+000
2.307459e+003,7.118063e+000
2.308423e+003,6.197202e+000
2.309387e+003,5.959754e+000
2.310352e+003,6.912503e+000
2.311316e+003,7.971063e+000
2.312280e+003,8.658331e+000
2.313244e+003,8.870941e+000
2.314208e+003,8.467356e+000
2.315173e+003,7.773496e+000
2.316137e+003,7.333084e+000
2.317101e+003,6.903952e+000
2.318065e+003,5.361429e+000
2.319030e+003,3.344223e+000
2.319994e+003,3.927438e+000
2.320958e+003,6.319345e+000
2.321922e+003,7.038318e+000
2.322887e+003,6.167276e+000
2.323851e+003,5.866135e+000
2.324815e+003,6.437445e+000
2.325779e+003,6.741385e+000
2.326744e+003,6.344104e+000
2.327708e+003,5.617618e+000
2.328672e+003,4.775195e+000
2.329636e+003,3.985278e+000
2.330601e+003,3.460809e+000
2.331565e+003,3.008551e+000
2.332529e+003,2.111514e+000
2.333493e+003,1.457330e+000
2.334458e+003,2.399560e+000
2.335422e+003,3.661197e+000
2.336386e+003,3.364362e+000
2.337350e+003,2.130783e+000
2.338314e+003,1.137259e+000
2.339279e+003,5.738922e-001
2.340243e+003,3.824219e-001
2.341207e+003,4.554291e-001
2.342171e+003,1.800385e-001
2.343135e+003,-8.354980e-001
2.344100e+003,-1.177112e+000
2.345064e+003,5.073425e-001
2.346028e+003,1.671368e+000
2.346992e+003,1.137012e+000
2.347957e+003,3.459259e-001
2.348921e+003,3.499878e-001
2.349885e+003,-5.530701e-002
2.350849e+003,-3.127158e+000
2.351814e+003,-6.073855e+000
2.352778e+003,-4.368772e+000
2.353742e+003,-2.771057e-001
2.354706e+003,4.020599e-001
2.355671e+003,-2.012491e+000
2.356635e+003,-3.490686e+000
2.357599e+003,-3.965347e+000
2.358563e+003,-3.810553e+000
2.359528e+003,-2.743900e+000
2.360492e+003,-2.006540e+000
2.361456e+003,-1.704510e+000
2.362420e+003,-1.796695e+000
2.363385e+003,-2.349243e+000
2.364349e+003,-3.046420e+000
2.365313e+003,-3.797836e+000
2.366277e+003,-4.004553e+000
2.367241e+003,-3.025571e+000
2.368206e+003,-1.865390e+000
2.369170e+003,-2.271347e+000
2.370134e+003,-3.485913e+000
2.371098e+003,-3.100757e+000
2.372063e+003,-1.614102e+000
2.373027e+003,-1.127985e+000
2.373991e+003,-1.370575e+000
2.374955e+003,-1.113248e+000
2.375919e+003,-5.458710e-001
2.376884e+003,-1.202860e+000
2.377848e+003,-2.876639e+000
2.378812e+003,-3.077844e+000
2.379776e+003,-1.251666e+000
2.380741e+003,6.707764e-003
2.381705e+003,-7.444031e-001
2.382669e+003,-1.932623e+000
2.383633e+003,-2.796869e+000
2.384598e+003,-2.879123e+000
2.385562e+003,-7.604675e-001
2.386526e+003,9.676574e-001
2.387490e+003,-3.924896e-001
2.388455e+003,-2.513745e+000
2.389419e+003,-3.191177e+000
2.390383e+003,-3.108844e+000
2.391347e+003,-3.581512e+000
2.392312e+003,-4.193372e+000
2.393276e+003,-3.345865e+000
2.394240e+003,-1.262781e+000
2.395204e+003,-7.627045e-001
2.396168e+003,-2.665009e+000
2.397133e+003,-3.636325e+000
2.398097e+003,-3.371500e+000
2.399061e+003,-2.398251e+000
2.400025e+003,1.349915e-001
2.400990e+003,1.423297e+000
2.401954e+003,3.231323e-001
2.402918e+003,-8.919037e-001
2.403882e+003,-1.285458e+000
2.404846e+003,-1.028803e+000
2.405811e+003,-1.304535e-001
2.406775e+003,9.361297e-001
2.407739e+003,1.522720e+000
2.408703e+003,1.543640e+000
2.409668e+003,6.092041e-001
2.410632e+003,-1.001263e+000
2.411596e+003,-1.996951e+000
2.412560e+003,-2.387961e+000
2.413525e+003,-1.929608e+000
2.414489e+003,-8.560821e-001
2.415453e+003,-1.535126e-001
2.416417e+003,1.826080e-001
2.417382e+003,1.073975e+000
2.418346e+003,2.471088e+000
2.419310e+003,2.734967e+000
2.420274e+003,1.232709e+000
2.421239e+003,-9.837036e-002
2.422203e+003,-4.437866e-002
2.423167e+003,5.738220e-001
2.424131e+003,1.655881e+000
2.425095e+003,2.464880e+000
2.426060e+003,2.476291e+000
2.427024e+003,2.081482e+000
2.427988e+003,8.998474e-001
2.428952e+003,1.099335e-001
2.429917e+003,1.528955e+000
2.430881e+003,3.647589e+000
2.431845e+003,3.901010e+000
2.432809e+003,2.755701e+000
2.433773e+003,2.370657e+000
2.434738e+003,2.775345e+000
2.435702e+003,3.069437e+000
2.436666e+003,3.195416e+000
2.437630e+003,3.478784e+000
2.438595e+003,3.976999e+000
2.439559e+003,4.241693e+000
2.440523e+003,4.173700e+000
2.441487e+003,4.372540e+000
2.442452e+003,4.974002e+000
2.443416e+003,6.350052e+000
2.444380e+003,8.702871e+000
2.445344e+003,1.021435e+001
2.446309e+003,9.341391e+000
2.447273e+003,7.700213e+000
2.448237e+003,7.241412e+000
2.449201e+003,7.620377e+000
2.450166e+003,9.061282e+000
2.451130e+003,1.036113e+001
2.452094e+003,8.834478e+000
2.453058e+003,6.319849e+000
2.454022e+003,6.123828e+000
2.454987e+003,6.967059e+000
2.455951e+003,5.515958e+000
2.456915e+003,2.837524e+000
2.457879e+003,2.862863e+000
2.458844e+003,5.675870e+000
2.459808e+003,7.589227e+000
2.460772e+003,7.663565e+000
2.461736e+003,7.624082e+000
2.462700e+003,7.447296e+000
2.463665e+003,7.758347e+000
2.464629e+003,9.539877e+000
2.465593e+003,1.037250e+001
2.466557e+003,9.240326e+000
2.467522e+003,8.161072e+000
2.468486e+003,7.913031e+000
2.469450e+003,8.090658e+000
2.470414e+003,8.451340e+000
2.471379e+003,9.031595e+000
2.472343e+003,9.904764e+000
2.473307e+003,1.073647e+001
2.474271e+003,1.073909e+001
2.475236e+003,1.030665e+001
2.476200e+003,1.105849e+001
2.477164e+003,1.232946e+001
2.478128e+003,1.172367e+001
2.479093e+003,1.009462e+001
2.480057e+003,9.965921e+000
2.481021e+003,1.101686e+001
2.481985e+003,1.168337e+001
2.482949e+003,1.175756e+001
2.483914e+003,1.162774e+001
2.484878e+003,1.151114e+001
2.485842e+003,1.223550e+001
2.486806e+003,1.445189e+001
2.487771e+003,1.557764e+001
2.488735e+003,1.351583e+001
2.489699e+003,1.211725e+001
2.490663e+003,1.294497e+001
2.491627e+003,1.369192e+001
2.492592e+003,1.330861e+001
2.493556e+003,1.321815e+001
2.494520e+003,1.453830e+001
2.495484e+003,1.545247e+001
2.496449e+003,1.403490e+001
2.497413e+003,1.243199e+001
2.498377e+003,1.399857e+001
2.499341e+003,1.712526e+001
2.500306e+003,1.738654e+001
2.501270e+003,1.555506e+001
2.502234e+003,1.506886e+001
2.503198e+003,1.558586e+001
2.504163e+003,1.588180e+001
2.505127e+003,1.605353e+001
2.506091e+003,1.672454e+001
2.507055e+003,1.783085e+001
2.508020e+003,1.908359e+001
2.508984e+003,2.029377e+001
2.509948e+003,2.112252e+001
2.510912e+003,2.143756e+001
2.511876e+003,2.113179e+001
2.512841e+003,1.975162e+001
2.513805e+003,1.947883e+001
2.514769e+003,2.176801e+001
2.515733e+003,2.405321e+001
2.516698e+003,2.625446e+001
2.517662e+003,2.737587e+001
2.518626e+003,2.634690e+001
2.519590e+003,2.588076e+001
2.520554e+003,2.765109e+001
2.521519e+003,2.961925e+001
2.522483e+003,3.002797e+001
2.523447e+003,2.957928e+001
2.524411e+003,2.920017e+001
2.525376e+003,2.925541e+001
2.526340e+003,3.079603e+001
2.527304e+003,3.328903e+001
2.528268e+003,3.512595e+001
2.529233e+003,3.662366e+001
2.530197e+003,3.844888e+001
2.531161e+003,4.058588e+001
2.532125e+003,4.304960e+001
2.533090e+003,4.553775e+001
2.534054e+003,4.750206e+001
2.535018e+003,4.892924e+001
2.535982e+003,4.988215e+001
2.536947e+003,5.043898e+001
2.537911e+003,5.179084e+001
2.538875e+003,5.470577e+001
2.539839e+003,5.691653e+001
2.540803e+003,5.747910e+001
2.541768e+003,5.848632e+001
2.542732e+003,6.075538e+001
2.543696e+003,6.161954e+001
2.544660e+003,6.003682e+001
2.545625e+003,5.887032e+001
2.546589e+003,5.949266e+001
2.547553e+003,6.023666e+001
2.548517e+003,5.975641e+001
2.549482e+003,5.952096e+001
2.550446e+003,6.136076e+001
2.551410e+003,6.417189e+001
2.552374e+003,6.716824e+001
2.553339e+003,6.905699e+001
2.554303e+003,6.710327e+001
2.555267e+003,6.382267e+001
2.556231e+003,6.236248e+001
2.557196e+003,6.167664e+001
2.558160e+003,5.999766e+001
2.559124e+003,5.789024e+001
2.560088e+003,5.696542e+001
2.561052e+003,5.677882e+001
2.562017e+003,5.492539e+001
2.562981e+003,5.137019e+001
2.563945e+003,4.968743e+001
2.564909e+003,5.050843e+001
2.565874e+003,4.943830e+001
2.566838e+003,4.613404e+001
2.567802e+003,4.412287e+001
2.568766e+003,4.371930e+001
2.569730e+003,4.306815e+001
2.570695e+003,4.174270e+001
2.571659e+003,3.970246e+001
2.572623e+003,3.708144e+001
2.573587e+003,3.493004e+001
2.574552e+003,3.382387e+001
2.575516e+003,3.280854e+001
2.576480e+003,3.108314e+001
2.577444e+003,2.981913e+001
2.578409e+003,3.088990e+001
2.579373e+003,3.085906e+001
2.580337e+003,2.630975e+001
2.581301e+003,2.232111e+001
2.582266e+003,2.237550e+001
2.583230e+003,2.340206e+001
2.584194e+003,2.359206e+001
2.585158e+003,2.305479e+001
2.586123e+003,2.178437e+001
2.587087e+003,2.015566e+001
2.588051e+003,1.863137e+001
2.589015e+003,1.753669e+001
2.589979e+003,1.830304e+001
2.590944e+003,2.020392e+001
2.591908e+003,2.040929e+001
2.592872e+003,1.939092e+001
2.593836e+003,1.800981e+001
2.594801e+003,1.664315e+001
2.595765e+003,1.606643e+001
2.596729e+003,1.586485e+001
2.597693e+003,1.460822e+001
2.598657e+003,1.262047e+001
2.599622e+003,1.216247e+001
2.600586e+003,1.357000e+001
2.601550e+003,1.338316e+001
2.602514e+003,9.999731e+000
2.603479e+003,8.311704e+000
2.604443e+003,9.161539e+000
2.605407e+003,9.039060e+000
2.606371e+003,7.386252e+000
2.607336e+003,6.882398e+000
2.608300e+003,8.146502e+000
2.609264e+003,8.491568e+000
2.610228e+003,6.964804e+000
2.611193e+003,5.303113e+000
2.612157e+003,4.543762e+000
2.613121e+003,4.331903e+000
2.614085e+003,4.483530e+000
2.615050e+003,4.632913e+000
2.616014e+003,4.417792e+000
2.616978e+003,4.143317e+000
2.617942e+003,4.036569e+000
2.618906e+003,3.961264e+000
2.619871e+003,4.053220e+000
2.620835e+003,3.845477e+000
2.621799e+003,2.535126e+000
2.622763e+003,1.392014e+000
2.623728e+003,1.583249e+000
2.624692e+003,2.787637e+000
2.625656e+003,4.703864e+000
2.626620e+003,6.615381e+000
2.627584e+003,6.444025e+000
2.628549e+003,4.763120e+000
2.629513e+003,3.094247e+000
2.630477e+003,1.682864e+000
2.631441e+003,1.153870e+000
2.632406e+003,1.226993e+000
2.633370e+003,1.738577e+000
2.634334e+003,2.197803e+000
2.635298e+003,1.171515e+000
2.636263e+003,-5.677032e-001
2.637227e+003,2.969330e-001
2.638191e+003,3.881683e+000
2.639155e+003,4.626984e+000
2.640120e+003,1.687082e+000
2.641084e+003,4.507843e-001
2.642048e+003,1.139221e+000
2.643012e+003,2.037097e+000
2.643977e+003,3.069843e+000
2.644941e+003,3.586029e+000
2.645905e+003,3.441916e+000
2.646869e+003,2.078192e+000
2.647833e+003,-2.371307e-001
2.648798e+003,-9.628113e-001
2.649762e+003,7.129547e-001
2.650726e+003,1.827359e+000
2.651690e+003,6.808319e-001
2.652655e+003,-2.791687e-001
2.653619e+003,-3.016968e-002
2.654583e+003,7.927368e-001
2.655547e+003,2.506598e+000
2.656511e+003,4.078650e+000
2.657476e+003,5.691156e+000
2.658440e+003,5.812521e+000
2.659404e+003,3.547708e+000
2.660368e+003,8.848022e-001
2.661333e+003,-9.113587e-001
2.662297e+003,-1.533331e+000
2.663261e+003,-5.958252e-001
2.664225e+003,7.465820e-001
2.665190e+003,1.203201e+000
2.666154e+003,1.009390e+000
2.667118e+003,-3.046692e-001
2.668082e+003,-1.217520e+000
2.669047e+003,3.454956e-001
2.670011e+003,2.155234e+000
2.670975e+003,1.975479e+000
2.671939e+003,1.091458e+000
2.672904e+003,1.053699e+000
2.673868e+003,1.327182e+000
2.674832e+003,1.084753e+000
2.675796e+003,5.826446e-001
2.676760e+003,4.646484e-001
2.677725e+003,6.875122e-001
2.678689e+003,1.338873e+000
2.679653e+003,2.123697e+000
2.680617e+003,1.905100e+000
2.681582e+003,1.244196e+000
2.682546e+003,1.787271e+000
2.683510e+003,2.642120e+000
2.684474e+003,1.370660e+000
2.685438e+003,-1.133273e+000
2.686403e+003,-2.051230e+000
2.687367e+003,-1.280862e+000
2.688331e+003,-4.617584e-001
2.689295e+003,3.551269e-001
2.690260e+003,1.237204e+000
2.691224e+003,2.261307e+000
2.692188e+003,2.396060e+000
2.693152e+003,1.672772e+000
2.694117e+003,1.636612e+000
2.695081e+003,2.279065e+000
2.696045e+003,2.693841e+000
2.697009e+003,2.613705e+000
2.697974e+003,1.633362e+000
2.698938e+003,-4.513245e-002
2.699902e+003,-7.929535e-001
2.700866e+003,-2.191772e-002
2.701831e+003,7.103882e-001
2.702795e+003,1.240970e+000
2.703759e+003,1.006024e+000
2.704723e+003,-8.753723e-001
2.705688e+003,-6.158325e-001
2.706652e+003,2.817349e+000
2.707616e+003,3.852332e+000
2.708580e+003,1.176718e+000
2.709544e+003,-8.921234e-001
2.710509e+003,-6.828308e-001
2.711473e+003,-4.860626e-001
2.712437e+003,-1.581961e+000
2.713401e+003,-1.985620e+000
2.714365e+003,3.720520e-001
2.715330e+003,1.708417e+000
2.716294e+003,-1.195599e+000
2.717258e+003,-3.552567e+000
2.718222e+003,-3.503751e+000
2.719187e+003,-2.750610e+000
2.720151e+003,-1.527649e+000
2.721115e+003,-4.955811e-001
2.722079e+003,-8.105469e-003
2.723044e+003,4.096619e-001
2.724008e+003,1.119748e+000
2.724972e+003,1.611966e+000
2.725936e+003,1.322037e+000
2.726901e+003,7.805756e-001
2.727865e+003,5.246185e-001
2.728829e+003,3.688110e-001
2.729793e+003,2.577423e-001
2.730758e+003,4.999389e-002
2.731722e+003,-5.341064e-001
2.732686e+003,-1.045215e+000
2.733650e+003,-1.109259e+000
2.734615e+003,-1.046451e+000
2.735579e+003,-1.113022e+000
2.736543e+003,-1.283108e+000
2.737507e+003,-1.552414e+000
2.738471e+003,-1.744666e+000
2.739436e+003,-1.377380e+000
2.740400e+003,-8.837646e-001
2.741364e+003,-1.412512e+000
2.742328e+003,-1.800067e+000
2.743292e+003,2.189697e-001
2.744257e+003,2.234647e+000
2.745221e+003,9.704773e-001
2.746185e+003,-1.312524e+000
2.747149e+003,-1.688715e+000
2.748114e+003,-9.133698e-001
2.749078e+003,-6.580810e-002
2.750042e+003,9.198059e-001
2.751006e+003,2.426126e+000
2.751971e+003,3.881470e+000
2.752935e+003,2.783762e+000
2.753899e+003,4.767639e-001
2.754863e+003,-1.580414e-001
2.755828e+003,2.234436e-001
2.756792e+003,7.691742e-001
2.757756e+003,1.092966e+000
2.758720e+003,6.599334e-001
2.759685e+003,-2.028351e-001
2.760649e+003,-6.941162e-001
2.761613e+003,-9.309174e-001
2.762577e+003,-1.415436e+000
2.763542e+003,-2.085986e+000
2.764506e+003,-2.344235e+000
2.765470e+003,-2.209555e+000
2.766434e+003,-1.735812e+000
2.767398e+003,-9.807037e-001
2.768363e+003,2.006378e-001
2.769327e+003,1.307797e+000
2.770291e+003,1.268390e+000
2.771255e+003,4.767670e-001
2.772219e+003,-1.171448e-001
2.773184e+003,-3.387237e-001
2.774148e+003,9.977722e-002
2.775112e+003,1.080093e+000
2.776076e+003,9.179291e-001
2.777041e+003,-4.034759e-001
2.778005e+003,-4.495178e-001
2.778969e+003,4.113007e-001
2.779933e+003,-2.026367e-002
2.780898e+003,-1.380060e+000
2.781862e+003,-2.385754e+000
2.782826e+003,-2.709381e+000
2.783790e+003,-1.801166e+000
2.784755e+003,-1.108246e-001
2.785719e+003,3.683411e-001
2.786683e+003,-6.282532e-001
2.787647e+003,-1.117346e+000
2.788612e+003,-1.056061e+000
2.789576e+003,-8.357605e-001
2.790540e+003,-4.724457e-001
2.791504e+003,-8.860413e-001
2.792469e+003,-1.759186e+000
2.793433e+003,-1.331985e+000
2.794397e+003,1.404694e-001
2.795361e+003,1.476352e+000
2.796325e+003,2.153088e+000
2.797290e+003,1.212131e+000
2.798254e+003,-1.313416e+000
2.799218e+003,-2.549869e+000
2.800182e+003,-2.172714e+000
2.801146e+003,-1.107996e+000
2.802111e+003,8.085724e-001
2.803075e+003,1.948212e+000
2.804039e+003,2.211124e+000
2.805003e+003,1.732758e+000
2.805968e+003,6.526489e-001
2.806932e+003,-8.217376e-001
2.807896e+003,-2.257870e+000
2.808860e+003,-2.623663e+000
2.809825e+003,-1.851035e+000
2.810789e+003,-1.215466e+000
2.811753e+003,-1.014511e+000
2.812717e+003,-6.536835e-001
2.813682e+003,-7.483520e-002
2.814646e+003,4.021332e-001
2.815610e+003,7.800323e-001
2.816574e+003,9.075623e-001
2.817539e+003,8.093780e-001
2.818503e+003,6.231232e-001
2.819467e+003,4.134216e-001
2.820431e+003,3.743713e-001
2.821396e+003,5.105286e-001
2.822360e+003,3.122803e-001
2.823324e+003,-4.400299e-001
2.824288e+003,2.078735e-001
2.825252e+003,3.373694e+000
2.826217e+003,3.118643e+000
2.827181e+003,-6.840393e-001
2.828145e+003,-1.732245e+000
2.829109e+003,-2.618713e-002
2.830073e+003,1.094934e+000
2.831038e+003,1.131598e+000
2.832002e+003,6.789123e-001
2.832966e+003,8.383789e-002
2.833930e+003,-6.933288e-002
2.834895e+003,3.473328e-001
2.835859e+003,9.622528e-001
2.836823e+003,1.937845e+000
2.837787e+003,1.977856e+000
2.838752e+003,1.037433e+000
2.839716e+003,-1.080627e-001
2.840680e+003,-1.239899e+000
2.841644e+003,-1.340628e+000
2.842609e+003,-5.136566e-001
2.843573e+003,6.962219e-001
2.844537e+003,1.895062e+000
2.845501e+003,2.235959e+000
2.846466e+003,1.607623e+000
2.847430e+003,1.135736e+000
2.848394e+003,9.580658e-001
2.849358e+003,7.017975e-001
2.850323e+003,3.560394e-001
2.851287e+003,6.355957e-001
2.852251e+003,1.331165e+000
2.853215e+003,7.907623e-001
2.854179e+003,-5.890716e-001
2.855144e+003,-1.013199e+000
2.856108e+003,-5.033234e-001
2.857072e+003,-1.846130e-001
2.858036e+003,-1.811462e-001
2.859000e+003,2.773926e-001
2.859965e+003,1.244678e+000
2.860929e+003,1.278909e+000
2.861893e+003,3.125885e-001
2.862857e+003,8.109100e-001
2.863822e+003,2.337387e+000
2.864786e+003,2.145190e+000
2.865750e+003,8.298981e-001
2.866714e+003,8.781311e-001
2.867679e+003,1.775684e+000
2.868643e+003,1.264545e+000
2.869607e+003,-5.048310e-001
2.870571e+003,-1.798227e+000
2.871536e+003,-2.404227e+000
2.872500e+003,-4.384857e-001
2.873464e+003,3.837189e+000
2.874428e+003,3.916803e+000
2.875393e+003,1.066919e+000
2.876357e+003,-9.087585e-001
2.877321e+003,-1.778146e+000
2.878285e+003,-1.453909e+000
2.879250e+003,-5.103790e-001
2.880214e+003,2.360809e-001
2.881178e+003,6.526245e-001
2.882142e+003,6.642486e-001
2.883106e+003,4.502441e-001
2.884071e+003,6.340210e-001
2.885035e+003,1.182660e+000
2.885999e+003,2.164862e+000
2.886963e+003,3.195477e+000
2.887927e+003,3.303998e+000
2.888892e+003,2.897717e+000
2.889856e+003,2.255585e+000
2.890820e+003,1.879153e+000
2.891784e+003,3.115225e+000
2.892749e+003,4.436481e+000
2.893713e+003,3.167023e+000
2.894677e+003,5.995911e-001
2.895641e+003,-4.322449e-001
2.896606e+003,-3.170532e-001
2.897570e+003,1.489929e-001
2.898534e+003,7.587799e-001
2.899498e+003,1.482132e+000
2.900463e+003,1.791077e+000
2.901427e+003,5.342499e-001
2.902391e+003,-8.312744e-001
2.903355e+003,-4.783478e-001
2.904320e+003,1.506805e-001
2.905284e+003,-5.369110e-001
2.906248e+003,-1.352292e+000
2.907212e+003,-4.030609e-001
2.908177e+003,1.246042e+000
2.909141e+003,2.136893e+000
2.910105e+003,2.347589e+000
2.911069e+003,1.563858e+000
2.912033e+003,6.488739e-001
2.912998e+003,4.055237e-001
2.913962e+003,5.384216e-002
2.914926e+003,-1.094302e+000
2.915890e+003,-1.933353e+000
2.916854e+003,-1.651114e+000
2.917819e+003,-7.340240e-001
2.918783e+003,4.024506e-001
2.919747e+003,1.440845e+000
2.920711e+003,2.428317e+000
2.921676e+003,2.644907e+000
2.922640e+003,6.135986e-001
2.923604e+003,-6.826660e-001
2.924568e+003,3.075714e-001
2.925533e+003,1.265939e+000
2.926497e+003,1.359418e+000
2.927461e+003,1.119278e+000
2.928425e+003,1.021341e+000
2.929390e+003,8.273743e-001
2.930354e+003,-9.357300e-002
2.931318e+003,-8.537567e-001
2.932282e+003,-4.907654e-001
2.933247e+003,-3.292664e-001
2.934211e+003,-2.673675e-001
2.935175e+003,1.562195e-001
2.936139e+003,7.566071e-001
2.937104e+003,7.454132e-001
2.938068e+003,1.216797e-001
2.939032e+003,6.705261e-001
2.939996e+003,2.655463e+000
2.940960e+003,3.749905e+000
2.941925e+003,3.054764e+000
2.942889e+003,2.384360e+000
2.943853e+003,2.427594e+000
2.944817e+003,2.197421e+000
2.945781e+003,1.661603e+000
2.946746e+003,5.386322e-001
2.947710e+003,-1.000443e+000
2.948674e+003,-1.840210e-003
2.949638e+003,2.850787e+000
2.950603e+003,3.349796e+000
2.951567e+003,1.415125e+000
2.952531e+003,-2.713928e-001
2.953495e+003,-1.019298e+000
2.954460e+003,1.795105e-001
2.955424e+003,3.297147e+000
2.956388e+003,2.593991e+000
2.957352e+003,-1.271022e+000
2.958317e+003,-1.547800e+000
2.959281e+003,6.881256e-001
2.960245e+003,2.666068e+000
2.961209e+003,3.748175e+000
2.962174e+003,3.109424e+000
2.963138e+003,1.448993e+000
2.964102e+003,-1.671875e-001
2.965066e+003,-1.001996e+000
2.966031e+003,8.837036e-001
2.966995e+003,4.111093e+000
2.967959e+003,3.967181e+000
2.968923e+003,2.015170e+000
2.969887e+003,1.093903e+000
2.970852e+003,8.769684e-001
2.971816e+003,1.418213e+000
2.972780e+003,1.865024e+000
2.973744e+003,1.159033e+000
2.974708e+003,2.995392e-001
2.975673e+003,1.106476e-001
2.976637e+003,1.778229e-001
2.977601e+003,7.482910e-003
2.978565e+003,-2.508423e-001
2.979530e+003,-5.678558e-001
2.980494e+003,-5.969772e-001
2.981458e+003,4.510345e-001
2.982422e+003,1.120276e+000
2.983387e+003,2.793793e-001
2.984351e+003,-4.014114e-001
2.985315e+003,-3.423782e-001
2.986279e+003,1.697174e-001
2.987244e+003,9.509338e-001
2.988208e+003,1.390048e+000
2.989172e+003,1.083789e+000
2.990136e+003,5.328766e-001
2.991101e+003,-3.281052e-001
2.992065e+003,-5.013946e-001
2.993029e+003,6.610840e-001
2.993993e+003,1.045587e+000
2.994958e+003,3.490539e-001
2.995922e+003,6.048126e-001
2.996886e+003,2.011514e+000
2.997850e+003,3.115460e+000
2.998814e+003,3.457599e+000
2.999779e+003,2.927802e+000
3.000743e+003,1.524976e+000
3.001707e+003,1.084225e+000
3.002671e+003,2.039773e+000
3.003635e+003,1.040033e+000
3.004600e+003,-1.669655e+000
3.005564e+003,-1.166080e+000
3.006528e+003,1.368906e+000
3.007492e+003,1.268228e+000
3.008457e+003,-3.968445e-001
3.009421e+003,3.529205e-002
3.010385e+003,1.844852e+000
3.011349e+003,2.140949e+000
3.012314e+003,1.250858e+000
3.013278e+003,1.703186e-002
3.014242e+003,-1.231429e+000
3.015206e+003,-1.448157e+000
3.016171e+003,-8.527374e-001
3.017135e+003,1.095844e+000
3.018099e+003,2.655371e+000
3.019063e+003,1.174011e+000
3.020028e+003,-5.634750e-001
3.020992e+003,-7.664947e-002
3.021956e+003,7.698456e-001
3.022920e+003,3.460800e-001
3.023885e+003,-4.581497e-001
3.024849e+003,-7.703949e-001
3.025813e+003,-5.326050e-001
3.026777e+003,1.116766e+000
3.027741e+003,2.071133e+000
3.028706e+003,2.793213e-001
3.029670e+003,-5.377914e-001
3.030634e+003,7.865509e-001
3.031598e+003,1.320459e+000
3.032563e+003,1.673340e-001
3.033527e+003,-6.133255e-001
3.034491e+003,-1.310867e-001
3.035455e+003,8.771118e-001
3.036420e+003,2.310284e+000
3.037384e+003,2.642746e+000
3.038348e+003,1.013745e+000
3.039312e+003,2.626022e-001
3.040277e+003,4.417847e-001
3.041241e+003,-3.832336e-001
3.042205e+003,-1.912250e+000
3.043169e+003,-2.025790e+000
3.044134e+003,-9.228531e-001
3.045098e+003,-1.307098e-001
3.046062e+003,1.909866e-001
3.047026e+003,8.068069e-001
3.047990e+003,1.509747e+000
3.048955e+003,6.660172e-001
3.049919e+003,-1.126285e+000
3.050883e+003,-1.204471e+000
3.051847e+003,-3.524017e-001
3.052812e+003,7.883530e-001
3.053776e+003,1.381607e+000
3.054740e+003,-4.747650e-001
3.055704e+003,-2.134167e+000
3.056668e+003,-9.844147e-001
3.057633e+003,9.498215e-001
3.058597e+003,1.473993e+000
3.059561e+003,1.336990e+000
3.060525e+003,1.583926e+000
3.061490e+003,1.382779e+000
3.062454e+003,-9.133743e-001
3.063418e+003,-2.104947e+000
3.064382e+003,-4.876679e-001
3.065347e+003,8.432175e-001
3.066311e+003,1.057043e+000
3.067275e+003,1.188840e+000
3.068239e+003,1.592508e+000
3.069204e+003,1.321977e+000
3.070168e+003,-7.318115e-002
3.071132e+003,-7.855881e-001
3.072096e+003,1.282928e-001
3.073061e+003,9.563934e-001
3.074025e+003,1.761514e+000
3.074989e+003,1.269673e+000
3.075953e+003,-1.580215e-001
3.076917e+003,-4.500733e-002
3.077882e+003,9.918793e-001
3.078846e+003,2.483948e-001
3.079810e+003,-1.695967e+000
3.080774e+003,-1.876356e+000
3.081739e+003,-9.149231e-001
3.082703e+003,-1.036002e+000
3.083667e+003,-1.686162e+000
3.084631e+003,-6.230774e-001
3.085595e+003,8.836594e-001
3.086560e+003,6.397888e-001
3.087524e+003,-5.361328e-002
3.088488e+003,3.711197e-001
3.089452e+003,5.524429e-001
3.090417e+003,-5.010529e-001
3.091381e+003,-1.783754e+000
3.092345e+003,-2.530940e+000
3.093309e+003,-2.884631e+000
3.094274e+003,-3.078375e+000
3.095238e+003,-2.555673e+000
3.096202e+003,1.806122e-001
3.097166e+003,1.520877e+000
3.098131e+003,4.767120e-001
3.099095e+003,-2.335220e-001
3.100059e+003,-1.589417e-001
3.101023e+003,5.354919e-002
3.101988e+003,2.911514e-001
3.102952e+003,1.309770e+000
3.103916e+003,2.983621e+000
3.104880e+003,2.102914e+000
3.105844e+003,-1.712244e+000
3.106809e+003,-2.673175e+000
3.107773e+003,-1.119850e+000
3.108737e+003,-1.152032e+000
3.109701e+003,-2.080041e+000
3.110666e+003,-1.958131e+000
3.111630e+003,-1.311421e+000
3.112594e+003,-1.071353e+000
3.113558e+003,-1.273833e+000
3.114522e+003,-1.958281e+000
3.115487e+003,-2.505344e+000
3.116451e+003,-1.891885e+000
3.117415e+003,-1.133057e+000
3.118379e+003,-2.121629e+000
3.119344e+003,-3.021558e+000
3.120308e+003,-1.795766e+000
3.121272e+003,-1.253795e+000
3.122236e+003,-2.852029e+000
3.123201e+003,-3.083919e+000
3.124165e+003,-8.964081e-001
3.125129e+003,5.199875e-001
3.126093e+003,-7.041015e-002
3.127058e+003,-6.777970e-001
3.128022e+003,-4.645081e-001
3.128986e+003,-1.030930e-001
3.129950e+003,4.448242e-001
3.130915e+003,5.494064e-001
3.131879e+003,1.965820e-001
3.132843e+003,-1.352911e+000
3.133807e+003,-3.254942e+000
3.134771e+003,-2.933398e+000
3.135736e+003,-1.191885e+000
3.136700e+003,3.457642e-003
3.137664e+003,3.306091e-001
3.138628e+003,-6.270965e-001
3.139593e+003,-2.092299e+000
3.140557e+003,-2.648544e+000
3.141521e+003,-2.071524e+000
3.142485e+003,1.374107e+000
3.143449e+003,4.255536e+000
3.144414e+003,3.864471e+000
3.145378e+003,1.642928e+000
3.146342e+003,-2.295622e+000
3.147306e+003,-4.422379e+000
3.148271e+003,-3.164871e+000
3.149235e+003,-1.468065e+000
3.150199e+003,-9.444275e-001
3.151163e+003,-1.114966e+000
3.152128e+003,-2.111742e+000
3.153092e+003,-2.965385e+000
3.154056e+003,-3.721945e+000
3.155020e+003,-3.313893e+000
3.155985e+003,-2.039093e+000
3.156949e+003,-1.512274e+000
3.157913e+003,-1.580266e+000
3.158877e+003,-1.125439e+000
3.159842e+003,-4.861862e-001
3.160806e+003,-1.077339e+000
3.161770e+003,-2.165880e+000
3.162734e+003,-1.490776e+000
3.163698e+003,-2.956970e-001
3.164663e+003,-2.007851e+000
3.165627e+003,-3.820956e+000
3.166591e+003,-2.240299e+000
3.167555e+003,-4.328171e-001
3.168520e+003,-2.145874e-001
3.169484e+003,-4.655121e-001
3.170448e+003,-6.474152e-001
3.171412e+003,-3.148010e-001
3.172376e+003,7.877274e-001
3.173341e+003,1.553468e+000
3.174305e+003,1.472006e+000
3.175269e+003,6.342590e-001
3.176233e+003,-1.168803e+000
3.177198e+003,-1.914030e+000
3.178162e+003,-1.658893e+000
3.179126e+003,-1.415125e+000
3.180090e+003,-1.314659e+000
3.181055e+003,-1.397069e+000
3.182019e+003,-1.478276e+000
3.182983e+003,-1.031285e+000
3.183947e+003,-3.310730e-001
3.184912e+003,1.513824e-002
3.185876e+003,2.305145e-002
3.186840e+003,-5.269607e-001
3.187804e+003,-1.101532e+000
3.188769e+003,-8.431366e-001
3.189733e+003,-8.385361e-001
3.190697e+003,-1.983740e+000
3.191661e+003,-2.482088e+000
3.192625e+003,-1.587270e+000
3.193590e+003,-1.057050e+000
3.194554e+003,-1.791368e+000
3.195518e+003,-2.850731e+000
3.196482e+003,-4.165977e+000
3.197447e+003,-3.840600e+000
3.198411e+003,-1.424815e+000
3.199375e+003,-4.832764e-001
3.200339e+003,-7.358276e-001
3.201303e+003,5.914200e-001
3.202268e+003,2.500533e+000
3.203232e+003,1.681396e+000
3.204196e+003,-6.812943e-001
3.205160e+003,-1.578281e+000
3.206125e+003,-1.173294e+000
3.207089e+003,4.703522e-001
3.208053e+003,2.203330e+000
3.209017e+003,1.685939e+000
3.209982e+003,7.641464e-001
3.210946e+003,1.005891e+000
3.211910e+003,1.308182e+000
3.212874e+003,1.288528e+000
3.213839e+003,1.009003e+000
3.214803e+003,5.312393e-001
3.215767e+003,6.310562e-001
3.216731e+003,1.436183e+000
3.217696e+003,3.724823e-001
3.218660e+003,-4.092262e+000
3.219624e+003,-4.716533e+000
3.220588e+003,-1.346050e+000
3.221552e+003,1.832123e-001
3.222517e+003,2.236343e-001
3.223481e+003,-2.960510e-001
3.224445e+003,-8.519745e-001
3.225409e+003,-5.537216e-001
3.226374e+003,-1.200104e-001
3.227338e+003,-5.274292e-001
3.228302e+003,-8.822113e-001
3.229266e+003,3.787537e-002
3.230230e+003,1.003146e+000
3.231195e+003,4.076538e-001
3.232159e+003,-9.402771e-002
3.233123e+003,4.380615e-001
3.234087e+003,6.115448e-001
3.235052e+003,2.156631e-001
3.236016e+003,5.401169e-001
3.236980e+003,1.522173e+000
3.237944e+003,9.502624e-001
3.238909e+003,-1.240427e+000
3.239873e+003,-1.238753e+000
3.240837e+003,7.522476e-001
3.241801e+003,9.452835e-001
3.242766e+003,-1.208710e-001
3.243730e+003,-2.417740e-001
3.244694e+003,-8.020325e-002
3.245658e+003,-6.625244e-001
3.246623e+003,-1.447317e+000
3.247587e+003,-1.973645e+000
3.248551e+003,-2.386166e+000
3.249515e+003,-2.795203e+000
3.250479e+003,-2.434915e+000
3.251444e+003,-5.315644e-001
3.252408e+003,6.845444e-001
3.253372e+003,-6.311005e-001
3.254336e+003,-1.618959e+000
3.255301e+003,-2.178154e+000
3.256265e+003,-8.532898e-001
3.257229e+003,1.717328e+000
3.258193e+003,2.558908e+000
3.259157e+003,1.765671e+000
3.260122e+003,3.709244e-001
3.261086e+003,-7.868927e-001
3.262050e+003,-2.057404e-001
3.263014e+003,9.365326e-001
3.263979e+003,-5.040237e-001
3.264943e+003,-2.332466e+000
3.265907e+003,-1.801683e+000
3.266871e+003,-6.654724e-001
3.267836e+003,4.721130e-001
3.268800e+003,8.601532e-001
3.269764e+003,3.153778e-001
3.270728e+003,-6.939179e-001
3.271693e+003,-1.844130e+000
3.272657e+003,-2.141016e+000
3.273621e+003,-1.191165e+000
3.274585e+003,-8.977219e-001
3.275550e+003,-1.390388e+000
3.276514e+003,-4.931778e-001
3.277478e+003,1.184633e+000
3.278442e+003,2.334136e+000
3.279406e+003,2.616681e+000
3.280371e+003,1.184235e+000
3.281335e+003,-7.510803e-001
3.282299e+003,-2.337697e+000
3.283263e+003,-2.678937e+000
3.284228e+003,-7.992889e-001
3.285192e+003,1.354332e+000
3.286156e+003,2.596783e+000
3.287120e+003,2.671512e+000
3.288084e+003,9.096481e-001
3.289049e+003,1.033139e+000
3.290013e+003,2.962747e+000
3.290977e+003,2.325500e+000
3.291941e+003,-3.968414e-001
3.292906e+003,-1.327716e+000
3.293870e+003,-6.428849e-001
3.294834e+003,-1.171056e+000
3.295798e+003,-2.354466e+000
3.296763e+003,-2.798712e+000
3.297727e+003,-2.641936e+000
3.298691e+003,-1.954390e+000
3.299655e+003,-9.307938e-001
3.300620e+003,6.507187e-001
3.301584e+003,1.797282e+000
3.302548e+003,2.220341e+000
3.303512e+003,2.040492e+000
3.304477e+003,1.487849e+000
3.305441e+003,1.916978e+000
3.306405e+003,3.825882e+000
3.307369e+003,4.122312e+000
3.308333e+003,2.568671e+000
3.309298e+003,2.824458e+000
3.310262e+003,4.122806e+000
3.311226e+003,4.308282e+000
3.312190e+003,3.729155e+000
3.313155e+003,2.767642e+000
3.314119e+003,1.675531e+000
3.315083e+003,4.821777e-001
3.316047e+003,1.901031e-001
3.317011e+003,1.720540e+000
3.317976e+003,3.102177e+000
3.318940e+003,2.685234e+000
3.319904e+003,2.142709e+000
3.320868e+003,1.683377e+000
3.321833e+003,1.906075e+000
3.322797e+003,2.653653e+000
3.323761e+003,2.800452e+000
3.324725e+003,2.376527e+000
3.325690e+003,1.677924e+000
3.326654e+003,1.115312e+000
3.327618e+003,1.356544e+000
3.328582e+003,1.944649e+000
3.329547e+003,2.157970e+000
3.330511e+003,1.982864e+000
3.331475e+003,7.493454e-001
3.332439e+003,2.497940e-001
3.333404e+003,1.542418e+000
3.334368e+003,2.308403e+000
3.335332e+003,2.111041e+000
3.336296e+003,1.879318e+000
3.337260e+003,1.890540e+000
3.338225e+003,2.258806e+000
3.339189e+003,2.782353e+000
3.340153e+003,1.385886e+000
3.341117e+003,-1.222778e+000
3.342082e+003,-8.430893e-001
3.343046e+003,8.346893e-001
3.344010e+003,1.952557e+000
3.344974e+003,1.882283e+000
3.345938e+003,-3.662567e-001
3.346903e+003,-1.655844e+000
3.347867e+003,-5.390442e-001
3.348831e+003,4.068985e-001
3.349795e+003,-2.404205e-001
3.350760e+003,-6.774765e-001
3.351724e+003,-1.720291e-001
3.352688e+003,1.444092e-001
3.353652e+003,3.449524e-001
3.354617e+003,1.296239e+000
3.355581e+003,2.400326e+000
3.356545e+003,2.287784e+000
3.357509e+003,1.427122e+000
3.358474e+003,5.500854e-001
3.359438e+003,-3.301895e-001
3.360402e+003,-1.304053e+000
3.361366e+003,-1.369232e+000
3.362331e+003,1.465562e+000
3.363295e+003,2.693553e+000
3.364259e+003,-5.386673e-001
3.365223e+003,-1.557835e+000
3.366188e+003,-1.437027e-001
3.367152e+003,4.194992e-001
3.368116e+003,5.649872e-002
3.369080e+003,2.903000e-001
3.370044e+003,7.462341e-001
3.371009e+003,-8.664093e-002
3.371973e+003,-1.141673e+000
3.372937e+003,-8.523865e-002
3.373901e+003,1.303560e+000
3.374865e+003,6.669357e-001
3.375830e+003,-6.510010e-002
3.376794e+003,-1.756897e-002
3.377758e+003,-4.369217e-001
3.378722e+003,-1.455701e+000
3.379687e+003,-1.652876e+000
3.380651e+003,-8.394516e-001
3.381615e+003,1.592621e-001
3.382579e+003,8.907318e-001
3.383544e+003,-2.512604e-001
3.384508e+003,-2.383191e+000
3.385472e+003,-2.197402e+000
3.386436e+003,-1.212592e+000
3.387401e+003,-1.221133e+000
3.388365e+003,-1.359418e+000
3.389329e+003,-1.235658e+000
3.390293e+003,-6.019913e-001
3.391258e+003,6.066803e-001
3.392222e+003,2.085114e+000
3.393186e+003,3.719945e+000
3.394150e+003,4.791605e+000
3.395115e+003,5.230216e+000
3.396079e+003,5.095834e+000
3.397043e+003,4.663547e+000
3.398007e+003,4.474378e+000
3.398971e+003,4.952631e+000
3.399936e+003,7.642560e+000
3.400900e+003,9.382236e+000
3.401864e+003,8.145749e+000
3.402828e+003,6.864835e+000
3.403792e+003,7.565125e+000
3.404757e+003,8.335663e+000
3.405721e+003,7.945487e+000
3.406685e+003,8.059451e+000
3.407649e+003,8.726044e+000
3.408614e+003,1.134818e+001
3.409578e+003,1.485690e+001
3.410542e+003,1.645633e+001
3.411506e+003,1.672467e+001
3.412471e+003,1.677847e+001
3.413435e+003,1.700599e+001
3.414399e+003,1.777106e+001
3.415363e+003,1.855928e+001
3.416328e+003,1.871125e+001
3.417292e+003,1.910382e+001
3.418256e+003,2.013171e+001
3.419220e+003,2.112063e+001
3.420185e+003,2.197057e+001
3.421149e+003,2.195132e+001
3.422113e+003,2.141742e+001
3.423077e+003,2.171081e+001
3.424042e+003,2.214807e+001
3.425006e+003,2.136241e+001
3.425970e+003,1.998581e+001
3.426934e+003,1.881341e+001
