7.140112e+001,2.030403e+002
7.236536e+001,1.929703e+002
7.332959e+001,1.916910e+002
7.429382e+001,1.993672e+002
7.525806e+001,2.176234e+002
7.622229e+001,2.268214e+002
7.718652e+001,2.134191e+002
7.815076e+001,1.653788e+002
7.911499e+001,1.318317e+002
8.007922e+001,1.073294e+002
8.104346e+001,9.498936e+001
8.200769e+001,9.888493e+001
8.297192e+001,1.299167e+002
8.393616e+001,1.656365e+002
8.490039e+001,2.122843e+002
8.586462e+001,2.588008e+002
8.682886e+001,2.872252e+002
8.779310e+001,2.586428e+002
8.875733e+001,2.116759e+002
8.972157e+001,1.657303e+002
9.068580e+001,1.285343e+002
9.165003e+001,1.004301e+002
9.261427e+001,8.957393e+001
9.357850e+001,9.031952e+001
9.454273e+001,9.335593e+001
9.550697e+001,9.242252e+001
9.647120e+001,8.650094e+001
9.743543e+001,8.085793e+001
9.839967e+001,7.489470e+001
9.936390e+001,6.910991e+001
1.003281e+002,6.406203e+001
1.012924e+002,5.925615e+001
1.022566e+002,5.601498e+001
1.032208e+002,5.458411e+001
1.041851e+002,5.501105e+001
1.051493e+002,5.726374e+001
1.061135e+002,6.638441e+001
1.070778e+002,7.342934e+001
1.080420e+002,7.323898e+001
1.090062e+002,6.482188e+001
1.099705e+002,5.179889e+001
1.109347e+002,4.053205e+001
1.118989e+002,3.168877e+001
1.128632e+002,2.944189e+001
1.138274e+002,3.699335e+001
1.147916e+002,5.664782e+001
1.157559e+002,6.596360e+001
1.167201e+002,6.201912e+001
1.176843e+002,5.342438e+001
1.186486e+002,5.071863e+001
1.196128e+002,5.925048e+001
1.205770e+002,6.702794e+001
1.215413e+002,7.714516e+001
1.225055e+002,8.609474e+001
1.234697e+002,8.672253e+001
1.244340e+002,6.276678e+001
1.253982e+002,3.783242e+001
1.263624e+002,1.530083e+001
1.273267e+002,-1.710254e+000
1.282909e+002,-9.264221e+000
1.292551e+002,1.383206e+001
1.302194e+002,4.643518e+001
1.311836e+002,6.995974e+001
1.321478e+002,7.262112e+001
1.331121e+002,5.414809e+001
1.340763e+002,3.679876e+001
1.350405e+002,1.889564e+001
1.360048e+002,6.197619e+000
1.369690e+002,6.077746e+000
1.379332e+002,3.234849e+001
1.388975e+002,4.883553e+001
1.398617e+002,5.272808e+001
1.408259e+002,4.813671e+001
1.417902e+002,4.146492e+001
1.427544e+002,3.236697e+001
1.437186e+002,2.459869e+001
1.446829e+002,1.906389e+001
1.456471e+002,1.573368e+001
1.466113e+002,1.391005e+001
1.475756e+002,1.165039e+001
1.485398e+002,1.124806e+001
1.495040e+002,1.694387e+001
1.504683e+002,2.943645e+001
1.514325e+002,4.569819e+001
1.523967e+002,4.632214e+001
1.533610e+002,3.500969e+001
1.543252e+002,2.256363e+001
1.552894e+002,1.684150e+001
1.562537e+002,2.086518e+001
1.572179e+002,2.262120e+001
1.581821e+002,1.983724e+001
1.591464e+002,1.674365e+001
1.601106e+002,1.844561e+001
1.610748e+002,3.206085e+001
1.620391e+002,3.956081e+001
1.630033e+002,3.309864e+001
1.639676e+002,1.912615e+001
1.649318e+002,7.933679e+000
1.658960e+002,1.317358e+001
1.668603e+002,2.076135e+001
1.678245e+002,1.956436e+001
1.687887e+002,1.024288e+001
1.697530e+002,-1.029102e+000
1.707172e+002,5.528076e+000
1.716814e+002,2.282626e+001
1.726457e+002,3.335022e+001
1.736099e+002,3.007958e+001
1.745741e+002,1.232349e+001
1.755384e+002,8.838623e-001
1.765026e+002,-3.870911e+000
1.774668e+002,-5.396667e+000
1.784311e+002,-4.299561e+000
1.793953e+002,1.015405e+000
1.803595e+002,4.258874e+000
1.813238e+002,3.585242e+000
1.822880e+002,1.405872e+000
1.832522e+002,-2.818726e-001
1.842165e+002,1.822143e-001
1.851807e+002,2.028320e-001
1.861449e+002,-2.863452e+000
1.871092e+002,-7.417908e+000
1.880734e+002,-1.167053e+001
1.890376e+002,-1.351971e+001
1.900019e+002,-1.230298e+001
1.909661e+002,-6.447217e+000
1.919303e+002,3.939136e+000
1.928946e+002,1.610242e+001
1.938588e+002,2.060347e+001
1.948230e+002,1.239695e+001
1.957873e+002,7.629834e+000
1.967515e+002,1.009031e+001
1.977157e+002,1.960284e+001
1.986800e+002,2.819318e+001
1.996442e+002,3.312695e+001
2.006084e+002,3.853478e+001
2.015727e+002,4.855664e+001
2.025369e+002,6.417278e+001
2.035011e+002,7.310341e+001
2.044654e+002,6.200957e+001
2.054296e+002,4.483226e+001
2.063938e+002,2.880508e+001
2.073581e+002,1.879772e+001
2.083223e+002,1.365150e+001
2.092865e+002,7.268860e+000
2.102508e+002,1.418323e+000
2.112150e+002,1.725928e+000
2.121792e+002,1.428881e+001
2.131435e+002,4.362981e+001
2.141077e+002,6.121717e+001
2.150719e+002,6.411397e+001
2.160362e+002,5.880646e+001
2.170004e+002,5.457864e+001
2.179646e+002,5.225631e+001
2.189289e+002,4.991412e+001
2.198931e+002,4.475795e+001
2.208573e+002,3.948750e+001
2.218216e+002,3.911144e+001
2.227858e+002,4.991146e+001
2.237500e+002,6.432410e+001
2.247143e+002,8.584652e+001
2.256785e+002,1.098296e+002
2.266427e+002,1.265281e+002
2.276070e+002,1.102839e+002
2.285712e+002,7.754413e+001
2.295354e+002,4.819077e+001
2.304997e+002,2.815187e+001
2.314639e+002,1.655443e+001
2.324281e+002,8.896802e+000
2.333924e+002,5.260571e+000
2.343566e+002,3.582556e+000
2.353208e+002,3.842139e+000
2.362851e+002,6.525549e+000
2.372493e+002,7.832324e+000
2.382135e+002,6.569507e+000
2.391778e+002,5.062818e+000
2.401420e+002,4.877466e+000
2.411062e+002,6.883582e+000
2.420705e+002,7.481348e+000
2.430347e+002,3.499097e+000
2.439989e+002,-1.910669e+000
2.449632e+002,-6.643359e+000
2.459274e+002,-9.129102e+000
2.468916e+002,-9.509094e+000
2.478559e+002,-8.418371e+000
2.488201e+002,-6.351245e+000
2.497843e+002,-4.319654e+000
2.507486e+002,-3.526709e+000
2.517128e+002,-4.366736e+000
2.526770e+002,-3.127881e+000
2.536413e+002,1.390649e+000
2.546055e+002,6.789880e+000
2.555697e+002,9.192907e+000
2.565340e+002,5.074328e+000
2.574982e+002,2.771399e+000
2.584625e+002,4.524255e+000
2.594267e+002,8.379565e+000
2.603909e+002,1.081704e+001
2.613552e+002,8.609827e+000
2.623194e+002,5.382751e+000
2.632836e+002,2.051563e+000
2.642479e+002,-8.371582e-001
2.652121e+002,-2.664954e+000
2.661763e+002,-1.671045e+000
2.671406e+002,5.673096e-001
2.681048e+002,1.362976e+000
2.690690e+002,3.009888e-001
2.700333e+002,-1.834265e+000
2.709975e+002,-1.631067e+000
2.719617e+002,2.211743e+000
2.729260e+002,4.198499e+000
2.738902e+002,2.070520e+000
2.748544e+002,-4.098145e+000
2.758187e+002,-8.404114e+000
2.767829e+002,-9.947876e+000
2.777471e+002,-1.050968e+001
2.787114e+002,-1.022655e+001
2.796756e+002,-9.147364e+000
2.806398e+002,-7.598096e+000
2.816041e+002,-5.612903e+000
2.825683e+002,-3.571533e+000
2.835325e+002,-1.682837e+000
2.844968e+002,-2.731934e-002
2.854610e+002,1.528748e+000
2.864252e+002,4.084290e+000
2.873895e+002,6.762573e+000
2.883537e+002,7.890271e+000
2.893179e+002,6.427209e+000
2.902822e+002,2.253491e+000
2.912464e+002,-1.896606e+000
2.922106e+002,-6.548218e+000
2.931749e+002,-1.064166e+001
2.941391e+002,-1.361342e+001
2.951033e+002,-1.553425e+001
2.960676e+002,-1.610657e+001
2.970318e+002,-1.512512e+001
2.979960e+002,-1.320790e+001
2.989603e+002,-1.089244e+001
2.999245e+002,-8.575989e+000
3.008887e+002,-5.209888e+000
3.018530e+002,1.072424e+000
3.028172e+002,7.995996e+000
3.037814e+002,1.347235e+001
3.047457e+002,1.574510e+001
3.057099e+002,1.527087e+001
3.066741e+002,1.428929e+001
3.076384e+002,1.276740e+001
3.086026e+002,1.058741e+001
3.095668e+002,7.586487e+000
3.105311e+002,3.470166e+000
3.114953e+002,1.187012e-001
3.124595e+002,-2.911938e+000
3.134238e+002,-5.251379e+000
3.143880e+002,-6.410327e+000
3.153522e+002,-5.896729e+000
3.163165e+002,-4.939429e+000
3.172807e+002,-3.208045e+000
3.182449e+002,-1.210852e+000
3.192092e+002,3.662720e-001
3.201734e+002,7.024781e-001
3.211376e+002,1.019873e+000
3.221019e+002,2.160486e+000
3.230661e+002,4.058179e+000
3.240303e+002,6.806128e+000
3.249946e+002,1.076373e+001
3.259588e+002,1.509994e+001
3.269230e+002,1.619315e+001
3.278873e+002,1.391904e+001
3.288515e+002,1.013862e+001
3.298157e+002,8.156799e+000
3.307800e+002,9.801745e+000
3.317442e+002,1.057803e+001
3.327084e+002,9.321569e+000
3.336727e+002,7.338355e+000
3.346369e+002,7.138293e+000
3.356011e+002,1.165288e+001
3.365654e+002,1.464476e+001
3.375296e+002,1.366334e+001
3.384938e+002,1.048169e+001
3.394581e+002,8.000476e+000
3.404223e+002,9.139941e+000
3.413865e+002,1.123900e+001
3.423508e+002,1.146039e+001
3.433150e+002,1.033904e+001
3.442792e+002,9.296155e+000
3.452435e+002,1.054552e+001
3.462077e+002,1.433132e+001
3.471719e+002,1.785748e+001
3.481362e+002,2.015960e+001
3.491004e+002,2.332598e+001
3.500646e+002,3.192991e+001
3.510289e+002,4.406475e+001
3.519931e+002,6.719273e+001
3.529573e+002,1.049685e+002
3.539216e+002,1.528701e+002
3.548858e+002,2.057496e+002
3.558500e+002,2.832786e+002
3.568143e+002,3.322592e+002
3.577785e+002,3.276349e+002
3.587427e+002,2.837748e+002
3.597070e+002,2.245120e+002
3.606712e+002,1.668183e+002
3.616354e+002,1.164820e+002
3.625997e+002,7.871091e+001
3.635639e+002,5.326824e+001
3.645281e+002,3.815406e+001
3.654924e+002,3.001095e+001
3.664566e+002,3.119128e+001
3.674208e+002,3.008392e+001
3.683851e+002,2.555181e+001
3.693493e+002,1.906351e+001
3.703135e+002,1.377572e+001
3.712778e+002,1.006633e+001
3.722420e+002,7.806799e+000
3.732062e+002,7.295813e+000
3.741705e+002,8.052759e+000
3.751347e+002,9.468323e+000
3.760989e+002,1.168378e+001
3.770632e+002,1.387694e+001
3.780274e+002,1.601847e+001
3.789916e+002,1.764882e+001
3.799559e+002,1.804718e+001
3.809201e+002,1.615016e+001
3.818844e+002,1.297794e+001
3.828486e+002,1.161963e+001
3.838128e+002,1.194296e+001
3.847771e+002,1.268599e+001
3.857413e+002,1.191451e+001
3.867055e+002,8.620776e+000
3.876698e+002,6.632800e+000
3.886340e+002,4.897534e+000
3.895982e+002,4.622912e+000
3.905625e+002,8.216199e+000
3.915267e+002,2.033385e+001
3.924909e+002,2.816180e+001
3.934552e+002,2.816720e+001
3.944194e+002,2.406245e+001
3.953836e+002,1.946835e+001
3.963479e+002,1.596113e+001
3.973121e+002,1.402687e+001
3.982763e+002,1.452026e+001
3.992406e+002,1.623590e+001
4.002048e+002,1.733513e+001
4.011690e+002,1.599011e+001
4.021333e+002,1.275044e+001
4.030975e+002,1.226860e+001
4.040617e+002,1.455774e+001
4.050260e+002,1.742801e+001
4.059902e+002,1.855199e+001
4.069544e+002,1.686802e+001
4.079187e+002,1.630470e+001
4.088829e+002,1.788185e+001
4.098471e+002,1.944830e+001
4.108114e+002,1.901710e+001
4.117756e+002,1.549360e+001
4.127398e+002,1.308322e+001
4.137041e+002,1.401188e+001
4.146683e+002,1.604897e+001
4.156325e+002,1.778337e+001
4.165968e+002,1.844308e+001
4.175610e+002,1.838189e+001
4.185252e+002,1.776110e+001
4.194895e+002,1.709989e+001
4.204537e+002,1.707421e+001
4.214179e+002,1.811920e+001
4.223822e+002,2.024619e+001
4.233464e+002,2.377398e+001
4.243106e+002,2.953431e+001
4.252749e+002,3.334969e+001
4.262391e+002,3.168878e+001
4.272033e+002,2.372293e+001
4.281676e+002,2.076985e+001
4.291318e+002,2.651846e+001
4.300960e+002,3.382057e+001
4.310603e+002,3.964170e+001
4.320245e+002,4.380822e+001
4.329887e+002,4.996681e+001
4.339530e+002,5.741445e+001
4.349172e+002,7.115344e+001
4.358814e+002,9.704169e+001
4.368457e+002,1.345563e+002
4.378099e+002,1.787332e+002
4.387741e+002,2.266169e+002
4.397384e+002,2.716694e+002
4.407026e+002,2.913732e+002
4.416668e+002,2.794257e+002
4.426311e+002,2.429384e+002
4.435953e+002,2.053443e+002
4.445595e+002,1.602644e+002
4.455238e+002,1.231402e+002
4.464880e+002,9.604435e+001
4.474522e+002,7.716573e+001
4.484165e+002,6.330972e+001
4.493807e+002,5.718461e+001
4.503449e+002,5.234160e+001
4.513092e+002,4.693622e+001
4.522734e+002,4.126758e+001
4.532376e+002,3.607904e+001
4.542019e+002,3.211082e+001
4.551661e+002,2.890439e+001
4.561303e+002,2.547635e+001
4.570946e+002,2.205773e+001
4.580588e+002,1.910770e+001
4.590230e+002,1.712340e+001
4.599873e+002,1.624731e+001
4.609515e+002,1.565414e+001
4.619157e+002,1.503326e+001
4.628800e+002,1.498148e+001
4.638442e+002,1.623252e+001
4.648084e+002,1.940590e+001
4.657727e+002,2.202407e+001
4.667369e+002,2.446769e+001
4.677011e+002,2.625653e+001
4.686654e+002,2.709694e+001
4.696296e+002,2.687049e+001
4.705938e+002,2.550642e+001
4.715581e+002,2.236694e+001
4.725223e+002,1.857255e+001
4.734865e+002,1.428175e+001
4.744508e+002,9.887622e+000
4.754150e+002,6.203918e+000
4.763792e+002,5.917102e+000
4.773435e+002,8.040418e+000
4.783077e+002,1.073572e+001
4.792719e+002,1.367459e+001
4.802362e+002,1.651843e+001
4.812004e+002,1.714825e+001
4.821646e+002,1.320082e+001
4.831289e+002,9.707739e+000
4.840931e+002,6.390564e+000
4.850573e+002,3.717383e+000
4.860216e+002,3.189002e+000
4.869858e+002,8.336316e+000
4.879500e+002,1.212308e+001
4.889143e+002,1.141963e+001
4.898785e+002,8.011292e+000
4.908427e+002,4.848694e+000
4.918070e+002,4.383972e+000
4.927712e+002,5.356970e+000
4.937354e+002,5.612500e+000
4.946997e+002,5.274158e+000
4.956639e+002,4.554614e+000
4.966281e+002,3.643677e+000
4.975924e+002,2.518866e+000
4.985566e+002,1.973193e+000
4.995208e+002,1.721851e+000
5.004851e+002,2.158026e+000
5.014493e+002,4.094287e+000
5.024135e+002,8.236719e+000
5.033778e+002,1.042618e+001
5.043420e+002,8.931409e+000
5.053063e+002,7.163110e+000
5.062705e+002,6.979614e+000
5.072347e+002,8.522974e+000
5.081990e+002,9.504725e+000
5.091632e+002,6.149560e+000
5.101274e+002,2.318915e+000
5.110917e+002,4.710022e-001
5.120559e+002,1.020666e+000
5.130201e+002,2.911725e+000
5.139844e+002,4.263275e+000
5.149486e+002,4.965210e+000
5.159128e+002,4.992303e+000
5.168771e+002,4.249579e+000
5.178413e+002,3.040106e+000
5.188055e+002,1.990527e+000
5.197698e+002,1.188702e+000
5.207340e+002,4.064453e-001
5.216982e+002,-6.759033e-001
5.226625e+002,-1.618115e+000
5.236267e+002,-1.853540e+000
5.245909e+002,-1.028253e+000
5.255552e+002,-3.735352e-002
5.265194e+002,9.039124e-001
5.274836e+002,1.623761e+000
5.284479e+002,2.035852e+000
5.294121e+002,2.095978e+000
5.303763e+002,1.758685e+000
5.313406e+002,-1.179565e-001
5.323048e+002,-2.603217e+000
5.332690e+002,-3.215088e+000
5.342333e+002,-6.021912e-001
5.351975e+002,4.582208e+000
5.361617e+002,6.914868e+000
5.371260e+002,3.925867e+000
5.380902e+002,2.027618e+000
5.390544e+002,3.004437e+000
5.400187e+002,5.904748e+000
5.409829e+002,7.768048e+000
5.419471e+002,7.589362e+000
5.429114e+002,6.731805e+000
5.438756e+002,5.031348e+000
5.448398e+002,3.014545e+000
5.458041e+002,1.352795e+000
5.467683e+002,5.533386e-001
5.477325e+002,3.885193e-001
5.486968e+002,4.618530e-001
5.496610e+002,6.731140e-001
5.506252e+002,8.834594e-001
5.515895e+002,9.792603e-001
5.525537e+002,9.409363e-001
5.535179e+002,2.954529e-001
5.544822e+002,-1.294745e+000
5.554464e+002,-2.307397e+000
5.564106e+002,-1.727588e+000
5.573749e+002,4.244446e-001
5.583391e+002,2.037927e+000
5.593033e+002,3.005517e+000
5.602676e+002,3.371796e+000
5.612318e+002,2.631702e+000
5.621960e+002,1.192120e+000
5.631603e+002,1.782959e-001
5.641245e+002,7.954529e-001
5.650887e+002,1.740753e+000
5.660530e+002,1.803113e+000
5.670172e+002,1.231488e+000
5.679814e+002,7.817017e-001
5.689457e+002,1.299432e+000
5.699099e+002,2.597388e+000
5.708741e+002,2.518750e+000
5.718384e+002,1.005988e+000
5.728026e+002,-8.346618e-001
5.737668e+002,-2.492896e+000
5.747311e+002,-4.318402e+000
5.756953e+002,-4.116742e+000
5.766595e+002,7.733032e-001
5.776238e+002,4.615497e+000
5.785880e+002,4.554803e+000
5.795522e+002,8.483826e-001
5.805165e+002,-2.902075e+000
5.814807e+002,-4.330823e+000
5.824449e+002,-4.949890e+000
5.834092e+002,-5.724256e+000
5.843734e+002,-6.488397e+000
5.853376e+002,-6.410529e+000
5.863019e+002,-4.293646e+000
5.872661e+002,-7.036621e-001
5.882303e+002,1.065149e+000
5.891946e+002,9.928894e-001
5.901588e+002,3.045898e-001
5.911230e+002,2.814392e-001
5.920873e+002,1.249451e+000
5.930515e+002,1.459369e+000
5.940157e+002,9.179688e-001
5.949800e+002,-4.503174e-002
5.959442e+002,-1.873065e+000
5.969084e+002,-4.462189e+000
5.978727e+002,-5.788275e+000
5.988369e+002,-2.551935e+000
5.998011e+002,5.191528e-001
6.007654e+002,1.362518e+000
6.017296e+002,1.368225e-001
6.026938e+002,-1.957007e+000
6.036581e+002,-3.944958e+000
6.046223e+002,-5.302765e+000
6.055865e+002,-4.642865e+000
6.065508e+002,-2.101239e+000
6.075150e+002,4.996033e-001
6.084792e+002,1.124841e+000
6.094435e+002,-7.689880e-001
6.104077e+002,-1.820007e+000
6.113719e+002,-1.804761e+000
6.123362e+002,-1.577625e+000
6.133004e+002,-1.647003e+000
6.142646e+002,-2.024329e+000
6.152289e+002,-2.064996e+000
6.161931e+002,-4.331604e-001
6.171573e+002,5.710632e-001
6.181216e+002,-3.658752e-001
6.190858e+002,-2.676123e+000
6.200500e+002,-4.881372e+000
6.210143e+002,-5.765173e+000
6.219785e+002,-5.347388e+000
6.229427e+002,-3.777307e+000
6.239070e+002,-1.338147e+000
6.248712e+002,8.827515e-001
6.258354e+002,1.834576e+000
6.267997e+002,1.416943e+000
6.277639e+002,1.583264e+000
6.287281e+002,3.129840e+000
6.296924e+002,3.961920e+000
6.306566e+002,2.387604e+000
6.316208e+002,-1.261469e+000
6.325851e+002,-3.272040e+000
6.335493e+002,-6.852478e-001
6.345135e+002,2.154602e+000
6.354778e+002,4.475830e+000
6.364420e+002,6.022339e+000
6.374063e+002,6.678699e+000
6.383705e+002,6.195251e+000
6.393347e+002,5.062707e+000
6.402990e+002,4.089441e+000
6.412632e+002,3.331085e+000
6.422274e+002,2.924017e+000
6.431917e+002,2.966815e+000
6.441559e+002,3.404279e+000
6.451201e+002,3.370447e+000
6.460844e+002,2.635352e+000
6.470486e+002,1.962805e+000
6.480128e+002,1.737042e+000
6.489771e+002,1.813605e+000
6.499413e+002,1.522620e+000
6.509055e+002,3.548462e-001
6.518698e+002,-7.563294e-001
6.528340e+002,-1.862183e+000
6.537982e+002,-2.621527e+000
6.547625e+002,-2.549213e+000
6.557267e+002,-1.296179e+000
6.566909e+002,3.830383e-001
6.576552e+002,1.583673e+000
6.586194e+002,2.343701e+000
6.595836e+002,2.559711e+000
6.605479e+002,2.232550e+000
6.615121e+002,1.635681e+000
6.624763e+002,1.799536e+000
6.634406e+002,3.151044e+000
6.644048e+002,4.103729e+000
6.653690e+002,4.364630e+000
6.663333e+002,4.010376e+000
6.672975e+002,3.111572e+000
6.682617e+002,1.114459e+000
6.692260e+002,1.088867e-001
6.701902e+002,1.238397e+000
6.711544e+002,2.866620e+000
6.721187e+002,3.637732e+000
6.730829e+002,3.066925e+000
6.740471e+002,1.932336e+000
6.750114e+002,8.807983e-001
6.759756e+002,1.731811e-001
6.769398e+002,4.020691e-001
6.779041e+002,1.566126e+000
6.788683e+002,2.949689e+000
6.798325e+002,3.233783e+000
6.807968e+002,1.939215e+000
6.817610e+002,1.401532e+000
6.827252e+002,2.209271e+000
6.836895e+002,3.255005e+000
6.846537e+002,3.465234e+000
6.856179e+002,2.620288e+000
6.865822e+002,2.016736e+000
6.875464e+002,2.253564e+000
6.885106e+002,2.519324e+000
6.894749e+002,2.378937e+000
6.904391e+002,1.912427e+000
6.914034e+002,1.614130e+000
6.923676e+002,2.134003e+000
6.933318e+002,2.840832e+000
6.942961e+002,2.781451e+000
6.952603e+002,2.089581e+000
6.962245e+002,1.208917e+000
6.971888e+002,5.169983e-001
6.981530e+002,-1.489868e-002
6.991172e+002,-1.636658e-001
7.000815e+002,1.213623e-001
7.010457e+002,4.940674e-001
7.020099e+002,8.190796e-001
7.029742e+002,1.188739e+000
7.039384e+002,1.966791e+000
7.049026e+002,4.208960e+000
7.058669e+002,5.329907e+000
7.068311e+002,3.518420e+000
7.077953e+002,6.871582e-001
7.087596e+002,-5.917541e-001
7.097238e+002,1.136444e+000
7.106880e+002,3.805035e+000
7.116523e+002,3.769305e+000
7.126165e+002,2.377112e+000
7.135807e+002,1.701129e+000
7.145450e+002,2.531354e+000
7.155092e+002,4.103137e+000
7.164734e+002,4.264752e+000
7.174377e+002,1.977301e+000
7.184019e+002,3.768799e-001
7.193661e+002,-2.639465e-001
7.203304e+002,-4.928711e-001
7.212946e+002,-9.013427e-001
7.222589e+002,-1.608990e+000
7.232231e+002,-1.907941e+000
7.241873e+002,-1.426343e+000
7.251516e+002,-6.644409e-001
7.261158e+002,1.546326e-001
7.270800e+002,9.473633e-001
7.280443e+002,1.804443e+000
7.290085e+002,3.038953e+000
7.299727e+002,4.178955e+000
7.309370e+002,4.064142e+000
7.319012e+002,2.904102e+000
7.328654e+002,2.020117e+000
7.338297e+002,2.727600e+000
7.347939e+002,5.168536e+000
7.357581e+002,5.506848e+000
7.367224e+002,1.748859e+000
7.376866e+002,-1.209033e+000
7.386508e+002,-1.608154e+000
7.396151e+002,-2.495605e-001
7.405793e+002,6.579040e-001
7.415435e+002,5.162048e-001
7.425078e+002,-1.237427e-001
7.434720e+002,-1.515686e+000
7.444362e+002,-3.006659e+000
7.454005e+002,-4.061236e+000
7.463647e+002,-4.386121e+000
7.473289e+002,-3.853503e+000
7.482932e+002,-1.110669e+000
7.492574e+002,2.676715e+000
7.502216e+002,4.021820e+000
7.511859e+002,1.919592e+000
7.521501e+002,-1.782983e+000
7.531143e+002,-3.632330e+000
7.540786e+002,-2.357867e+000
7.550428e+002,-2.126910e+000
7.560070e+002,-3.773968e+000
7.569713e+002,-5.454364e+000
7.579355e+002,-6.174914e+000
7.588997e+002,-5.868299e+000
7.598640e+002,-5.011011e+000
7.608282e+002,-3.453393e+000
7.617924e+002,-1.669550e+000
7.627567e+002,3.428833e-001
7.637209e+002,2.339539e+000
7.646851e+002,3.761951e+000
7.656494e+002,4.117072e+000
7.666136e+002,3.998352e+000
7.675778e+002,6.615875e+000
7.685421e+002,1.153221e+001
7.695063e+002,1.468744e+001
7.704705e+002,1.403591e+001
7.714348e+002,1.033704e+001
7.723990e+002,6.542743e+000
7.733632e+002,2.029974e+000
7.743275e+002,-1.570209e+000
7.752917e+002,-4.397345e+000
7.762559e+002,-6.147614e+000
7.772202e+002,-6.157111e+000
7.781844e+002,-4.270087e+000
7.791486e+002,-2.301160e+000
7.801129e+002,-1.693524e+000
7.810771e+002,-1.805164e+000
7.820413e+002,-2.630939e+000
7.830056e+002,-3.876117e+000
7.839698e+002,-4.927386e+000
7.849340e+002,-5.088190e+000
7.858983e+002,-4.368262e+000
7.868625e+002,-3.667377e+000
7.878267e+002,-3.059747e+000
7.887910e+002,-2.332770e+000
7.897552e+002,-1.035107e+000
7.907194e+002,6.819885e-001
7.916837e+002,1.396173e+000
7.926479e+002,-1.368713e-001
7.936121e+002,-1.323273e+000
7.945764e+002,-1.457367e+000
7.955406e+002,-1.138196e+000
7.965048e+002,-1.044861e+000
7.974691e+002,-1.410400e+000
7.984333e+002,-1.795526e+000
7.993975e+002,-1.727295e+000
8.003618e+002,-1.419098e+000
8.013260e+002,-9.689087e-001
8.022902e+002,-4.232422e-001
8.032545e+002,1.814819e-001
8.042187e+002,8.380371e-001
8.051829e+002,1.699115e+000
8.061472e+002,1.606879e+000
8.071114e+002,-2.304443e-001
8.080756e+002,-2.001801e+000
8.090399e+002,-2.889679e+000
8.100041e+002,-2.909857e+000
8.109683e+002,-2.303210e+000
8.119326e+002,-3.609497e-001
8.128968e+002,1.142920e+000
8.138610e+002,1.385852e+000
8.148253e+002,9.264466e-001
8.157895e+002,2.355530e-001
8.167537e+002,-4.007691e-001
8.177180e+002,-5.684692e-001
8.186822e+002,9.565613e-001
8.196464e+002,3.542572e+000
8.206107e+002,6.012164e+000
8.215749e+002,8.143311e+000
8.225391e+002,9.539264e+000
8.235034e+002,9.411304e+000
8.244676e+002,6.958014e+000
8.254318e+002,5.408606e+000
8.263961e+002,5.275885e+000
8.273603e+002,5.327295e+000
8.283245e+002,4.746924e+000
8.292888e+002,3.753857e+000
8.302530e+002,3.525562e+000
8.312172e+002,5.273096e+000
8.321815e+002,6.770874e+000
8.331457e+002,6.214929e+000
8.341099e+002,4.711291e+000
8.350742e+002,3.743634e+000
8.360384e+002,4.022833e+000
8.370026e+002,4.944458e+000
8.379669e+002,5.087030e+000
8.389311e+002,4.383563e+000
8.398953e+002,3.958954e+000
8.408596e+002,4.131091e+000
8.418238e+002,4.332861e+000
8.427880e+002,3.855707e+000
8.437523e+002,2.569202e+000
8.447165e+002,1.345428e+000
8.456807e+002,1.973328e-001
8.466450e+002,-7.558349e-001
8.476092e+002,-1.574793e+000
8.485734e+002,-2.198224e+000
8.495377e+002,-2.389081e+000
8.505019e+002,-1.880176e+000
8.514661e+002,-1.227435e+000
8.524304e+002,-1.196905e+000
8.533946e+002,-1.544769e+000
8.543588e+002,-1.977289e+000
8.553231e+002,-2.374652e+000
8.562873e+002,-2.733099e+000
8.572515e+002,-3.039502e+000
8.582158e+002,-3.240143e+000
8.591800e+002,-3.601843e+000
8.601442e+002,-4.714307e+000
8.611085e+002,-5.481116e+000
8.620727e+002,-4.668982e+000
8.630369e+002,-2.430450e+000
8.640012e+002,-1.201892e+000
8.649654e+002,-2.780310e+000
8.659296e+002,-4.467908e+000
8.668939e+002,-5.482745e+000
8.678581e+002,-5.708160e+000
8.688223e+002,-4.702826e+000
8.697866e+002,-2.387976e+000
8.707508e+002,2.008057e-002
8.717150e+002,-6.044372e-001
8.726793e+002,-3.484637e+000
8.736435e+002,-4.714831e+000
8.746077e+002,-3.334430e+000
8.755720e+002,-1.226941e+000
8.765362e+002,-9.179382e-001
8.775004e+002,-2.914496e+000
8.784647e+002,-4.514581e+000
8.794289e+002,-6.057733e+000
8.803931e+002,-6.837054e+000
8.813574e+002,-6.084302e+000
8.823216e+002,-4.498572e+000
8.832858e+002,-3.430749e+000
8.842501e+002,-3.536444e+000
8.852143e+002,-3.948621e+000
8.861785e+002,-3.628198e+000
8.871428e+002,-3.214001e+000
8.881070e+002,-3.587079e+000
8.890712e+002,-4.908203e+000
8.900355e+002,-6.538141e+000
8.909997e+002,-7.432501e+000
8.919639e+002,-7.425330e+000
8.929282e+002,-7.724616e+000
8.938924e+002,-8.912359e+000
8.948566e+002,-9.637732e+000
8.958209e+002,-8.920392e+000
8.967851e+002,-7.108527e+000
8.977493e+002,-5.709082e+000
8.987136e+002,-5.174194e+000
8.996778e+002,-4.967151e+000
9.006420e+002,-4.887079e+000
9.016063e+002,-4.930865e+000
9.025705e+002,-5.057770e+000
9.035347e+002,-5.265100e+000
9.044990e+002,-5.683136e+000
9.054632e+002,-6.688745e+000
9.064274e+002,-8.020788e+000
9.073917e+002,-8.355878e+000
9.083559e+002,-7.595581e+000
9.093201e+002,-6.877753e+000
9.102844e+002,-7.308215e+000
9.112486e+002,-8.782751e+000
9.122128e+002,-9.134283e+000
9.131771e+002,-7.242212e+000
9.141413e+002,-5.579291e+000
9.151055e+002,-4.146100e+000
9.160698e+002,-3.146582e+000
9.170340e+002,-3.194153e+000
9.179982e+002,-4.342029e+000
9.189625e+002,-4.864258e+000
9.199267e+002,-2.172882e+000
9.208909e+002,8.865845e-001
9.218552e+002,1.316583e+000
9.228194e+002,-4.539978e-001
9.237836e+002,-2.621979e+000
9.247479e+002,-3.775116e+000
9.257121e+002,-4.036981e+000
9.266763e+002,-4.102674e+000
9.276406e+002,-3.959106e+000
9.286048e+002,-3.669885e+000
9.295690e+002,-2.906653e+000
9.305333e+002,-2.200385e+000
9.314975e+002,-2.284936e+000
9.324617e+002,-3.309479e+000
9.334260e+002,-4.196191e+000
9.343902e+002,-4.793958e+000
9.353545e+002,-4.831836e+000
9.363187e+002,-3.508984e+000
9.372830e+002,-1.639240e+000
9.382472e+002,-7.049378e-001
9.392114e+002,-1.584576e+000
9.401757e+002,-3.384460e+000
9.411399e+002,-4.180994e+000
9.421041e+002,-4.126465e+000
9.430684e+002,-3.587616e+000
9.440326e+002,-2.421637e+000
9.449968e+002,-1.324988e+000
9.459611e+002,-1.345972e+000
9.469253e+002,-2.724097e+000
9.478895e+002,-3.172498e+000
9.488538e+002,-1.544275e+000
9.498180e+002,-1.641968e-001
9.507822e+002,1.756409e-001
9.517465e+002,-1.122192e-001
9.527107e+002,-3.723694e-001
9.536749e+002,-3.242432e-001
9.546392e+002,-6.646118e-002
9.556034e+002,2.700989e-001
9.565676e+002,6.780701e-001
9.575319e+002,1.324268e+000
9.584961e+002,2.204749e+000
9.594603e+002,2.983691e+000
9.604246e+002,3.262238e+000
9.613888e+002,3.005719e+000
9.623530e+002,2.797967e+000
9.633173e+002,2.413965e+000
9.642815e+002,2.355078e+000
9.652457e+002,2.455682e+000
9.662100e+002,3.156885e+000
9.671742e+002,4.847186e+000
9.681384e+002,7.553485e+000
9.691027e+002,1.133834e+001
9.700669e+002,1.223364e+001
9.710311e+002,1.805801e+001
9.719954e+002,3.801369e+001
9.729596e+002,6.734526e+001
9.739238e+002,9.743557e+001
9.748881e+002,1.219833e+002
9.758523e+002,1.369854e+002
9.768165e+002,1.258153e+002
9.777808e+002,8.159154e+001
9.787450e+002,4.783745e+001
9.797092e+002,3.232640e+001
9.806735e+002,2.590298e+001
9.816377e+002,2.087766e+001
9.826019e+002,1.727087e+001
9.835662e+002,1.502325e+001
9.845304e+002,1.534238e+001
9.854946e+002,1.574310e+001
9.864589e+002,1.528157e+001
9.874231e+002,1.447736e+001
9.883873e+002,1.392870e+001
9.893516e+002,1.385977e+001
9.903158e+002,1.415417e+001
9.912800e+002,1.473526e+001
9.922443e+002,1.577106e+001
9.932085e+002,1.698853e+001
9.941727e+002,1.827131e+001
9.951370e+002,2.122629e+001
9.961012e+002,2.682320e+001
9.970654e+002,3.486318e+001
9.980297e+002,4.391291e+001
9.989939e+002,4.246434e+001
9.999581e+002,6.380695e+001
1.000922e+003,1.076473e+002
1.001887e+003,1.759575e+002
1.002851e+003,3.038360e+002
1.003815e+003,4.684618e+002
1.004779e+003,5.708336e+002
1.005744e+003,5.290497e+002
1.006708e+003,4.078393e+002
1.007672e+003,2.944843e+002
1.008636e+003,1.928929e+002
1.009600e+003,1.180815e+002
1.010565e+003,7.689349e+001
1.011529e+003,5.928559e+001
1.012493e+003,4.662705e+001
1.013457e+003,4.031808e+001
1.014422e+003,3.525404e+001
1.015386e+003,3.166842e+001
1.016350e+003,2.873162e+001
1.017314e+003,2.607180e+001
1.018279e+003,2.371226e+001
1.019243e+003,2.196434e+001
1.020207e+003,2.109413e+001
1.021171e+003,2.019542e+001
1.022135e+003,1.802417e+001
1.023100e+003,1.582051e+001
1.024064e+003,1.475651e+001
1.025028e+003,1.477064e+001
1.025992e+003,1.508904e+001
1.026957e+003,1.504428e+001
1.027921e+003,1.472277e+001
1.028885e+003,1.441459e+001
1.029849e+003,1.388589e+001
1.030814e+003,1.394169e+001
1.031778e+003,1.504382e+001
1.032742e+003,1.627957e+001
1.033706e+003,1.682267e+001
1.034671e+003,1.670260e+001
1.035635e+003,1.657499e+001
1.036599e+003,1.666716e+001
1.037563e+003,1.681987e+001
1.038527e+003,1.690453e+001
1.039492e+003,1.696459e+001
1.040456e+003,1.710197e+001
1.041420e+003,1.734440e+001
1.042384e+003,1.760305e+001
1.043349e+003,1.774095e+001
1.044313e+003,1.773591e+001
1.045277e+003,1.758120e+001
1.046241e+003,1.720389e+001
1.047206e+003,1.686155e+001
1.048170e+003,1.648905e+001
1.049134e+003,1.628298e+001
1.050098e+003,1.692569e+001
1.051063e+003,1.898171e+001
1.052027e+003,2.043690e+001
1.052991e+003,1.959402e+001
1.053955e+003,1.879733e+001
1.054919e+003,2.004226e+001
1.055884e+003,2.235056e+001
1.056848e+003,2.315397e+001
1.057812e+003,2.095297e+001
1.058776e+003,1.762690e+001
1.059741e+003,1.714733e+001
1.060705e+003,1.905712e+001
1.061669e+003,2.030051e+001
1.062633e+003,2.049872e+001
1.063598e+003,1.995171e+001
1.064562e+003,1.854543e+001
1.065526e+003,1.646778e+001
1.066490e+003,1.565228e+001
1.067454e+003,1.686205e+001
1.068419e+003,1.839705e+001
1.069383e+003,1.991196e+001
1.070347e+003,2.137499e+001
1.071311e+003,2.305839e+001
1.072276e+003,2.481255e+001
1.073240e+003,2.600648e+001
1.074204e+003,2.612314e+001
1.075168e+003,2.545671e+001
1.076133e+003,2.445958e+001
1.077097e+003,2.324568e+001
1.078061e+003,2.222944e+001
1.079025e+003,2.147758e+001
1.079990e+003,2.109974e+001
1.080954e+003,2.137580e+001
1.081918e+003,2.244191e+001
1.082882e+003,2.324187e+001
1.083846e+003,2.353784e+001
1.084811e+003,2.370635e+001
1.085775e+003,2.379216e+001
1.086739e+003,2.378739e+001
1.087703e+003,2.367836e+001
1.088668e+003,2.353051e+001
1.089632e+003,2.351176e+001
1.090596e+003,2.376261e+001
1.091560e+003,2.406141e+001
1.092525e+003,2.391741e+001
1.093489e+003,2.343173e+001
1.094453e+003,2.312783e+001
1.095417e+003,2.324464e+001
1.096381e+003,2.378641e+001
1.097346e+003,2.489447e+001
1.098310e+003,2.701060e+001
1.099274e+003,2.810026e+001
1.100238e+003,2.744309e+001
1.101203e+003,2.680887e+001
1.102167e+003,2.656579e+001
1.103131e+003,2.664755e+001
1.104095e+003,2.696542e+001
1.105060e+003,2.745800e+001
1.106024e+003,2.792520e+001
1.106988e+003,2.807957e+001
1.107952e+003,2.842645e+001
1.108917e+003,3.001458e+001
1.109881e+003,3.241695e+001
1.110845e+003,3.388428e+001
1.111809e+003,3.338540e+001
1.112773e+003,3.170798e+001
1.113738e+003,3.068203e+001
1.114702e+003,3.035477e+001
1.115666e+003,3.095452e+001
1.116630e+003,3.417689e+001
1.117595e+003,3.598060e+001
1.118559e+003,3.352277e+001
1.119523e+003,2.941706e+001
1.120487e+003,2.780941e+001
1.121452e+003,2.985295e+001
1.122416e+003,3.269566e+001
1.123380e+003,3.405700e+001
1.124344e+003,3.448466e+001
1.125308e+003,3.472092e+001
1.126273e+003,3.490672e+001
1.127237e+003,3.537186e+001
1.128201e+003,3.634074e+001
1.129165e+003,3.729750e+001
1.130130e+003,3.688978e+001
1.131094e+003,3.428460e+001
1.132058e+003,3.264864e+001
1.133022e+003,3.206458e+001
1.133987e+003,3.219786e+001
1.134951e+003,3.356448e+001
1.135915e+003,3.540232e+001
1.136879e+003,3.674476e+001
1.137844e+003,3.732092e+001
1.138808e+003,3.719482e+001
1.139772e+003,3.573530e+001
1.140736e+003,3.405854e+001
1.141700e+003,3.402061e+001
1.142665e+003,3.525230e+001
1.143629e+003,3.630774e+001
1.144593e+003,3.647897e+001
1.145557e+003,3.645841e+001
1.146522e+003,3.769308e+001
1.147486e+003,4.071517e+001
1.148450e+003,4.212329e+001
1.149414e+003,4.102294e+001
1.150379e+003,3.989069e+001
1.151343e+003,3.928923e+001
1.152307e+003,3.904250e+001
1.153271e+003,3.876454e+001
1.154235e+003,3.834961e+001
1.155200e+003,3.819036e+001
1.156164e+003,3.875726e+001
1.157128e+003,3.976043e+001
1.158092e+003,4.103159e+001
1.159057e+003,4.223677e+001
1.160021e+003,4.216731e+001
1.160985e+003,4.029308e+001
1.161949e+003,3.832040e+001
1.162914e+003,3.908993e+001
1.163878e+003,4.307652e+001
1.164842e+003,4.568145e+001
1.165806e+003,4.589564e+001
1.166771e+003,4.579518e+001
1.167735e+003,4.548304e+001
1.168699e+003,4.507645e+001
1.169663e+003,4.440530e+001
1.170627e+003,4.364580e+001
1.171592e+003,4.367542e+001
1.172556e+003,4.534132e+001
1.173520e+003,4.727659e+001
1.174484e+003,4.713450e+001
1.175449e+003,4.574736e+001
1.176413e+003,4.439877e+001
1.177377e+003,4.336658e+001
1.178341e+003,4.322842e+001
1.179306e+003,4.495103e+001
1.180270e+003,4.832735e+001
1.181234e+003,5.024974e+001
1.182198e+003,4.922656e+001
1.183162e+003,4.922861e+001
1.184127e+003,5.187791e+001
1.185091e+003,5.428419e+001
1.186055e+003,5.427003e+001
1.187019e+003,5.273460e+001
1.187984e+003,5.219019e+001
1.188948e+003,5.376311e+001
1.189912e+003,5.543895e+001
1.190876e+003,5.411301e+001
1.191841e+003,5.129214e+001
1.192805e+003,5.105425e+001
1.193769e+003,5.358723e+001
1.194733e+003,5.580584e+001
1.195698e+003,5.558556e+001
1.196662e+003,5.389256e+001
1.197626e+003,5.347913e+001
1.198590e+003,5.499491e+001
1.199554e+003,5.528850e+001
1.200519e+003,5.177016e+001
1.201483e+003,4.975914e+001
1.202447e+003,5.263579e+001
1.203411e+003,5.712240e+001
1.204376e+003,5.869161e+001
1.205340e+003,5.645985e+001
1.206304e+003,5.354584e+001
1.207268e+003,5.285388e+001
1.208233e+003,5.389661e+001
1.209197e+003,5.474452e+001
1.210161e+003,5.536506e+001
1.211125e+003,5.664857e+001
1.212089e+003,5.932156e+001
1.213054e+003,6.164466e+001
1.214018e+003,6.128087e+001
1.214982e+003,5.863491e+001
1.215946e+003,5.753984e+001
1.216911e+003,5.892554e+001
1.217875e+003,6.067667e+001
1.218839e+003,6.219300e+001
1.219803e+003,6.355514e+001
1.220768e+003,6.537937e+001
1.221732e+003,6.724684e+001
1.222696e+003,6.775716e+001
1.223660e+003,6.617065e+001
1.224625e+003,6.394161e+001
1.225589e+003,6.373928e+001
1.226553e+003,6.556948e+001
1.227517e+003,6.677583e+001
1.228481e+003,6.730786e+001
1.229446e+003,6.760864e+001
1.230410e+003,6.776170e+001
1.231374e+003,6.780630e+001
1.232338e+003,6.781919e+001
1.233303e+003,6.785635e+001
1.234267e+003,6.808627e+001
1.235231e+003,6.848450e+001
1.236195e+003,6.910335e+001
1.237160e+003,7.031858e+001
1.238124e+003,7.145998e+001
1.239088e+003,7.171306e+001
1.240052e+003,7.101579e+001
1.241016e+003,6.984380e+001
1.241981e+003,6.860018e+001
1.242945e+003,6.747528e+001
1.243909e+003,6.743502e+001
1.244873e+003,6.926780e+001
1.245838e+003,7.047243e+001
1.246802e+003,7.076842e+001
1.247766e+003,7.066850e+001
1.248730e+003,7.002145e+001
1.249695e+003,6.928087e+001
1.250659e+003,6.968907e+001
1.251623e+003,7.167029e+001
1.252587e+003,7.313350e+001
1.253552e+003,7.196126e+001
1.254516e+003,7.026299e+001
1.255480e+003,7.001286e+001
1.256444e+003,7.095487e+001
1.257408e+003,7.262616e+001
1.258373e+003,7.479564e+001
1.259337e+003,7.670227e+001
1.260301e+003,7.721912e+001
1.261265e+003,7.639317e+001
1.262230e+003,7.583838e+001
1.263194e+003,7.522788e+001
1.264158e+003,7.501398e+001
1.265122e+003,7.577179e+001
1.266087e+003,7.646948e+001
1.267051e+003,7.624138e+001
1.268015e+003,7.548759e+001
1.268979e+003,7.517582e+001
1.269943e+003,7.567290e+001
1.270908e+003,7.671737e+001
1.271872e+003,7.817609e+001
1.272836e+003,7.992440e+001
1.273800e+003,8.190295e+001
1.274765e+003,8.402722e+001
1.275729e+003,8.513338e+001
1.276693e+003,8.438985e+001
1.277657e+003,8.288560e+001
1.278622e+003,8.220482e+001
1.279586e+003,8.232731e+001
1.280550e+003,8.272284e+001
1.281514e+003,8.416264e+001
1.282479e+003,8.497253e+001
1.283443e+003,8.379292e+001
1.284407e+003,8.256570e+001
1.285371e+003,8.269938e+001
1.286335e+003,8.403300e+001
1.287300e+003,8.589226e+001
1.288264e+003,8.795052e+001
1.289228e+003,9.002203e+001
1.290192e+003,9.188463e+001
1.291157e+003,9.339243e+001
1.292121e+003,9.262444e+001
1.293085e+003,8.837337e+001
1.294049e+003,8.525967e+001
1.295014e+003,8.569275e+001
1.295978e+003,8.765751e+001
1.296942e+003,8.870298e+001
1.297906e+003,8.891679e+001
1.298870e+003,9.008553e+001
1.299835e+003,9.349023e+001
1.300799e+003,9.570573e+001
1.301763e+003,9.329051e+001
1.302727e+003,8.963407e+001
1.303692e+003,8.768945e+001
1.304656e+003,8.766805e+001
1.305620e+003,8.863086e+001
1.306584e+003,8.994196e+001
1.307549e+003,9.121084e+001
1.308513e+003,9.169401e+001
1.309477e+003,9.115373e+001
1.310441e+003,9.111108e+001
1.311406e+003,9.217548e+001
1.312370e+003,9.306586e+001
1.313334e+003,9.349326e+001
1.314298e+003,9.380879e+001
1.315263e+003,9.421494e+001
1.316227e+003,9.478497e+001
1.317191e+003,9.574007e+001
1.318155e+003,9.722278e+001
1.319120e+003,9.836821e+001
1.320084e+003,9.789764e+001
1.321048e+003,9.656010e+001
1.322012e+003,9.626494e+001
1.322976e+003,9.693764e+001
1.323941e+003,9.719136e+001
1.324905e+003,9.627637e+001
1.325869e+003,9.516154e+001
1.326833e+003,9.523726e+001
1.327798e+003,9.645482e+001
1.328762e+003,9.768317e+001
1.329726e+003,9.907965e+001
1.330690e+003,9.986272e+001
1.331655e+003,9.935997e+001
1.332619e+003,9.877281e+001
1.333583e+003,9.928404e+001
1.334547e+003,1.002460e+002
1.335511e+003,9.981372e+001
1.336476e+003,9.751105e+001
1.337440e+003,9.569633e+001
1.338404e+003,9.748309e+001
1.339368e+003,1.023344e+002
1.340333e+003,1.051432e+002
1.341297e+003,1.051109e+002
1.342261e+003,1.053922e+002
1.343225e+003,1.075065e+002
1.344190e+003,1.088875e+002
1.345154e+003,1.065112e+002
1.346118e+003,1.023197e+002
1.347082e+003,1.014484e+002
1.348047e+003,1.051725e+002
1.349011e+003,1.084986e+002
1.349975e+003,1.079022e+002
1.350939e+003,1.062589e+002
1.351903e+003,1.069342e+002
1.352868e+003,1.088898e+002
1.353832e+003,1.099140e+002
1.354796e+003,1.094501e+002
1.355760e+003,1.086211e+002
1.356725e+003,1.084220e+002
1.357689e+003,1.087989e+002
1.358653e+003,1.096285e+002
1.359617e+003,1.114228e+002
1.360582e+003,1.121651e+002
1.361546e+003,1.105084e+002
1.362510e+003,1.091548e+002
1.363474e+003,1.094654e+002
1.364438e+003,1.104345e+002
1.365403e+003,1.107276e+002
1.366367e+003,1.102007e+002
1.367331e+003,1.095978e+002
1.368295e+003,1.094311e+002
1.369260e+003,1.096307e+002
1.370224e+003,1.100815e+002
1.371188e+003,1.110126e+002
1.372152e+003,1.130754e+002
1.373117e+003,1.167942e+002
1.374081e+003,1.194773e+002
1.375045e+003,1.200001e+002
1.376009e+003,1.192631e+002
1.376974e+003,1.177750e+002
1.377938e+003,1.159164e+002
1.378902e+003,1.152086e+002
1.379866e+003,1.162215e+002
1.380830e+003,1.174428e+002
1.381795e+003,1.178694e+002
1.382759e+003,1.180153e+002
1.383723e+003,1.181232e+002
1.384687e+003,1.184787e+002
1.385652e+003,1.198747e+002
1.386616e+003,1.225479e+002
1.387580e+003,1.250009e+002
1.388544e+003,1.252142e+002
1.389509e+003,1.234107e+002
1.390473e+003,1.224934e+002
1.391437e+003,1.230668e+002
1.392401e+003,1.236299e+002
1.393365e+003,1.238490e+002
1.394330e+003,1.240521e+002
1.395294e+003,1.241109e+002
1.396258e+003,1.242375e+002
1.397222e+003,1.249835e+002
1.398187e+003,1.264031e+002
1.399151e+003,1.279347e+002
1.400115e+003,1.290564e+002
1.401079e+003,1.297915e+002
1.402044e+003,1.304196e+002
1.403008e+003,1.309305e+002
1.403972e+003,1.306462e+002
1.404936e+003,1.291809e+002
1.405901e+003,1.282119e+002
1.406865e+003,1.286491e+002
1.407829e+003,1.294026e+002
1.408793e+003,1.288580e+002
1.409757e+003,1.276086e+002
1.410722e+003,1.286645e+002
1.411686e+003,1.332606e+002
1.412650e+003,1.367983e+002
1.413614e+003,1.350327e+002
1.414579e+003,1.319045e+002
1.415543e+003,1.317922e+002
1.416507e+003,1.339391e+002
1.417471e+003,1.361701e+002
1.418436e+003,1.377176e+002
1.419400e+003,1.384759e+002
1.420364e+003,1.382725e+002
1.421328e+003,1.374874e+002
1.422292e+003,1.371856e+002
1.423257e+003,1.371864e+002
1.424221e+003,1.377882e+002
1.425185e+003,1.395598e+002
1.426149e+003,1.411310e+002
1.427114e+003,1.428080e+002
1.428078e+003,1.440851e+002
1.429042e+003,1.434577e+002
1.430006e+003,1.417340e+002
1.430971e+003,1.417822e+002
1.431935e+003,1.449703e+002
1.432899e+003,1.489350e+002
1.433863e+003,1.502389e+002
1.434828e+003,1.492383e+002
1.435792e+003,1.493767e+002
1.436756e+003,1.515480e+002
1.437720e+003,1.520897e+002
1.438684e+003,1.489222e+002
1.439649e+003,1.466209e+002
1.440613e+003,1.488242e+002
1.441577e+003,1.531643e+002
1.442541e+003,1.557778e+002
1.443506e+003,1.558291e+002
1.444470e+003,1.538285e+002
1.445434e+003,1.496113e+002
1.446398e+003,1.455547e+002
1.447363e+003,1.449463e+002
1.448327e+003,1.468986e+002
1.449291e+003,1.498123e+002
1.450255e+003,1.536877e+002
1.451219e+003,1.566006e+002
1.452184e+003,1.571937e+002
1.453148e+003,1.567383e+002
1.454112e+003,1.566452e+002
1.455076e+003,1.568981e+002
1.456041e+003,1.576012e+002
1.457005e+003,1.589940e+002
1.457969e+003,1.605418e+002
1.458933e+003,1.626806e+002
1.459898e+003,1.641060e+002
1.460862e+003,1.631517e+002
1.461826e+003,1.612113e+002
1.462790e+003,1.604485e+002
1.463755e+003,1.612297e+002
1.464719e+003,1.625549e+002
1.465683e+003,1.637444e+002
1.466647e+003,1.648045e+002
1.467611e+003,1.657275e+002
1.468576e+003,1.665305e+002
1.469540e+003,1.664988e+002
1.470504e+003,1.647767e+002
1.471468e+003,1.637798e+002
1.472433e+003,1.644615e+002
1.473397e+003,1.652050e+002
1.474361e+003,1.645552e+002
1.475325e+003,1.635332e+002
1.476290e+003,1.640126e+002
1.477254e+003,1.661843e+002
1.478218e+003,1.685465e+002
1.479182e+003,1.699796e+002
1.480146e+003,1.705812e+002
1.481111e+003,1.703257e+002
1.482075e+003,1.690086e+002
1.483039e+003,1.679927e+002
1.484003e+003,1.667149e+002
1.484968e+003,1.665486e+002
1.485932e+003,1.689454e+002
1.486896e+003,1.718131e+002
1.487860e+003,1.737595e+002
1.488825e+003,1.744192e+002
1.489789e+003,1.728527e+002
1.490753e+003,1.690854e+002
1.491717e+003,1.664875e+002
1.492682e+003,1.676686e+002
1.493646e+003,1.703999e+002
1.494610e+003,1.707606e+002
1.495574e+003,1.696098e+002
1.496538e+003,1.700511e+002
1.497503e+003,1.727226e+002
1.498467e+003,1.748759e+002
1.499431e+003,1.743594e+002
1.500395e+003,1.730402e+002
1.501360e+003,1.737851e+002
1.502324e+003,1.761574e+002
1.503288e+003,1.775085e+002
1.504252e+003,1.772905e+002
1.505217e+003,1.757805e+002
1.506181e+003,1.721676e+002
1.507145e+003,1.685624e+002
1.508109e+003,1.662798e+002
1.509073e+003,1.653129e+002
1.510038e+003,1.657534e+002
1.511002e+003,1.675014e+002
1.511966e+003,1.702879e+002
1.512930e+003,1.743395e+002
1.513895e+003,1.781073e+002
1.514859e+003,1.781424e+002
1.515823e+003,1.743593e+002
1.516787e+003,1.723489e+002
1.517752e+003,1.733054e+002
1.518716e+003,1.738604e+002
1.519680e+003,1.724185e+002
1.520644e+003,1.709158e+002
1.521609e+003,1.697092e+002
1.522573e+003,1.692470e+002
1.523537e+003,1.713211e+002
1.524501e+003,1.749192e+002
1.525465e+003,1.757085e+002
1.526430e+003,1.712314e+002
1.527394e+003,1.648434e+002
1.528358e+003,1.618986e+002
1.529322e+003,1.622359e+002
1.530287e+003,1.624515e+002
1.531251e+003,1.627657e+002
1.532215e+003,1.627635e+002
1.533179e+003,1.616748e+002
1.534144e+003,1.610717e+002
1.535108e+003,1.621027e+002
1.536072e+003,1.634504e+002
1.537036e+003,1.638451e+002
1.538000e+003,1.632592e+002
1.538965e+003,1.619388e+002
1.539929e+003,1.600813e+002
1.540893e+003,1.586804e+002
1.541857e+003,1.590571e+002
1.542822e+003,1.608217e+002
1.543786e+003,1.617515e+002
1.544750e+003,1.615420e+002
1.545714e+003,1.608274e+002
1.546679e+003,1.590127e+002
1.547643e+003,1.573556e+002
1.548607e+003,1.564099e+002
1.549571e+003,1.559198e+002
1.550536e+003,1.552031e+002
1.551500e+003,1.544864e+002
1.552464e+003,1.553834e+002
1.553428e+003,1.582620e+002
1.554392e+003,1.597745e+002
1.555357e+003,1.567142e+002
1.556321e+003,1.517031e+002
1.557285e+003,1.508099e+002
1.558249e+003,1.537344e+002
1.559214e+003,1.523435e+002
1.560178e+003,1.440338e+002
1.561142e+003,1.385198e+002
1.562106e+003,1.413789e+002
1.563071e+003,1.456542e+002
1.564035e+003,1.452150e+002
1.564999e+003,1.417931e+002
1.565963e+003,1.390841e+002
1.566927e+003,1.377687e+002
1.567892e+003,1.385776e+002
1.568856e+003,1.426084e+002
1.569820e+003,1.466100e+002
1.570784e+003,1.465816e+002
1.571749e+003,1.437867e+002
1.572713e+003,1.411842e+002
1.573677e+003,1.389377e+002
1.574641e+003,1.372990e+002
1.575606e+003,1.361138e+002
1.576570e+003,1.356960e+002
1.577534e+003,1.375029e+002
1.578498e+003,1.398621e+002
1.579463e+003,1.391857e+002
1.580427e+003,1.354693e+002
1.581391e+003,1.313595e+002
1.582355e+003,1.273054e+002
1.583319e+003,1.242096e+002
1.584284e+003,1.231811e+002
1.585248e+003,1.231828e+002
1.586212e+003,1.227300e+002
1.587176e+003,1.218063e+002
1.588141e+003,1.210283e+002
1.589105e+003,1.206755e+002
1.590069e+003,1.198424e+002
1.591033e+003,1.174402e+002
1.591998e+003,1.146886e+002
1.592962e+003,1.136270e+002
1.593926e+003,1.138811e+002
1.594890e+003,1.133851e+002
1.595854e+003,1.118667e+002
1.596819e+003,1.106343e+002
1.597783e+003,1.100836e+002
1.598747e+003,1.098079e+002
1.599711e+003,1.100869e+002
1.600676e+003,1.100813e+002
1.601640e+003,1.082607e+002
1.602604e+003,1.052107e+002
1.603568e+003,1.036088e+002
1.604533e+003,1.045240e+002
1.605497e+003,1.056013e+002
1.606461e+003,1.042328e+002
1.607425e+003,1.014667e+002
1.608390e+003,1.004763e+002
1.609354e+003,1.014307e+002
1.610318e+003,1.014002e+002
1.611282e+003,9.948197e+001
1.612246e+003,9.711501e+001
1.613211e+003,9.419147e+001
1.614175e+003,9.182440e+001
1.615139e+003,9.160442e+001
1.616103e+003,9.227986e+001
1.617068e+003,9.129246e+001
1.618032e+003,8.862975e+001
1.618996e+003,8.724904e+001
1.619960e+003,8.901149e+001
1.620925e+003,9.121599e+001
1.621889e+003,9.003646e+001
1.622853e+003,8.602040e+001
1.623817e+003,8.193610e+001
1.624781e+003,7.758480e+001
1.625746e+003,7.512756e+001
1.626710e+003,7.612335e+001
1.627674e+003,7.695874e+001
1.628638e+003,7.545605e+001
1.629603e+003,7.329423e+001
1.630567e+003,7.191138e+001
1.631531e+003,7.109145e+001
1.632495e+003,7.016844e+001
1.633460e+003,6.900220e+001
1.634424e+003,6.758529e+001
1.635388e+003,6.567830e+001
1.636352e+003,6.405611e+001
1.637317e+003,6.496415e+001
1.638281e+003,6.805365e+001
1.639245e+003,6.739901e+001
1.640209e+003,6.132839e+001
1.641173e+003,5.751166e+001
1.642138e+003,5.993064e+001
1.643102e+003,6.214553e+001
1.644066e+003,6.046453e+001
1.645030e+003,5.743913e+001
1.645995e+003,5.501176e+001
1.646959e+003,5.349784e+001
1.647923e+003,5.317842e+001
1.648887e+003,5.404350e+001
1.649852e+003,5.499989e+001
1.650816e+003,5.525139e+001
1.651780e+003,5.479084e+001
1.652744e+003,5.339017e+001
1.653708e+003,5.108120e+001
1.654673e+003,4.910985e+001
1.655637e+003,4.753125e+001
1.656601e+003,4.630645e+001
1.657565e+003,4.572909e+001
1.658530e+003,4.518160e+001
1.659494e+003,4.426133e+001
1.660458e+003,4.318582e+001
1.661422e+003,4.207972e+001
1.662387e+003,4.105936e+001
1.663351e+003,4.044956e+001
1.664315e+003,4.034662e+001
1.665279e+003,4.013297e+001
1.666244e+003,3.914965e+001
1.667208e+003,3.797437e+001
1.668172e+003,3.819790e+001
1.669136e+003,3.958379e+001
1.670100e+003,3.864733e+001
1.671065e+003,3.429412e+001
1.672029e+003,3.120966e+001
1.672993e+003,3.187084e+001
1.673957e+003,3.295151e+001
1.674922e+003,3.194640e+001
1.675886e+003,3.033749e+001
1.676850e+003,2.999384e+001
1.677814e+003,3.059344e+001
1.678779e+003,3.059216e+001
1.679743e+003,2.951322e+001
1.680707e+003,2.798040e+001
1.681671e+003,2.623049e+001
1.682635e+003,2.455994e+001
1.683600e+003,2.373085e+001
1.684564e+003,2.357704e+001
1.685528e+003,2.246908e+001
1.686492e+003,1.990858e+001
1.687457e+003,1.872877e+001
1.688421e+003,2.067321e+001
1.689385e+003,2.291116e+001
1.690349e+003,2.320902e+001
1.691314e+003,2.273728e+001
1.692278e+003,2.277644e+001
1.693242e+003,2.311790e+001
1.694206e+003,2.284534e+001
1.695171e+003,2.169236e+001
1.696135e+003,2.050817e+001
1.697099e+003,1.967031e+001
1.698063e+003,1.923059e+001
1.699027e+003,1.991014e+001
1.699992e+003,2.099448e+001
1.700956e+003,1.937680e+001
1.701920e+003,1.486766e+001
1.702884e+003,1.303776e+001
1.703849e+003,1.655407e+001
1.704813e+003,2.022598e+001
1.705777e+003,2.008887e+001
1.706741e+003,1.774371e+001
1.707706e+003,1.520108e+001
1.708670e+003,1.276003e+001
1.709634e+003,1.163702e+001
1.710598e+003,1.212784e+001
1.711563e+003,1.289342e+001
1.712527e+003,1.413874e+001
1.713491e+003,1.459629e+001
1.714455e+003,1.220034e+001
1.715419e+003,8.901258e+000
1.716384e+003,8.486676e+000
1.717348e+003,1.057448e+001
1.718312e+003,1.145577e+001
1.719276e+003,9.960815e+000
1.720241e+003,8.702624e+000
1.721205e+003,9.761866e+000
1.722169e+003,1.144699e+001
1.723133e+003,1.089229e+001
1.724098e+003,8.487500e+000
1.725062e+003,7.038592e+000
1.726026e+003,6.658319e+000
1.726990e+003,6.372613e+000
1.727954e+003,5.958923e+000
1.728919e+003,5.705847e+000
1.729883e+003,6.353106e+000
1.730847e+003,6.723096e+000
1.731811e+003,4.552386e+000
1.732776e+003,1.473254e+000
1.733740e+003,1.851556e+000
1.734704e+003,5.921088e+000
1.735668e+003,9.067431e+000
1.736633e+003,8.600183e+000
1.737597e+003,6.532166e+000
1.738561e+003,5.385144e+000
1.739525e+003,5.214960e+000
1.740490e+003,6.285169e+000
1.741454e+003,9.623059e+000
1.742418e+003,1.015450e+001
1.743382e+003,4.672485e+000
1.744346e+003,1.350348e+000
1.745311e+003,3.339905e+000
1.746275e+003,5.721246e+000
1.747239e+003,5.656177e+000
1.748203e+003,4.325171e+000
1.749168e+003,3.085669e+000
1.750132e+003,2.297199e+000
1.751096e+003,2.179016e+000
1.752060e+003,2.655579e+000
1.753025e+003,2.763342e+000
1.753989e+003,1.573877e+000
1.754953e+003,-1.311035e-002
1.755917e+003,2.503845e-001
1.756881e+003,2.410290e+000
1.757846e+003,3.104840e+000
1.758810e+003,1.703589e+000
1.759774e+003,7.915772e-001
1.760738e+003,9.952637e-001
1.761703e+003,1.237958e+000
1.762667e+003,1.147620e+000
1.763631e+003,9.487365e-001
1.764595e+003,8.954956e-001
1.765560e+003,8.957520e-001
1.766524e+003,6.187073e-001
1.767488e+003,7.023926e-002
1.768452e+003,-2.354919e-001
1.769417e+003,3.004150e-002
1.770381e+003,4.447571e-001
1.771345e+003,6.243469e-001
1.772309e+003,5.078491e-001
1.773273e+003,-3.294861e-001
1.774238e+003,-1.780975e+000
1.775202e+003,-2.164856e+000
1.776166e+003,-1.045441e+000
1.777130e+003,-3.003357e-001
1.778095e+003,-7.950256e-001
1.779059e+003,-1.508319e+000
1.780023e+003,-1.594165e+000
1.780987e+003,-1.388129e+000
1.781952e+003,-1.536926e+000
1.782916e+003,-1.984485e+000
1.783880e+003,-2.152692e+000
1.784844e+003,-1.847064e+000
1.785808e+003,-1.526562e+000
1.786773e+003,-1.225147e+000
1.787737e+003,-1.147961e+000
1.788701e+003,-1.935852e+000
1.789665e+003,-2.762183e+000
1.790630e+003,-1.692151e+000
1.791594e+003,4.490539e-001
1.792558e+003,2.620178e-001
1.793522e+003,-2.909674e+000
1.794487e+003,-6.058423e+000
1.795451e+003,-7.357346e+000
1.796415e+003,-6.863367e+000
1.797379e+003,-4.361051e+000
1.798344e+003,-5.318421e-001
1.799308e+003,1.401801e+000
1.800272e+003,9.565552e-001
1.801236e+003,2.604370e-001
1.802201e+003,-9.253235e-001
1.803165e+003,-1.817133e+000
1.804129e+003,-2.501770e+000
1.805093e+003,-2.628925e+000
1.806057e+003,-1.498657e+000
1.807022e+003,-1.452942e-001
1.807986e+003,2.619019e-001
1.808950e+003,-9.224243e-002
1.809914e+003,-4.583008e-001
1.810879e+003,-5.799805e-001
1.811843e+003,-5.867187e-001
1.812807e+003,-5.750610e-001
1.813771e+003,-6.919495e-001
1.814736e+003,-1.207697e+000
1.815700e+003,-1.987885e+000
1.816664e+003,-2.286450e+000
1.817628e+003,-2.027698e+000
1.818593e+003,-2.356177e+000
1.819557e+003,-3.747733e+000
1.820521e+003,-4.506564e+000
1.821485e+003,-3.380591e+000
1.822449e+003,-2.326245e+000
1.823414e+003,-3.250946e+000
1.824378e+003,-4.857498e+000
1.825342e+003,-5.500333e+000
1.826306e+003,-5.230218e+000
1.827271e+003,-4.777331e+000
1.828235e+003,-4.331494e+000
1.829199e+003,-3.392242e+000
1.830163e+003,-7.416870e-001
1.831128e+003,1.348560e+000
1.832092e+003,2.218628e-002
1.833056e+003,-2.556390e+000
1.834020e+003,-2.855621e+000
1.834984e+003,-1.297839e+000
1.835949e+003,3.261169e-001
1.836913e+003,1.461786e+000
1.837877e+003,8.532410e-001
1.838841e+003,-2.330499e+000
1.839806e+003,-5.166287e+000
1.840770e+003,-4.150430e+000
1.841734e+003,-8.349792e-001
1.842698e+003,9.990235e-002
1.843663e+003,-1.584491e+000
1.844627e+003,-2.994611e+000
1.845591e+003,-4.334674e+000
1.846555e+003,-5.116302e+000
1.847520e+003,-5.553391e+000
1.848484e+003,-5.245267e+000
1.849448e+003,-2.964136e+000
1.850412e+003,-7.904541e-001
1.851376e+003,-1.057959e+000
1.852341e+003,-2.390784e+000
1.853305e+003,-1.869342e+000
1.854269e+003,3.118774e-001
1.855233e+003,9.872376e-001
1.856198e+003,-1.212402e+000
1.857162e+003,-3.665280e+000
1.858126e+003,-3.702600e+000
1.859090e+003,-2.423810e+000
1.860055e+003,-2.151978e+000
1.861019e+003,-2.708923e+000
1.861983e+003,-2.627997e+000
1.862947e+003,-1.788574e+000
1.863911e+003,-1.224152e+000
1.864876e+003,-1.111267e+000
1.865840e+003,-1.506360e+000
1.866804e+003,-2.763196e+000
1.867768e+003,-4.097796e+000
1.868733e+003,-4.972229e+000
1.869697e+003,-5.126755e+000
1.870661e+003,-3.055014e+000
1.871625e+003,1.276623e+000
1.872590e+003,2.632483e+000
1.873554e+003,-1.488928e+000
1.874518e+003,-4.559769e+000
1.875482e+003,-4.239722e+000
1.876447e+003,-2.987271e+000
1.877411e+003,-1.386462e+000
1.878375e+003,-3.300110e-001
1.879339e+003,-1.672436e+000
1.880303e+003,-4.065616e+000
1.881268e+003,-4.234931e+000
1.882232e+003,-1.920435e+000
1.883196e+003,3.351379e-001
1.884160e+003,1.119574e+000
1.885125e+003,7.475708e-001
1.886089e+003,-6.339051e-001
1.887053e+003,-2.288574e+000
1.888017e+003,-1.683130e+000
1.888982e+003,1.247644e+000
1.889946e+003,2.282819e+000
1.890910e+003,9.615723e-001
1.891874e+003,1.388245e-001
1.892839e+003,5.892456e-001
1.893803e+003,8.939148e-001
1.894767e+003,4.281921e-001
1.895731e+003,-3.905823e-001
1.896695e+003,-1.725629e+000
1.897660e+003,-2.935864e+000
1.898624e+003,-2.595361e+000
1.899588e+003,-9.100097e-001
1.900552e+003,6.736450e-002
1.901517e+003,-2.539551e-001
1.902481e+003,-6.535645e-001
1.903445e+003,-9.911072e-001
1.904409e+003,-7.598816e-001
1.905374e+003,9.961609e-001
1.906338e+003,3.052728e+000
1.907302e+003,3.921771e+000
1.908266e+003,3.815570e+000
1.909230e+003,3.481982e+000
1.910195e+003,3.071136e+000
1.911159e+003,2.073523e+000
1.912123e+003,4.372131e-001
1.913087e+003,-1.662720e-001
1.914052e+003,1.947089e+000
1.915016e+003,4.781507e+000
1.915980e+003,3.931317e+000
1.916944e+003,-2.147278e-001
1.917909e+003,-2.502496e+000
1.918873e+003,-2.770142e+000
1.919837e+003,-1.831946e+000
1.920801e+003,8.751648e-001
1.921766e+003,3.001581e+000
1.922730e+003,3.804291e+000
1.923694e+003,3.617596e+000
1.924658e+003,1.914038e+000
1.925622e+003,-4.284058e-002
1.926587e+003,-6.590149e-001
1.927551e+003,-2.145691e-001
1.928515e+003,2.206543e-001
1.929479e+003,5.456299e-001
1.930444e+003,7.339722e-001
1.931408e+003,5.833923e-001
1.932372e+003,5.236633e-001
1.933336e+003,1.032282e+000
1.934301e+003,1.432483e+000
1.935265e+003,9.653443e-001
1.936229e+003,1.983215e-001
1.937193e+003,3.560181e-002
1.938157e+003,2.768616e-001
1.939122e+003,-4.663086e-003
1.940086e+003,-8.784240e-001
1.941050e+003,-1.240228e+000
1.942014e+003,-4.673767e-001
1.942979e+003,3.782288e-001
1.943943e+003,-8.385010e-002
1.944907e+003,-1.158514e+000
1.945871e+003,-6.747497e-001
1.946836e+003,1.282245e+000
1.947800e+003,2.097760e+000
1.948764e+003,1.514093e+000
1.949728e+003,1.168481e+000
1.950693e+003,1.434595e+000
1.951657e+003,1.716199e+000
1.952621e+003,1.771722e+000
1.953585e+003,1.828430e+000
1.954549e+003,2.442127e+000
1.955514e+003,2.927222e+000
1.956478e+003,1.015247e+000
1.957442e+003,-2.986783e+000
1.958406e+003,-3.836227e+000
1.959371e+003,2.275024e-001
1.960335e+003,2.746808e+000
1.961299e+003,1.983209e+000
1.962263e+003,8.242737e-001
1.963228e+003,-6.138489e-001
1.964192e+003,-1.201447e+000
1.965156e+003,5.642151e-001
1.966120e+003,3.075128e+000
1.967084e+003,4.675073e+000
1.968049e+003,5.158136e+000
1.969013e+003,4.320874e+000
1.969977e+003,2.477838e+000
1.970941e+003,1.517371e+000
1.971906e+003,2.615753e+000
1.972870e+003,3.965863e+000
1.973834e+003,3.550134e+000
1.974798e+003,2.296753e+000
1.975763e+003,1.530298e+000
1.976727e+003,1.266522e+000
1.977691e+003,1.723944e+000
1.978655e+003,2.829217e+000
1.979620e+003,4.340942e+000
1.980584e+003,6.181256e+000
1.981548e+003,7.176587e+000
1.982512e+003,6.641968e+000
1.983476e+003,5.404510e+000
1.984441e+003,4.307861e+000
1.985405e+003,3.220294e+000
1.986369e+003,1.706989e+000
1.987333e+003,-1.601257e-001
1.988298e+003,-3.056885e-001
1.989262e+003,2.049567e+000
1.990226e+003,3.684106e+000
1.991190e+003,4.216187e+000
1.992155e+003,4.584283e+000
1.993119e+003,5.484571e+000
1.994083e+003,5.734747e+000
1.995047e+003,3.731488e+000
1.996011e+003,1.540015e+000
1.996976e+003,1.703223e+000
1.997940e+003,3.291950e+000
1.998904e+003,3.942297e+000
1.999868e+003,3.454071e+000
2.000833e+003,2.983209e+000
2.001797e+003,2.787561e+000
2.002761e+003,2.634253e+000
2.003725e+003,2.356073e+000
2.004690e+003,2.203827e+000
2.005654e+003,2.326727e+000
2.006618e+003,2.663660e+000
2.007582e+003,3.646826e+000
2.008547e+003,4.537433e+000
2.009511e+003,3.492285e+000
2.010475e+003,1.184753e+000
2.011439e+003,7.012024e-001
2.012403e+003,2.861218e+000
2.013368e+003,5.032373e+000
2.014332e+003,5.343756e+000
2.015296e+003,4.777295e+000
2.016260e+003,4.485229e+000
2.017225e+003,4.383368e+000
2.018189e+003,4.016626e+000
2.019153e+003,3.631464e+000
2.020117e+003,4.659216e+000
2.021082e+003,6.955554e+000
2.022046e+003,8.108973e+000
2.023010e+003,7.558051e+000
2.023974e+003,7.012738e+000
2.024938e+003,7.388367e+000
2.025903e+003,7.862714e+000
2.026867e+003,7.604840e+000
2.027831e+003,6.778815e+000
2.028795e+003,5.716565e+000
2.029760e+003,4.490698e+000
2.030724e+003,4.005811e+000
2.031688e+003,4.395349e+000
2.032652e+003,4.807037e+000
2.033617e+003,5.518164e+000
2.034581e+003,5.543256e+000
2.035545e+003,3.911139e+000
2.036509e+003,2.843207e+000
2.037474e+003,3.883020e+000
2.038438e+003,5.580194e+000
2.039402e+003,6.792938e+000
2.040366e+003,7.469397e+000
2.041330e+003,7.270044e+000
2.042295e+003,6.260821e+000
2.043259e+003,5.669611e+000
2.044223e+003,5.613196e+000
2.045187e+003,6.003778e+000
2.046152e+003,7.693719e+000
2.047116e+003,8.584375e+000
2.048080e+003,6.761169e+000
2.049044e+003,5.043890e+000
2.050009e+003,5.916656e+000
2.050973e+003,7.722791e+000
2.051937e+003,8.500824e+000
2.052901e+003,8.391424e+000
2.053865e+003,8.105402e+000
2.054830e+003,7.863824e+000
2.055794e+003,7.918402e+000
2.056758e+003,8.429285e+000
2.057722e+003,8.835150e+000
2.058687e+003,8.680316e+000
2.059651e+003,8.341779e+000
2.060615e+003,8.360815e+000
2.061579e+003,8.193018e+000
2.062544e+003,6.585327e+000
2.063508e+003,4.541559e+000
2.064472e+003,4.527911e+000
2.065436e+003,6.152832e+000
2.066401e+003,6.742908e+000
2.067365e+003,5.605872e+000
2.068329e+003,4.568305e+000
2.069293e+003,4.802844e+000
2.070258e+003,5.427630e+000
2.071222e+003,5.366815e+000
2.072186e+003,5.097217e+000
2.073150e+003,5.760394e+000
2.074115e+003,7.088434e+000
2.075079e+003,7.839362e+000
2.076043e+003,8.028381e+000
2.077007e+003,8.469892e+000
2.077971e+003,9.309992e+000
2.078936e+003,9.932678e+000
2.079900e+003,1.009777e+001
2.080864e+003,9.490186e+000
2.081828e+003,7.780432e+000
2.082792e+003,6.211786e+000
2.083757e+003,6.604364e+000
2.084721e+003,8.341669e+000
2.085685e+003,9.276697e+000
2.086649e+003,9.388208e+000
2.087614e+003,9.947474e+000
2.088578e+003,1.133909e+001
2.089542e+003,1.109732e+001
2.090506e+003,8.170282e+000
2.091471e+003,5.956708e+000
2.092435e+003,5.621698e+000
2.093399e+003,6.358521e+000
2.094363e+003,8.183954e+000
2.095328e+003,9.967627e+000
2.096292e+003,1.007695e+001
2.097256e+003,8.939593e+000
2.098220e+003,8.019061e+000
2.099185e+003,7.284289e+000
2.100149e+003,7.820880e+000
2.101113e+003,1.175108e+001
2.102077e+003,1.291406e+001
2.103042e+003,8.654309e+000
2.104006e+003,5.237854e+000
2.104970e+003,4.010114e+000
2.105934e+003,4.009046e+000
2.106898e+003,5.459882e+000
2.107863e+003,7.232788e+000
2.108827e+003,8.512573e+000
2.109791e+003,9.180408e+000
2.110755e+003,8.552679e+000
2.111719e+003,6.748071e+000
2.112684e+003,6.607294e+000
2.113648e+003,9.645221e+000
2.114612e+003,1.120330e+001
2.115576e+003,9.295062e+000
2.116541e+003,7.102484e+000
2.117505e+003,4.871643e+000
2.118469e+003,3.778113e+000
2.119433e+003,5.420807e+000
2.120398e+003,7.820154e+000
2.121362e+003,9.247754e+000
2.122326e+003,9.625501e+000
2.123290e+003,8.900391e+000
2.124255e+003,7.460406e+000
2.125219e+003,6.707080e+000
2.126183e+003,7.063519e+000
2.127147e+003,7.531671e+000
2.128112e+003,8.050550e+000
2.129076e+003,8.035639e+000
2.130040e+003,6.450708e+000
2.131004e+003,4.951526e+000
2.131969e+003,4.973804e+000
2.132933e+003,5.659076e+000
2.133897e+003,6.349341e+000
2.134861e+003,6.780420e+000
2.135825e+003,6.340857e+000
2.136790e+003,5.342682e+000
2.137754e+003,5.253546e+000
2.138718e+003,6.419684e+000
2.139682e+003,7.009460e+000
2.140646e+003,5.706048e+000
2.141611e+003,4.579742e+000
2.142575e+003,6.023969e+000
2.143539e+003,7.641541e+000
2.144503e+003,6.666211e+000
2.145468e+003,4.750214e+000
2.146432e+003,3.851965e+000
2.147396e+003,3.941333e+000
2.148360e+003,4.981879e+000
2.149325e+003,6.447845e+000
2.150289e+003,7.132874e+000
2.151253e+003,6.704559e+000
2.152217e+003,5.602557e+000
2.153182e+003,4.074945e+000
2.154146e+003,3.186163e+000
2.155110e+003,4.391126e+000
2.156074e+003,6.064941e+000
2.157039e+003,5.913965e+000
2.158003e+003,4.890332e+000
2.158967e+003,4.642810e+000
2.159931e+003,4.858191e+000
2.160896e+003,4.498651e+000
2.161860e+003,3.697076e+000
2.162824e+003,3.194342e+000
2.163788e+003,3.248590e+000
2.164752e+003,4.144788e+000
2.165717e+003,5.903333e+000
2.166681e+003,7.136169e+000
2.167645e+003,6.538068e+000
2.168609e+003,5.246594e+000
2.169573e+003,4.907507e+000
2.170538e+003,4.993591e+000
2.171502e+003,4.233514e+000
2.172466e+003,3.088348e+000
2.173430e+003,2.938672e+000
2.174395e+003,3.557147e+000
2.175359e+003,3.821478e+000
2.176323e+003,3.495398e+000
2.177287e+003,2.715436e+000
2.178252e+003,1.608435e+000
2.179216e+003,5.694885e-001
2.180180e+003,-9.880371e-002
2.181144e+003,-3.162231e-001
2.182109e+003,3.166504e-002
2.183073e+003,7.616333e-001
2.184037e+003,1.913257e+000
2.185001e+003,3.032257e+000
2.185966e+003,2.561536e+000
2.186930e+003,1.158887e+000
2.187894e+003,1.453473e+000
2.188858e+003,3.159491e+000
2.189823e+003,2.816949e+000
2.190787e+003,-1.473938e-001
2.191751e+003,-1.952893e+000
2.192715e+003,-5.862793e-001
2.193679e+003,1.330048e+000
2.194644e+003,1.257275e+000
2.195608e+003,3.486023e-001
2.196572e+003,6.243531e-001
2.197536e+003,1.397461e+000
2.198500e+003,7.778198e-001
2.199465e+003,-6.888977e-001
2.200429e+003,-1.509335e+000
2.201393e+003,-1.621729e+000
2.202357e+003,-1.202829e+000
2.203322e+003,-4.295105e-001
2.204286e+003,1.897644e-001
2.205250e+003,4.540588e-001
2.206214e+003,3.973511e-001
2.207179e+003,4.612427e-002
2.208143e+003,-1.165039e-001
2.209107e+003,5.966919e-001
2.210071e+003,1.588965e+000
2.211036e+003,1.947137e+000
2.212000e+003,1.655554e+000
2.212964e+003,8.649292e-002
2.213928e+003,-2.033878e+000
2.214893e+003,-2.124817e+000
2.215857e+003,-5.549530e-001
2.216821e+003,-9.971313e-002
2.217785e+003,-1.275787e+000
2.218750e+003,-2.372018e+000
2.219714e+003,-2.591229e+000
2.220678e+003,-2.694855e+000
2.221642e+003,-3.322870e+000
2.222606e+003,-3.718207e+000
2.223571e+003,-2.597342e+000
2.224535e+003,-9.245545e-001
2.225499e+003,-4.147217e-001
2.226463e+003,-6.407440e-001
2.227427e+003,-9.703369e-001
2.228392e+003,-1.166156e+000
2.229356e+003,-5.831665e-001
2.230320e+003,5.520020e-001
2.231284e+003,1.289661e+000
2.232249e+003,1.285083e+000
2.233213e+003,4.734680e-001
2.234177e+003,-1.104181e+000
2.235141e+003,-2.577341e+000
2.236106e+003,-3.208978e+000
2.237070e+003,-3.297882e+000
2.238034e+003,-3.182257e+000
2.238998e+003,-2.825366e+000
2.239963e+003,-1.872339e+000
2.240927e+003,-7.954682e-001
2.241891e+003,-4.533142e-001
2.242855e+003,-6.204010e-001
2.243820e+003,-6.898834e-001
2.244784e+003,-6.187836e-001
2.245748e+003,-7.070130e-001
2.246712e+003,-1.022385e+000
2.247677e+003,-1.322882e+000
2.248641e+003,-1.463181e+000
2.249605e+003,-1.559146e+000
2.250569e+003,-1.758249e+000
2.251533e+003,-1.903989e+000
2.252498e+003,-1.882193e+000
2.253462e+003,-1.718390e+000
2.254426e+003,-1.212268e+000
2.255390e+003,-7.348511e-001
2.256354e+003,-9.052216e-001
2.257319e+003,-1.448175e+000
2.258283e+003,-1.893140e+000
2.259247e+003,-2.050107e+000
2.260211e+003,-1.510559e+000
2.261176e+003,-3.263977e-001
2.262140e+003,-2.547607e-002
2.263104e+003,-1.545758e+000
2.264068e+003,-2.970755e+000
2.265033e+003,-3.080618e+000
2.265997e+003,-2.961936e+000
2.266961e+003,-3.564536e+000
2.267925e+003,-3.867779e+000
2.268890e+003,-2.491629e+000
2.269854e+003,-8.982025e-001
2.270818e+003,-6.834992e-001
2.271782e+003,-1.438388e+000
2.272747e+003,-2.527920e+000
2.273711e+003,-3.641763e+000
2.274675e+003,-4.064429e+000
2.275639e+003,-3.648315e+000
2.276604e+003,-3.770090e+000
2.277568e+003,-5.301847e+000
2.278532e+003,-6.266516e+000
2.279496e+003,-5.873157e+000
2.280460e+003,-5.338849e+000
2.281425e+003,-4.875934e+000
2.282389e+003,-4.660010e+000
2.283353e+003,-5.025366e+000
2.284317e+003,-5.377978e+000
2.285281e+003,-4.961001e+000
2.286246e+003,-4.290381e+000
2.287210e+003,-4.548807e+000
2.288174e+003,-5.482950e+000
2.289138e+003,-5.171552e+000
2.290103e+003,-3.052536e+000
2.291067e+003,-2.441663e+000
2.292031e+003,-4.887067e+000
2.292995e+003,-5.770270e+000
2.293960e+003,-3.664743e+000
2.294924e+003,-2.440015e+000
2.295888e+003,-3.417352e+000
2.296852e+003,-4.646255e+000
2.297817e+003,-5.366257e+000
2.298781e+003,-5.557938e+000
2.299745e+003,-4.918167e+000
2.300709e+003,-4.139703e+000
2.301674e+003,-4.557324e+000
2.302638e+003,-5.883679e+000
2.303602e+003,-6.587176e+000
2.304566e+003,-6.669592e+000
2.305531e+003,-6.509631e+000
2.306495e+003,-6.084061e+000
2.307459e+003,-5.059289e+000
2.308423e+003,-3.302856e+000
2.309387e+003,-2.134155e+000
2.310352e+003,-1.888864e+000
2.311316e+003,-2.576154e+000
2.312280e+003,-4.250696e+000
2.313244e+003,-5.538943e+000
2.314208e+003,-5.290595e+000
2.315173e+003,-4.432068e+000
2.316137e+003,-4.220230e+000
2.317101e+003,-4.571127e+000
2.318065e+003,-5.767499e+000
2.319030e+003,-7.230780e+000
2.319994e+003,-5.903488e+000
2.320958e+003,-2.807288e+000
2.321922e+003,-2.691620e+000
2.322887e+003,-5.140198e+000
2.323851e+003,-5.878107e+000
2.324815e+003,-4.469391e+000
2.325779e+003,-4.035443e+000
2.326744e+003,-5.610040e+000
2.327708e+003,-6.975906e+000
2.328672e+003,-6.725195e+000
2.329636e+003,-6.184009e+000
2.330601e+003,-6.676480e+000
2.331565e+003,-7.340055e+000
2.332529e+003,-7.407529e+000
2.333493e+003,-6.912500e+000
2.334458e+003,-5.519678e+000
2.335422e+003,-3.910056e+000
2.336386e+003,-2.682214e+000
2.337350e+003,-2.067422e+000
2.338314e+003,-2.668585e+000
2.339279e+003,-4.011554e+000
2.340243e+003,-4.621219e+000
2.341207e+003,-4.310953e+000
2.342171e+003,-4.302466e+000
2.343135e+003,-5.007684e+000
2.344100e+003,-5.893356e+000
2.345064e+003,-7.284381e+000
2.346028e+003,-8.044291e+000
2.346992e+003,-7.349890e+000
2.347957e+003,-6.453482e+000
2.348921e+003,-5.834384e+000
2.349885e+003,-5.396991e+000
2.350849e+003,-5.071362e+000
2.351814e+003,-4.922385e+000
2.352778e+003,-5.148450e+000
2.353742e+003,-5.535968e+000
2.354706e+003,-5.403140e+000
2.355671e+003,-4.813538e+000
2.356635e+003,-5.167801e+000
2.357599e+003,-6.934549e+000
2.358563e+003,-7.753451e+000
2.359528e+003,-7.548841e+000
2.360492e+003,-6.529325e+000
2.361456e+003,-4.271536e+000
2.362420e+003,-2.877664e+000
2.363385e+003,-3.045526e+000
2.364349e+003,-3.926132e+000
2.365313e+003,-5.176410e+000
2.366277e+003,-6.232346e+000
2.367241e+003,-6.571951e+000
2.368206e+003,-6.455908e+000
2.369170e+003,-6.273471e+000
2.370134e+003,-6.036569e+000
2.371098e+003,-5.706088e+000
2.372063e+003,-5.358050e+000
2.373027e+003,-5.354193e+000
2.373991e+003,-5.549652e+000
2.374955e+003,-5.516495e+000
2.375919e+003,-5.271411e+000
2.376884e+003,-4.988336e+000
2.377848e+003,-4.732492e+000
2.378812e+003,-4.462195e+000
2.379776e+003,-4.191916e+000
2.380741e+003,-4.213120e+000
2.381705e+003,-4.694858e+000
2.382669e+003,-5.063574e+000
2.383633e+003,-4.947608e+000
2.384598e+003,-4.459122e+000
2.385562e+003,-3.142413e+000
2.386526e+003,-2.228522e+000
2.387490e+003,-3.173496e+000
2.388455e+003,-4.445532e+000
2.389419e+003,-4.155997e+000
2.390383e+003,-3.557559e+000
2.391347e+003,-4.813886e+000
2.392312e+003,-7.111157e+000
2.393276e+003,-8.417166e+000
2.394240e+003,-8.556320e+000
2.395204e+003,-7.936358e+000
2.396168e+003,-6.306201e+000
2.397133e+003,-5.134607e+000
2.398097e+003,-4.792557e+000
2.399061e+003,-4.350388e+000
2.400025e+003,-3.412222e+000
2.400990e+003,-3.185462e+000
2.401954e+003,-4.235037e+000
2.402918e+003,-5.330939e+000
2.403882e+003,-5.956961e+000
2.404846e+003,-6.264166e+000
2.405811e+003,-6.337201e+000
2.406775e+003,-6.223520e+000
2.407739e+003,-6.047116e+000
2.408703e+003,-5.683395e+000
2.409668e+003,-4.448740e+000
2.410632e+003,-2.744794e+000
2.411596e+003,-3.234842e+000
2.412560e+003,-5.245608e+000
2.413525e+003,-5.482226e+000
2.414489e+003,-4.262439e+000
2.415453e+003,-3.912488e+000
2.416417e+003,-4.511206e+000
2.417382e+003,-4.668518e+000
2.418346e+003,-4.148331e+000
2.419310e+003,-3.967541e+000
2.420274e+003,-4.555280e+000
2.421239e+003,-5.207016e+000
2.422203e+003,-5.529431e+000
2.423167e+003,-5.579849e+000
2.424131e+003,-5.270911e+000
2.425095e+003,-4.862674e+000
2.426060e+003,-4.136185e+000
2.427024e+003,-3.829742e+000
2.427988e+003,-5.025393e+000
2.428952e+003,-6.410169e+000
2.429917e+003,-6.741712e+000
2.430881e+003,-6.319894e+000
2.431845e+003,-5.558026e+000
2.432809e+003,-4.630142e+000
2.433773e+003,-3.724988e+000
2.434738e+003,-2.841559e+000
2.435702e+003,-3.605713e+000
2.436666e+003,-7.082315e+000
2.437630e+003,-8.198642e+000
2.438595e+003,-6.380270e+000
2.439559e+003,-4.797256e+000
2.440523e+003,-3.844754e+000
2.441487e+003,-2.804742e+000
2.442452e+003,-1.473788e+000
2.443416e+003,-5.270141e-001
2.444380e+003,-2.982544e-001
2.445344e+003,-1.152679e+000
2.446309e+003,-3.493060e+000
2.447273e+003,-4.960834e+000
2.448237e+003,-1.984149e+000
2.449201e+003,2.535114e+000
2.450166e+003,4.310150e+000
2.451130e+003,4.021820e+000
2.452094e+003,1.671576e+000
2.453058e+003,-1.220404e+000
2.454022e+003,-2.064291e+000
2.454987e+003,-1.906851e+000
2.455951e+003,-3.343735e+000
2.456915e+003,-5.632575e+000
2.457879e+003,-5.788452e+000
2.458844e+003,-3.836395e+000
2.459808e+003,-3.249661e+000
2.460772e+003,-5.137265e+000
2.461736e+003,-5.716556e+000
2.462700e+003,-2.695084e+000
2.463665e+003,-1.003967e+000
2.464629e+003,-1.477219e+000
2.465593e+003,-2.632272e+000
2.466557e+003,-4.775604e+000
2.467522e+003,-6.575040e+000
2.468486e+003,-7.642679e+000
2.469450e+003,-7.624673e+000
2.470414e+003,-5.998416e+000
2.471379e+003,-4.256320e+000
2.472343e+003,-4.303861e+000
2.473307e+003,-4.996307e+000
2.474271e+003,-3.705631e+000
2.475236e+003,-1.366299e+000
2.476200e+003,-9.541016e-001
2.477164e+003,-2.092728e+000
2.478128e+003,-4.455194e+000
2.479093e+003,-7.061307e+000
2.480057e+003,-7.255984e+000
2.481021e+003,-5.646695e+000
2.481985e+003,-4.240085e+000
2.482949e+003,-3.539407e+000
2.483914e+003,-3.580026e+000
2.484878e+003,-4.263711e+000
2.485842e+003,-4.872617e+000
2.486806e+003,-5.173474e+000
2.487771e+003,-5.181363e+000
2.488735e+003,-4.693411e+000
2.489699e+003,-4.235617e+000
2.490663e+003,-4.128980e+000
2.491627e+003,-3.869879e+000
2.492592e+003,-2.654050e+000
2.493556e+003,-2.184396e+000
2.494520e+003,-3.828339e+000
2.495484e+003,-5.457547e+000
2.496449e+003,-5.410092e+000
2.497413e+003,-4.078280e+000
2.498377e+003,-1.678097e+000
2.499341e+003,5.956299e-001
2.500306e+003,-1.040015e+000
2.501270e+003,-5.269376e+000
2.502234e+003,-5.725574e+000
2.503198e+003,-3.527564e+000
2.504163e+003,-2.606860e+000
2.505127e+003,-2.701010e+000
2.506091e+003,-1.994952e+000
2.507055e+003,-7.812805e-001
2.508020e+003,-8.494263e-001
2.508984e+003,-2.122000e+000
2.509948e+003,-2.845941e+000
2.510912e+003,-2.552579e+000
2.511876e+003,-2.432700e+000
2.512841e+003,-3.146582e+000
2.513805e+003,-3.156104e+000
2.514769e+003,-8.256043e-001
2.515733e+003,4.453979e-001
2.516698e+003,-1.352887e+000
2.517662e+003,-2.654901e+000
2.518626e+003,-1.833231e+000
2.519590e+003,-1.132721e+000
2.520554e+003,-1.956323e+000
2.521519e+003,-2.740744e+000
2.522483e+003,-2.101849e+000
2.523447e+003,-8.039612e-001
2.524411e+003,1.623047e-001
2.525376e+003,7.144653e-001
2.526340e+003,6.318176e-001
2.527304e+003,-1.578796e-001
2.528268e+003,-2.534393e+000
2.529233e+003,-5.320847e+000
2.530197e+003,-5.364825e+000
2.531161e+003,-3.640332e+000
2.532125e+003,-2.512024e+000
2.533090e+003,-2.066766e+000
2.534054e+003,-1.444470e+000
2.535018e+003,-6.429504e-001
2.535982e+003,-3.935059e-001
2.536947e+003,-8.458802e-001
2.537911e+003,-1.439856e+000
2.538875e+003,-2.273468e+000
2.539839e+003,-2.569553e+000
2.540803e+003,-1.624475e+000
2.541768e+003,-1.231531e+000
2.542732e+003,-1.811832e+000
2.543696e+003,-2.343838e+000
2.544660e+003,-2.501315e+000
2.545625e+003,-2.701679e+000
2.546589e+003,-3.204388e+000
2.547553e+003,-3.170123e+000
2.548517e+003,-1.944977e+000
2.549482e+003,-4.872131e-001
2.550446e+003,1.211548e-001
2.551410e+003,2.696899e-001
2.552374e+003,6.807739e-001
2.553339e+003,8.659668e-001
2.554303e+003,-1.873901e-001
2.555267e+003,-1.568701e+000
2.556231e+003,-2.510364e+000
2.557196e+003,-2.711456e+000
2.558160e+003,-1.188422e+000
2.559124e+003,8.122864e-001
2.560088e+003,1.264203e+000
2.561052e+003,3.598267e-001
2.562017e+003,-9.300049e-001
2.562981e+003,-2.501776e+000
2.563945e+003,-3.091150e+000
2.564909e+003,-2.546960e+000
2.565874e+003,-1.816156e+000
2.566838e+003,-8.282654e-001
2.567802e+003,-9.033813e-002
2.568766e+003,3.658203e-001
2.569730e+003,7.483643e-001
2.570695e+003,1.095892e+000
2.571659e+003,1.500378e+000
2.572623e+003,1.887524e+000
2.573587e+003,1.561877e+000
2.574552e+003,2.444336e-001
2.575516e+003,-8.684021e-001
2.576480e+003,-9.350891e-001
2.577444e+003,-6.318665e-001
2.578409e+003,-1.142517e-001
2.579373e+003,5.419922e-003
2.580337e+003,-1.110474e+000
2.581301e+003,-1.921747e+000
2.582266e+003,-1.358282e+000
2.583230e+003,-3.274231e-001
2.584194e+003,8.587829e-001
2.585158e+003,1.552167e+000
2.586123e+003,1.000464e+000
2.587087e+003,-7.290649e-002
2.588051e+003,-4.262573e-001
2.589015e+003,-4.573364e-001
2.589979e+003,-1.950830e+000
2.590944e+003,-4.044220e+000
2.591908e+003,-2.434723e+000
2.592872e+003,9.583130e-001
2.593836e+003,7.627624e-001
2.594801e+003,-1.441376e+000
2.595765e+003,-1.244141e+000
2.596729e+003,5.475219e-001
2.597693e+003,5.837708e-001
2.598657e+003,-1.132477e+000
2.599622e+003,-2.371597e+000
2.600586e+003,-2.703827e+000
2.601550e+003,-2.714871e+000
2.602514e+003,-2.364249e+000
2.603479e+003,-2.105682e+000
2.604443e+003,-2.095538e+000
2.605407e+003,-1.659204e+000
2.606371e+003,-5.363220e-001
2.607336e+003,-5.380859e-002
2.608300e+003,-5.181519e-001
2.609264e+003,-1.160339e+000
2.610228e+003,-1.653119e+000
2.611193e+003,-1.435858e+000
2.612157e+003,-2.185120e-001
2.613121e+003,7.610534e-001
2.614085e+003,5.270508e-001
2.615050e+003,-2.765320e-001
2.616014e+003,-1.701624e+000
2.616978e+003,-2.713974e+000
2.617942e+003,-2.298215e+000
2.618906e+003,-1.620245e+000
2.619871e+003,-1.240161e+000
2.620835e+003,-1.091480e+000
2.621799e+003,-1.503632e+000
2.622763e+003,-1.528601e+000
2.623728e+003,1.308167e-001
2.624692e+003,1.768359e+000
2.625656e+003,3.820190e-001
2.626620e+003,-2.385532e+000
2.627584e+003,-1.783942e+000
2.628549e+003,9.507812e-001
2.629513e+003,2.096429e+000
2.630477e+003,1.889380e+000
2.631441e+003,-1.233582e-001
2.632406e+003,-2.477164e+000
2.633370e+003,-2.082904e+000
2.634334e+003,-8.555909e-002
2.635298e+003,5.174927e-001
2.636263e+003,-6.010742e-002
2.637227e+003,5.605530e-001
2.638191e+003,2.541827e+000
2.639155e+003,2.912170e+000
2.640120e+003,1.275696e+000
2.641084e+003,9.513550e-002
2.642048e+003,-7.189697e-001
2.643012e+003,-7.623291e-001
2.643977e+003,3.827514e-002
2.644941e+003,3.822632e-001
2.645905e+003,1.168945e-001
2.646869e+003,5.191650e-002
2.647833e+003,2.978455e-001
2.648798e+003,4.193725e-002
2.649762e+003,-9.493164e-001
2.650726e+003,-1.634717e+000
2.651690e+003,-1.412994e+000
2.652655e+003,-1.281451e+000
2.653619e+003,-2.198669e+000
2.654583e+003,-2.402173e+000
2.655547e+003,-9.427612e-001
2.656511e+003,6.837280e-001
2.657476e+003,2.450281e+000
2.658440e+003,3.298596e+000
2.659404e+003,2.769995e+000
2.660368e+003,1.113275e+000
2.661333e+003,-1.608777e+000
2.662297e+003,-3.122131e+000
2.663261e+003,-1.058697e+000
2.664225e+003,1.797357e+000
2.665190e+003,2.014838e+000
2.666154e+003,9.098145e-001
2.667118e+003,-1.100433e+000
2.668082e+003,-2.331091e+000
2.669047e+003,-1.705322e-001
2.670011e+003,2.220923e+000
2.670975e+003,1.668549e+000
2.671939e+003,1.468506e-002
2.672904e+003,-8.878174e-001
2.673868e+003,-9.519531e-001
2.674832e+003,1.450195e-001
2.675796e+003,1.612366e+000
2.676760e+003,1.257953e+000
2.677725e+003,-2.976746e-001
2.678689e+003,-4.198914e-001
2.679653e+003,4.348206e-001
2.680617e+003,1.157642e+000
2.681582e+003,1.527576e+000
2.682546e+003,8.634521e-001
2.683510e+003,-6.254883e-002
2.684474e+003,4.703247e-001
2.685438e+003,1.818494e+000
2.686403e+003,1.885059e+000
2.687367e+003,7.209473e-001
2.688331e+003,3.515991e-001
2.689295e+003,9.197083e-001
2.690260e+003,1.008289e+000
2.691224e+003,4.675049e-001
2.692188e+003,7.475586e-001
2.693152e+003,1.765265e+000
2.694117e+003,2.112085e+000
2.695081e+003,1.803247e+000
2.696045e+003,1.904584e+000
2.697009e+003,2.302295e+000
2.697974e+003,1.190613e+000
2.698938e+003,-1.372510e+000
2.699902e+003,-1.962701e+000
2.700866e+003,7.133362e-001
2.701831e+003,2.124799e+000
2.702795e+003,-4.556274e-002
2.703759e+003,-1.286353e+000
2.704723e+003,-1.105640e+000
2.705688e+003,-3.879700e-001
2.706652e+003,1.020087e+000
2.707616e+003,3.541687e-001
2.708580e+003,-2.951202e+000
2.709544e+003,-4.314511e+000
2.710509e+003,-2.122931e+000
2.711473e+003,-1.495911e-001
2.712437e+003,-5.134766e-001
2.713401e+003,-8.364258e-001
2.714365e+003,8.513428e-001
2.715330e+003,1.992664e+000
2.716294e+003,2.955994e-001
2.717258e+003,-7.144715e-001
2.718222e+003,1.399731e+000
2.719187e+003,2.449750e+000
2.720151e+003,5.727539e-001
2.721115e+003,-7.598999e-001
2.722079e+003,2.140564e-001
2.723044e+003,1.541266e+000
2.724008e+003,1.768957e+000
2.724972e+003,1.810303e+000
2.725936e+003,2.708765e+000
2.726901e+003,3.451361e+000
2.727865e+003,2.464478e+000
2.728829e+003,1.451526e+000
2.729793e+003,2.199677e+000
2.730758e+003,2.900275e+000
2.731722e+003,1.938934e+000
2.732686e+003,8.216248e-001
2.733650e+003,5.351440e-001
2.734615e+003,8.659546e-001
2.735579e+003,1.826111e+000
2.736543e+003,2.514465e+000
2.737507e+003,1.594647e+000
2.738471e+003,2.085449e-001
2.739436e+003,6.513306e-001
2.740400e+003,1.885455e+000
2.741364e+003,2.292853e+000
2.742328e+003,2.337884e+000
2.743292e+003,2.682257e+000
2.744257e+003,2.859479e+000
2.745221e+003,1.992365e+000
2.746185e+003,9.592041e-001
2.747149e+003,1.169092e+000
2.748114e+003,1.629633e+000
2.749078e+003,7.143127e-001
2.750042e+003,-7.695923e-001
2.751006e+003,-6.624817e-001
2.751971e+003,5.411377e-001
2.752935e+003,1.255762e+000
2.753899e+003,1.703186e+000
2.754863e+003,2.598071e+000
2.755828e+003,3.424384e+000
2.756792e+003,3.212457e+000
2.757756e+003,2.382361e+000
2.758720e+003,1.333606e+000
2.759685e+003,4.801880e-001
2.760649e+003,8.149902e-001
2.761613e+003,1.825958e+000
2.762577e+003,1.742834e+000
2.763542e+003,8.204895e-001
2.764506e+003,1.576862e+000
2.765470e+003,3.461182e+000
2.766434e+003,3.382477e+000
2.767398e+003,1.968591e+000
2.768363e+003,5.070679e-001
2.769327e+003,-5.791565e-001
2.770291e+003,-6.134888e-001
2.771255e+003,1.406494e-001
2.772219e+003,1.093005e+000
2.773184e+003,1.971118e+000
2.774148e+003,2.071021e+000
2.775112e+003,1.450201e+000
2.776076e+003,1.142004e+000
2.777041e+003,1.169531e+000
2.778005e+003,1.258264e+000
2.778969e+003,1.351910e+000
2.779933e+003,1.010693e+000
2.780898e+003,4.498840e-001
2.781862e+003,3.429565e-001
2.782826e+003,6.514953e-001
2.783790e+003,1.345050e+000
2.784755e+003,2.055298e+000
2.785719e+003,1.130164e+000
2.786683e+003,-1.546130e+000
2.787647e+003,-1.564807e+000
2.788612e+003,1.552100e+000
2.789576e+003,2.526923e+000
2.790540e+003,1.487433e+000
2.791504e+003,2.415527e+000
2.792469e+003,4.880768e+000
2.793433e+003,5.484857e+000
2.794397e+003,4.288959e+000
2.795361e+003,3.178040e+000
2.796325e+003,2.460468e+000
2.797290e+003,1.453784e+000
2.798254e+003,1.130798e-001
2.799218e+003,-7.065490e-001
2.800182e+003,-1.081598e+000
2.801146e+003,6.806640e-002
2.802111e+003,3.018323e+000
2.803075e+003,5.225653e+000
2.804039e+003,6.466254e+000
2.805003e+003,6.461993e+000
2.805968e+003,5.359198e+000
2.806932e+003,3.698450e+000
2.807896e+003,2.086121e+000
2.808860e+003,1.452588e+000
2.809825e+003,1.968469e+000
2.810789e+003,3.497839e+000
2.811753e+003,6.354462e+000
2.812717e+003,7.474359e+000
2.813682e+003,6.541272e+000
2.814646e+003,5.122180e+000
2.815610e+003,3.338013e+000
2.816574e+003,3.230579e+000
2.817539e+003,4.496588e+000
2.818503e+003,4.535169e+000
2.819467e+003,3.231360e+000
2.820431e+003,2.182379e+000
2.821396e+003,1.851935e+000
2.822360e+003,1.866186e+000
2.823324e+003,2.087286e+000
2.824288e+003,3.548004e+000
2.825252e+003,7.174237e+000
2.826217e+003,7.953314e+000
2.827181e+003,5.824964e+000
2.828145e+003,4.481225e+000
2.829109e+003,4.146466e+000
2.830073e+003,4.302832e+000
2.831038e+003,4.599213e+000
2.832002e+003,3.841931e+000
2.832966e+003,2.361206e+000
2.833930e+003,2.935156e+000
2.834895e+003,6.162970e+000
2.835859e+003,7.483417e+000
2.836823e+003,6.139777e+000
2.837787e+003,5.152100e+000
2.838752e+003,4.532141e+000
2.839716e+003,4.411798e+000
2.840680e+003,4.689636e+000
2.841644e+003,4.591040e+000
2.842609e+003,4.190094e+000
2.843573e+003,4.467938e+000
2.844537e+003,5.269757e+000
2.845501e+003,5.018903e+000
2.846466e+003,3.518512e+000
2.847430e+003,3.158179e+000
2.848394e+003,4.346753e+000
2.849358e+003,4.677472e+000
2.850323e+003,4.076318e+000
2.851287e+003,5.078833e+000
2.852251e+003,7.221411e+000
2.853215e+003,6.672956e+000
2.854179e+003,4.188269e+000
2.855144e+003,3.603882e+000
2.856108e+003,4.735010e+000
2.857072e+003,4.662659e+000
2.858036e+003,3.198572e+000
2.859000e+003,2.789636e+000
2.859965e+003,3.587158e+000
2.860929e+003,5.190802e+000
2.861893e+003,7.606934e+000
2.862857e+003,7.362958e+000
2.863822e+003,5.271070e+000
2.864786e+003,5.536163e+000
2.865750e+003,7.352612e+000
2.866714e+003,7.324097e+000
2.867679e+003,5.930939e+000
2.868643e+003,5.827374e+000
2.869607e+003,7.030365e+000
2.870571e+003,7.518988e+000
2.871536e+003,7.343933e+000
2.872500e+003,7.703223e+000
2.873464e+003,8.469086e+000
2.874428e+003,7.698657e+000
2.875393e+003,5.990106e+000
2.876357e+003,4.945086e+000
2.877321e+003,4.898718e+000
2.878285e+003,7.239807e+000
2.879250e+003,1.011880e+001
2.880214e+003,9.226398e+000
2.881178e+003,6.056946e+000
2.882142e+003,6.236218e+000
2.883106e+003,8.516620e+000
2.884071e+003,7.372333e+000
2.885035e+003,3.798706e+000
2.885999e+003,3.103400e+000
2.886963e+003,4.393573e+000
2.887927e+003,6.460632e+000
2.888892e+003,8.324305e+000
2.889856e+003,8.080755e+000
2.890820e+003,7.075342e+000
2.891784e+003,7.818939e+000
2.892749e+003,9.025293e+000
2.893713e+003,8.126874e+000
2.894677e+003,6.617236e+000
2.895641e+003,8.272449e+000
2.896606e+003,1.125162e+001
2.897570e+003,9.909894e+000
2.898534e+003,6.999335e+000
2.899498e+003,6.965851e+000
2.900463e+003,7.971692e+000
2.901427e+003,8.050433e+000
2.902391e+003,7.684400e+000
2.903355e+003,7.595874e+000
2.904320e+003,7.207037e+000
2.905284e+003,5.677649e+000
2.906248e+003,4.369165e+000
2.907212e+003,5.613190e+000
2.908177e+003,7.588977e+000
2.909141e+003,6.862976e+000
2.910105e+003,5.641577e+000
2.911069e+003,6.671735e+000
2.912033e+003,7.728851e+000
2.912998e+003,7.004285e+000
2.913962e+003,5.836041e+000
2.914926e+003,4.899939e+000
2.915890e+003,4.080908e+000
2.916854e+003,3.246747e+000
2.917819e+003,3.230548e+000
2.918783e+003,5.065039e+000
2.919747e+003,6.736133e+000
2.920711e+003,5.831213e+000
2.921676e+003,4.451501e+000
2.922640e+003,3.393225e+000
2.923604e+003,3.072644e+000
2.924568e+003,4.103320e+000
2.925533e+003,4.673913e+000
2.926497e+003,3.995752e+000
2.927461e+003,3.389069e+000
2.928425e+003,3.909143e+000
2.929390e+003,4.325091e+000
2.930354e+003,2.856250e+000
2.931318e+003,1.746710e+000
2.932282e+003,3.406696e+000
2.933247e+003,4.328363e+000
2.934211e+003,4.782855e+000
2.935175e+003,5.036756e+000
2.936139e+003,4.238141e+000
2.937104e+003,3.931396e+000
2.938068e+003,4.565051e+000
2.939032e+003,5.626123e+000
2.939996e+003,6.780487e+000
2.940960e+003,7.454352e+000
2.941925e+003,7.400354e+000
2.942889e+003,6.882520e+000
2.943853e+003,5.848535e+000
2.944817e+003,4.990051e+000
2.945781e+003,4.442175e+000
2.946746e+003,3.085791e+000
2.947710e+003,1.021851e+000
2.948674e+003,8.377808e-001
2.949638e+003,2.393036e+000
2.950603e+003,3.827386e+000
2.951567e+003,4.723834e+000
2.952531e+003,5.274585e+000
2.953495e+003,5.520648e+000
2.954460e+003,5.744452e+000
2.955424e+003,5.986993e+000
2.956388e+003,5.142810e+000
2.957352e+003,3.370068e+000
2.958317e+003,2.135144e+000
2.959281e+003,1.673120e+000
2.960245e+003,3.277356e+000
2.961209e+003,5.419696e+000
2.962174e+003,4.677454e+000
2.963138e+003,2.335156e+000
2.964102e+003,1.705322e+000
2.965066e+003,2.544049e+000
2.966031e+003,4.291040e+000
2.966995e+003,6.501624e+000
2.967959e+003,8.015924e+000
2.968923e+003,8.650098e+000
2.969887e+003,7.458704e+000
2.970852e+003,5.783026e+000
2.971816e+003,5.257965e+000
2.972780e+003,5.145996e+000
2.973744e+003,4.549371e+000
2.974708e+003,4.096625e+000
2.975673e+003,4.460815e+000
2.976637e+003,4.530603e+000
2.977601e+003,2.769818e+000
2.978565e+003,1.008142e+000
2.979530e+003,2.346741e+000
2.980494e+003,3.962762e+000
2.981458e+003,3.532166e+000
2.982422e+003,2.727637e+000
2.983387e+003,1.984723e+000
2.984351e+003,1.873816e+000
2.985315e+003,2.754547e+000
2.986279e+003,3.231103e+000
2.987244e+003,2.605786e+000
2.988208e+003,2.061939e+000
2.989172e+003,2.362921e+000
2.990136e+003,2.292212e+000
2.991101e+003,8.402771e-001
2.992065e+003,-3.360229e-001
2.993029e+003,-1.305585e+000
2.993993e+003,-5.508057e-001
2.994958e+003,2.219507e+000
2.995922e+003,2.262311e+000
2.996886e+003,-6.045532e-001
2.997850e+003,-1.177637e+000
2.998814e+003,1.303198e+000
2.999779e+003,2.880237e+000
3.000743e+003,2.432135e+000
3.001707e+003,1.624377e+000
3.002671e+003,4.602478e-001
3.003635e+003,1.292444e+000
3.004600e+003,3.870862e+000
3.005564e+003,4.226026e+000
3.006528e+003,2.750232e+000
3.007492e+003,3.929932e-001
3.008457e+003,-1.517505e+000
3.009421e+003,2.681702e-001
3.010385e+003,3.830939e+000
3.011349e+003,3.715411e+000
3.012314e+003,1.000952e+000
3.013278e+003,-1.621194e+000
3.014242e+003,-3.560034e+000
3.015206e+003,-1.930454e+000
3.016171e+003,9.094543e-001
3.017135e+003,1.255945e+000
3.018099e+003,1.927857e-001
3.019063e+003,-2.394888e+000
3.020028e+003,-3.827274e+000
3.020992e+003,-1.504431e+000
3.021956e+003,9.277039e-001
3.022920e+003,2.418213e-001
3.023885e+003,-1.342816e+000
3.024849e+003,-1.431061e+000
3.025813e+003,-9.701508e-001
3.026777e+003,-6.475555e-001
3.027741e+003,-4.335175e-001
3.028706e+003,-6.716706e-001
3.029670e+003,-1.999573e-001
3.030634e+003,1.574902e+000
3.031598e+003,2.148718e+000
3.032563e+003,7.612305e-001
3.033527e+003,-4.765228e-001
3.034491e+003,-5.952301e-001
3.035455e+003,-9.235840e-002
3.036420e+003,9.129883e-001
3.037384e+003,1.928278e+000
3.038348e+003,3.193793e+000
3.039312e+003,2.924731e+000
3.040277e+003,1.129150e+000
3.041241e+003,8.899353e-001
3.042205e+003,1.957648e+000
3.043169e+003,2.124591e+000
3.044134e+003,1.329388e+000
3.045098e+003,4.018677e-001
3.046062e+003,-4.476685e-001
3.047026e+003,-1.054544e+000
3.047990e+003,-1.317160e+000
3.048955e+003,-7.225434e-001
3.049919e+003,4.450378e-001
3.050883e+003,1.101611e+000
3.051847e+003,1.284753e+000
3.052812e+003,9.350525e-001
3.053776e+003,3.019379e-001
3.054740e+003,-1.206308e+000
3.055704e+003,-1.745200e+000
3.056668e+003,7.066284e-001
3.057633e+003,3.735004e+000
3.058597e+003,4.738330e+000
3.059561e+003,4.362470e+000
3.060525e+003,2.745172e+000
3.061490e+003,1.249408e+000
3.062454e+003,9.540833e-001
3.063418e+003,1.131244e+000
3.064382e+003,1.525183e+000
3.065347e+003,2.198718e+000
3.066311e+003,3.209393e+000
3.067275e+003,3.702508e+000
3.068239e+003,3.425659e+000
3.069204e+003,3.062811e+000
3.070168e+003,2.860516e+000
3.071132e+003,2.657501e+000
3.072096e+003,2.511749e+000
3.073061e+003,2.104877e+000
3.074025e+003,1.426514e+000
3.074989e+003,1.109546e+000
3.075953e+003,1.082901e+000
3.076917e+003,1.293063e+000
3.077882e+003,1.346600e+000
3.078846e+003,-3.264160e-002
3.079810e+003,-2.122275e+000
3.080774e+003,-2.311414e+000
3.081739e+003,-1.330045e+000
3.082703e+003,-1.558936e+000
3.083667e+003,-2.554971e+000
3.084631e+003,-2.795090e+000
3.085595e+003,-2.657428e+000
3.086560e+003,-2.850857e+000
3.087524e+003,-2.823493e+000
3.088488e+003,-1.629532e+000
3.089452e+003,-5.595185e-001
3.090417e+003,-4.339233e-001
3.091381e+003,-8.153992e-001
3.092345e+003,-1.389655e+000
3.093309e+003,-1.883334e+000
3.094274e+003,-2.192508e+000
3.095238e+003,-1.874832e+000
3.096202e+003,-3.258972e-002
3.097166e+003,1.550760e+000
3.098131e+003,2.847589e+000
3.099095e+003,2.361844e+000
3.100059e+003,-1.932068e-002
3.101023e+003,-1.855923e+000
3.101988e+003,-2.481552e+000
3.102952e+003,-1.925122e+000
3.103916e+003,-5.117340e-001
3.104880e+003,-7.241943e-001
3.105844e+003,-2.837210e+000
3.106809e+003,-3.562762e+000
3.107773e+003,-3.070798e+000
3.108737e+003,-3.811240e+000
3.109701e+003,-4.845059e+000
3.110666e+003,-2.856744e+000
3.111630e+003,-6.363525e-002
3.112594e+003,-6.010681e-001
3.113558e+003,-2.582126e+000
3.114522e+003,-3.220697e+000
3.115487e+003,-3.290784e+000
3.116451e+003,-3.817746e+000
3.117415e+003,-4.527643e+000
3.118379e+003,-5.431277e+000
3.119344e+003,-5.758563e+000
3.120308e+003,-3.979544e+000
3.121272e+003,-3.214893e+000
3.122236e+003,-5.010477e+000
3.123201e+003,-5.620773e+000
3.124165e+003,-3.911340e+000
3.125129e+003,-2.942462e+000
3.126093e+003,-3.926212e+000
3.127058e+003,-5.292890e+000
3.128022e+003,-6.549726e+000
3.128986e+003,-6.149130e+000
3.129950e+003,-3.245807e+000
3.130915e+003,-1.737213e+000
3.131879e+003,-1.542392e+000
3.132843e+003,-2.091873e+000
3.133807e+003,-3.080481e+000
3.134771e+003,-4.346927e+000
3.135736e+003,-5.240530e+000
3.136700e+003,-3.694663e+000
3.137664e+003,-1.466870e+000
3.138628e+003,-2.043839e+000
3.139593e+003,-4.324982e+000
3.140557e+003,-6.522134e+000
3.141521e+003,-7.815057e+000
3.142485e+003,-6.109607e+000
3.143449e+003,-4.026090e+000
3.144414e+003,-3.578809e+000
3.145378e+003,-3.530286e+000
3.146342e+003,-3.429477e+000
3.147306e+003,-2.918671e+000
3.148271e+003,-1.892633e+000
3.149235e+003,-1.323370e+000
3.150199e+003,-1.756653e+000
3.151163e+003,-2.829709e+000
3.152128e+003,-4.720035e+000
3.153092e+003,-6.341873e+000
3.154056e+003,-7.769617e+000
3.155020e+003,-7.647937e+000
3.155985e+003,-6.367941e+000
3.156949e+003,-6.031662e+000
3.157913e+003,-6.387366e+000
3.158877e+003,-6.153351e+000
3.159842e+003,-5.358252e+000
3.160806e+003,-4.731223e+000
3.161770e+003,-3.954614e+000
3.162734e+003,-1.641315e+000
3.163698e+003,6.583160e-001
3.164663e+003,-1.411142e+000
3.165627e+003,-4.199878e+000
3.166591e+003,-3.329446e+000
3.167555e+003,-2.543369e+000
3.168520e+003,-4.095175e+000
3.169484e+003,-6.289703e+000
3.170448e+003,-8.325253e+000
3.171412e+003,-8.326312e+000
3.172376e+003,-5.210681e+000
3.173341e+003,-2.534674e+000
3.174305e+003,-2.093277e+000
3.175269e+003,-2.594324e+000
3.176233e+003,-4.091565e+000
3.177198e+003,-4.647940e+000
3.178162e+003,-4.395328e+000
3.179126e+003,-5.033249e+000
3.180090e+003,-6.221014e+000
3.181055e+003,-6.561399e+000
3.182019e+003,-6.095856e+000
3.182983e+003,-5.370758e+000
3.183947e+003,-4.692822e+000
3.184912e+003,-4.781747e+000
3.185876e+003,-5.212943e+000
3.186840e+003,-4.866122e+000
3.187804e+003,-4.580649e+000
3.188769e+003,-5.249942e+000
3.189733e+003,-6.365512e+000
3.190697e+003,-8.164706e+000
3.191661e+003,-8.449124e+000
3.192625e+003,-6.311139e+000
3.193590e+003,-4.903024e+000
3.194554e+003,-5.818030e+000
3.195518e+003,-6.706326e+000
3.196482e+003,-6.543152e+000
3.197447e+003,-5.644293e+000
3.198411e+003,-3.770639e+000
3.199375e+003,-4.175870e+000
3.200339e+003,-6.207809e+000
3.201303e+003,-5.060440e+000
3.202268e+003,-2.265143e+000
3.203232e+003,-2.668494e+000
3.204196e+003,-5.063779e+000
3.205160e+003,-5.885703e+000
3.206125e+003,-5.402209e+000
3.207089e+003,-3.855710e+000
3.208053e+003,-2.444614e+000
3.209017e+003,-3.928857e+000
3.209982e+003,-5.607495e+000
3.210946e+003,-5.066330e+000
3.211910e+003,-4.196005e+000
3.212874e+003,-3.673312e+000
3.213839e+003,-3.104199e+000
3.214803e+003,-2.443851e+000
3.215767e+003,-2.794586e+000
3.216731e+003,-4.456152e+000
3.217696e+003,-6.057303e+000
3.218660e+003,-7.347873e+000
3.219624e+003,-6.273077e+000
3.220588e+003,-2.751977e+000
3.221552e+003,-2.008719e+000
3.222517e+003,-3.290695e+000
3.223481e+003,-4.894379e+000
3.224445e+003,-6.066772e+000
3.225409e+003,-5.277625e+000
3.226374e+003,-4.117111e+000
3.227338e+003,-4.524185e+000
3.228302e+003,-5.461087e+000
3.229266e+003,-5.713785e+000
3.230230e+003,-5.540140e+000
3.231195e+003,-5.128122e+000
3.232159e+003,-4.437884e+000
3.233123e+003,-2.728873e+000
3.234087e+003,-2.863593e+000
3.235052e+003,-5.304361e+000
3.236016e+003,-5.693418e+000
3.236980e+003,-3.616766e+000
3.237944e+003,-2.520474e+000
3.238909e+003,-3.123389e+000
3.239873e+003,-3.698572e+000
3.240837e+003,-4.026593e+000
3.241801e+003,-3.486597e+000
3.242766e+003,-2.529755e+000
3.243730e+003,-3.505685e+000
3.244694e+003,-4.855127e+000
3.245658e+003,-3.854840e+000
3.246623e+003,-2.729019e+000
3.247587e+003,-3.428290e+000
3.248551e+003,-4.821509e+000
3.249515e+003,-6.242002e+000
3.250479e+003,-6.254791e+000
3.251444e+003,-3.502927e+000
3.252408e+003,-1.345184e+000
3.253372e+003,-1.953082e+000
3.254336e+003,-2.872418e+000
3.255301e+003,-3.994858e+000
3.256265e+003,-4.225488e+000
3.257229e+003,-3.760184e+000
3.258193e+003,-4.009284e+000
3.259157e+003,-4.662519e+000
3.260122e+003,-4.288049e+000
3.261086e+003,-3.041321e+000
3.262050e+003,-1.268137e+000
3.263014e+003,-1.775482e-001
3.263979e+003,-3.772629e+000
3.264943e+003,-7.997556e+000
3.265907e+003,-7.902344e+000
3.266871e+003,-6.435684e+000
3.267836e+003,-4.669971e+000
3.268800e+003,-3.651846e+000
3.269764e+003,-3.630444e+000
3.270728e+003,-3.711816e+000
3.271693e+003,-3.595972e+000
3.272657e+003,-3.977524e+000
3.273621e+003,-5.152759e+000
3.274585e+003,-4.477115e+000
3.275550e+003,-1.762280e+000
3.276514e+003,-1.023767e+000
3.277478e+003,-1.545834e+000
3.278442e+003,-1.429385e+000
3.279406e+003,-1.071823e+000
3.280371e+003,-1.292114e+000
3.281335e+003,-1.702011e+000
3.282299e+003,-1.969177e+000
3.283263e+003,-1.829480e+000
3.284228e+003,-9.865540e-001
3.285192e+003,-2.476990e-001
3.286156e+003,-1.122406e-001
3.287120e+003,-7.160248e-001
3.288084e+003,-2.655624e+000
3.289049e+003,-2.712531e+000
3.290013e+003,-8.827392e-001
3.290977e+003,9.715576e-002
3.291941e+003,1.816711e-002
3.292906e+003,-2.360779e-001
3.293870e+003,-4.595215e-001
3.294834e+003,-4.492340e-001
3.295798e+003,-5.819794e-001
3.296763e+003,-2.598740e+000
3.297727e+003,-4.493567e+000
3.298691e+003,-1.947607e+000
3.299655e+003,9.964539e-001
3.300620e+003,1.149323e+000
3.301584e+003,1.007990e+000
3.302548e+003,1.252359e+000
3.303512e+003,1.231064e+000
3.304477e+003,7.648987e-001
3.305441e+003,3.469574e-001
3.306405e+003,1.437256e-001
3.307369e+003,-8.912659e-002
3.308333e+003,-3.833832e-001
3.309298e+003,-7.046875e-001
3.310262e+003,-9.065155e-001
3.311226e+003,-3.548981e-001
3.312190e+003,3.958527e-001
3.313155e+003,3.717377e-001
3.314119e+003,3.472748e-001
3.315083e+003,9.979981e-001
3.316047e+003,1.810870e+000
3.317011e+003,2.402948e+000
3.317976e+003,2.395374e+000
3.318940e+003,4.144623e-001
3.319904e+003,7.552002e-001
3.320868e+003,5.007538e+000
3.321833e+003,5.393280e+000
3.322797e+003,2.357285e+000
3.323761e+003,2.078653e+000
3.324725e+003,4.018933e+000
3.325690e+003,4.667902e+000
3.326654e+003,3.968787e+000
3.327618e+003,2.849274e+000
3.328582e+003,1.714874e+000
3.329547e+003,1.341754e+000
3.330511e+003,1.530267e+000
3.331475e+003,2.416007e+000
3.332439e+003,3.121841e+000
3.333404e+003,3.308011e+000
3.334368e+003,3.311157e+000
3.335332e+003,3.215991e+000
3.336296e+003,2.746182e+000
3.337260e+003,1.967838e+000
3.338225e+003,1.641837e+000
3.339189e+003,2.004193e+000
3.340153e+003,3.146060e+000
3.341117e+003,4.787036e+000
3.342082e+003,5.398068e+000
3.343046e+003,5.174689e+000
3.344010e+003,3.983835e+000
3.344974e+003,2.742474e+000
3.345938e+003,1.802350e+000
3.346903e+003,2.217264e+000
3.347867e+003,4.446680e+000
3.348831e+003,5.867908e+000
3.349795e+003,5.022742e+000
3.350760e+003,4.340521e+000
3.351724e+003,4.835464e+000
3.352688e+003,4.731195e+000
3.353652e+003,4.175967e+000
3.354617e+003,4.773071e+000
3.355581e+003,5.797992e+000
3.356545e+003,5.283905e+000
3.357509e+003,4.371481e+000
3.358474e+003,4.725479e+000
3.359438e+003,5.616022e+000
3.360402e+003,6.359256e+000
3.361366e+003,7.254474e+000
3.362331e+003,9.093466e+000
3.363295e+003,9.633154e+000
3.364259e+003,7.188507e+000
3.365223e+003,6.214749e+000
3.366188e+003,6.886255e+000
3.367152e+003,7.042441e+000
3.368116e+003,6.651233e+000
3.369080e+003,6.797498e+000
3.370044e+003,7.229596e+000
3.371009e+003,7.039560e+000
3.371973e+003,6.435339e+000
3.372937e+003,5.533365e+000
3.373901e+003,4.946750e+000
3.374865e+003,5.451993e+000
3.375830e+003,6.572934e+000
3.376794e+003,8.377093e+000
3.377758e+003,9.735156e+000
3.378722e+003,1.036475e+001
3.379687e+003,9.495611e+000
3.380651e+003,7.597665e+000
3.381615e+003,7.969681e+000
3.382579e+003,1.042205e+001
3.383544e+003,1.053925e+001
3.384508e+003,9.204288e+000
3.385472e+003,9.668256e+000
3.386436e+003,1.055537e+001
3.387401e+003,1.028908e+001
3.388365e+003,9.356595e+000
3.389329e+003,7.827435e+000
3.390293e+003,7.565155e+000
3.391258e+003,9.189905e+000
3.392222e+003,1.100200e+001
3.393186e+003,1.231301e+001
3.394150e+003,1.230124e+001
3.395115e+003,1.088279e+001
3.396079e+003,1.094325e+001
3.397043e+003,1.185519e+001
3.398007e+003,1.139602e+001
3.398971e+003,1.077892e+001
3.399936e+003,1.209929e+001
3.400900e+003,1.338564e+001
3.401864e+003,1.335524e+001
3.402828e+003,1.369465e+001
3.403792e+003,1.563508e+001
3.404757e+003,1.593809e+001
3.405721e+003,1.139094e+001
3.406685e+003,9.813425e+000
3.407649e+003,1.143352e+001
3.408614e+003,1.334621e+001
3.409578e+003,1.483098e+001
3.410542e+003,1.429190e+001
3.411506e+003,1.268502e+001
3.412471e+003,1.116001e+001
3.413435e+003,1.085034e+001
3.414399e+003,1.301598e+001
3.415363e+003,1.515595e+001
3.416328e+003,1.444801e+001
3.417292e+003,1.395382e+001
3.418256e+003,1.489047e+001
3.419220e+003,1.529102e+001
3.420185e+003,1.518629e+001
3.421149e+003,1.608867e+001
3.422113e+003,1.737730e+001
3.423077e+003,1.640166e+001
3.424042e+003,1.477164e+001
3.425006e+003,1.583514e+001
3.425970e+003,1.775691e+001
3.426934e+003,1.780098e+001
