7.140112e+001,1.620414e+002
7.236536e+001,1.559986e+002
7.332959e+001,1.529011e+002
7.429382e+001,1.557638e+002
7.525806e+001,1.654243e+002
7.622229e+001,1.702205e+002
7.718652e+001,1.621280e+002
7.815076e+001,1.340302e+002
7.911499e+001,1.152080e+002
8.007922e+001,1.033459e+002
8.104346e+001,9.872868e+001
8.200769e+001,1.022862e+002
8.297192e+001,1.190679e+002
8.393616e+001,1.384415e+002
8.490039e+001,1.640975e+002
8.586462e+001,1.900297e+002
8.682886e+001,2.065431e+002
8.779310e+001,1.946900e+002
8.875733e+001,1.715285e+002
8.972157e+001,1.433947e+002
9.068580e+001,1.140413e+002
9.165003e+001,8.603065e+001
9.261427e+001,7.510909e+001
9.357850e+001,7.585329e+001
9.454273e+001,8.031610e+001
9.550697e+001,8.334889e+001
9.647120e+001,8.501308e+001
9.743543e+001,8.513816e+001
9.839967e+001,8.448253e+001
9.936390e+001,8.221626e+001
1.003281e+002,7.685114e+001
1.012924e+002,6.266624e+001
1.022566e+002,5.295986e+001
1.032208e+002,5.120724e+001
1.041851e+002,5.556316e+001
1.051493e+002,6.133721e+001
1.061135e+002,6.756783e+001
1.070778e+002,7.119604e+001
1.080420e+002,6.945079e+001
1.090062e+002,6.210795e+001
1.099705e+002,5.188943e+001
1.109347e+002,4.433678e+001
1.118989e+002,3.911046e+001
1.128632e+002,3.779227e+001
1.138274e+002,4.160445e+001
1.147916e+002,5.172105e+001
1.157559e+002,5.744740e+001
1.167201e+002,5.820900e+001
1.176843e+002,5.661115e+001
1.186486e+002,5.571624e+001
1.196128e+002,5.575702e+001
1.205770e+002,5.621287e+001
1.215413e+002,5.923785e+001
1.225055e+002,6.274613e+001
1.234697e+002,6.228898e+001
1.244340e+002,4.850941e+001
1.253982e+002,3.501337e+001
1.263624e+002,2.491076e+001
1.273267e+002,1.957804e+001
1.282909e+002,1.908363e+001
1.292551e+002,2.924882e+001
1.302194e+002,4.259619e+001
1.311836e+002,5.261088e+001
1.321478e+002,5.508936e+001
1.331121e+002,4.967673e+001
1.340763e+002,4.218919e+001
1.350405e+002,3.211797e+001
1.360048e+002,2.315670e+001
1.369690e+002,1.924697e+001
1.379332e+002,2.372349e+001
1.388975e+002,2.921848e+001
1.398617e+002,3.798856e+001
1.408259e+002,4.696161e+001
1.417902e+002,5.120607e+001
1.427544e+002,4.435842e+001
1.437186e+002,3.688837e+001
1.446829e+002,3.072886e+001
1.456471e+002,2.636415e+001
1.466113e+002,2.342815e+001
1.475756e+002,2.068740e+001
1.485398e+002,1.981261e+001
1.495040e+002,2.412000e+001
1.504683e+002,3.415717e+001
1.514325e+002,4.758071e+001
1.523967e+002,5.011489e+001
1.533610e+002,4.431672e+001
1.543252e+002,3.621625e+001
1.552894e+002,2.988148e+001
1.562537e+002,2.575448e+001
1.572179e+002,2.279010e+001
1.581821e+002,1.955533e+001
1.591464e+002,1.796339e+001
1.601106e+002,2.083439e+001
1.610748e+002,3.429031e+001
1.620391e+002,4.253580e+001
1.630033e+002,3.975470e+001
1.639676e+002,3.042882e+001
1.649318e+002,2.150857e+001
1.658960e+002,1.984248e+001
1.668603e+002,2.097286e+001
1.678245e+002,2.236102e+001
1.687887e+002,2.355761e+001
1.697530e+002,2.488851e+001
1.707172e+002,2.792841e+001
1.716814e+002,3.168024e+001
1.726457e+002,3.329604e+001
1.736099e+002,3.153942e+001
1.745741e+002,2.624047e+001
1.755384e+002,2.189981e+001
1.765026e+002,1.817001e+001
1.774668e+002,1.530699e+001
1.784311e+002,1.395377e+001
1.793953e+002,1.508335e+001
1.803595e+002,1.491064e+001
1.813238e+002,1.090286e+001
1.822880e+002,6.624170e+000
1.832522e+002,5.496582e+000
1.842165e+002,1.119456e+001
1.851807e+002,1.625795e+001
1.861449e+002,1.471195e+001
1.871092e+002,9.295008e+000
1.880734e+002,3.366577e+000
1.890376e+002,1.183862e+000
1.900019e+002,2.526013e+000
1.909661e+002,6.220349e+000
1.919303e+002,1.206879e+001
1.928946e+002,1.861971e+001
1.938588e+002,2.084575e+001
1.948230e+002,1.569182e+001
1.957873e+002,1.296072e+001
1.967515e+002,1.481954e+001
1.977157e+002,2.119844e+001
1.986800e+002,2.799668e+001
1.996442e+002,3.399857e+001
2.006084e+002,4.073552e+001
2.015727e+002,5.051374e+001
2.025369e+002,6.385806e+001
2.035011e+002,7.351522e+001
2.044654e+002,7.412710e+001
2.054296e+002,6.999757e+001
2.063938e+002,6.165404e+001
2.073581e+002,4.963804e+001
2.083223e+002,3.721144e+001
2.092865e+002,3.124273e+001
2.102508e+002,3.050527e+001
2.112150e+002,3.495226e+001
2.121792e+002,4.476081e+001
2.131435e+002,6.225664e+001
2.141077e+002,6.973441e+001
2.150719e+002,6.277122e+001
2.160362e+002,4.979499e+001
2.170004e+002,4.335995e+001
2.179646e+002,4.920842e+001
2.189289e+002,5.464799e+001
2.198931e+002,5.745139e+001
2.208573e+002,5.899055e+001
2.218216e+002,6.228609e+001
2.227858e+002,7.178035e+001
2.237500e+002,8.098209e+001
2.247143e+002,8.990302e+001
2.256785e+002,9.677922e+001
2.266427e+002,9.846627e+001
2.276070e+002,8.398312e+001
2.285712e+002,6.201730e+001
2.295354e+002,4.382229e+001
2.304997e+002,3.267190e+001
2.314639e+002,2.753968e+001
2.324281e+002,2.171692e+001
2.333924e+002,1.460565e+001
2.343566e+002,9.076343e+000
2.353208e+002,6.753662e+000
2.362851e+002,8.266821e+000
2.372493e+002,8.987244e+000
2.382135e+002,8.363684e+000
2.391778e+002,7.351209e+000
2.401420e+002,6.369421e+000
2.411062e+002,5.572900e+000
2.420705e+002,4.639600e+000
2.430347e+002,3.610022e+000
2.439989e+002,2.231042e+000
2.449632e+002,-8.829346e-002
2.459274e+002,-3.902576e+000
2.468916e+002,-7.556250e+000
2.478559e+002,-7.543689e+000
2.488201e+002,-5.012073e+000
2.497843e+002,-2.095508e+000
2.507486e+002,-1.303235e+000
2.517128e+002,-3.315173e+000
2.526770e+002,-3.170630e+000
2.536413e+002,-2.818603e-002
2.546055e+002,4.305884e+000
2.555697e+002,7.049268e+000
2.565340e+002,7.157019e+000
2.574982e+002,6.834704e+000
2.584625e+002,6.217981e+000
2.594267e+002,5.492468e+000
2.603909e+002,4.890674e+000
2.613552e+002,4.771020e+000
2.623194e+002,4.173242e+000
2.632836e+002,2.200207e+000
2.642479e+002,-6.149658e-001
2.652121e+002,-3.099927e+000
2.661763e+002,-3.083728e+000
2.671406e+002,-1.754956e+000
2.681048e+002,-1.061108e+000
2.690690e+002,-1.323218e+000
2.700333e+002,-2.114026e+000
2.709975e+002,-1.564478e+000
2.719617e+002,1.004004e+000
2.729260e+002,2.776074e+000
2.738902e+002,3.032813e+000
2.748544e+002,1.780786e+000
2.758187e+002,4.681396e-002
2.767829e+002,-3.117822e+000
2.777471e+002,-5.892273e+000
2.787114e+002,-7.957605e+000
2.796756e+002,-9.138904e+000
2.806398e+002,-8.901441e+000
2.816041e+002,-5.732019e+000
2.825683e+002,-2.016834e+000
2.835325e+002,1.282227e+000
2.844968e+002,3.633240e+000
2.854610e+002,5.034790e+000
2.864252e+002,4.943017e+000
2.873895e+002,4.049561e+000
2.883537e+002,3.567090e+000
2.893179e+002,4.308215e+000
2.902822e+002,6.459094e+000
2.912464e+002,5.831286e+000
2.922106e+002,1.687524e+000
2.931749e+002,-2.971460e+000
2.941391e+002,-6.351648e+000
2.951033e+002,-8.279175e+000
2.960676e+002,-9.566455e+000
2.970318e+002,-1.066652e+001
2.979960e+002,-1.097311e+001
2.989603e+002,-9.738134e+000
2.999245e+002,-6.279273e+000
3.008887e+002,-3.052258e+000
3.018530e+002,-2.053565e+000
3.028172e+002,-2.000586e+000
3.037814e+002,-1.639490e+000
3.047457e+002,1.221069e-001
3.057099e+002,2.666003e+000
3.066741e+002,4.332544e+000
3.076384e+002,5.073669e+000
3.086026e+002,4.276807e+000
3.095668e+002,1.133093e+000
3.105311e+002,-5.719629e+000
3.114953e+002,-9.256226e+000
3.124595e+002,-8.046631e+000
3.134238e+002,-4.937415e+000
3.143880e+002,-3.343054e+000
3.153522e+002,-4.916199e+000
3.163165e+002,-5.433667e+000
3.172807e+002,-3.270215e+000
3.182449e+002,-2.551269e-003
3.192092e+002,2.516895e+000
3.201734e+002,2.796582e+000
3.211376e+002,2.312805e+000
3.221019e+002,2.267175e+000
3.230661e+002,2.582898e+000
3.240303e+002,2.995801e+000
3.249946e+002,3.116675e+000
3.259588e+002,3.151868e+000
3.269230e+002,4.353430e+000
3.278873e+002,6.784314e+000
3.288515e+002,9.322497e+000
3.298157e+002,9.946350e+000
3.307800e+002,6.593799e+000
3.317442e+002,5.176282e+000
3.327084e+002,6.035730e+000
3.336727e+002,8.476160e+000
3.346369e+002,1.159830e+001
3.356011e+002,1.718514e+001
3.365654e+002,2.052194e+001
3.375296e+002,1.945234e+001
3.384938e+002,1.580504e+001
3.394581e+002,1.230653e+001
3.404223e+002,1.101980e+001
3.413865e+002,1.120914e+001
3.423508e+002,1.185472e+001
3.433150e+002,1.312870e+001
3.442792e+002,1.554607e+001
3.452435e+002,2.007975e+001
3.462077e+002,2.683518e+001
3.471719e+002,3.267046e+001
3.481362e+002,3.671722e+001
3.491004e+002,4.077710e+001
3.500646e+002,4.886239e+001
3.510289e+002,5.997504e+001
3.519931e+002,7.866427e+001
3.529573e+002,1.074187e+002
3.539216e+002,1.431426e+002
3.548858e+002,1.820008e+002
3.558500e+002,2.346924e+002
3.568143e+002,2.716295e+002
3.577785e+002,2.826167e+002
3.587427e+002,2.716751e+002
3.597070e+002,2.454065e+002
3.606712e+002,2.039220e+002
3.616354e+002,1.577863e+002
3.625997e+002,1.195480e+002
3.635639e+002,9.007212e+001
3.645281e+002,6.853772e+001
3.654924e+002,5.337643e+001
3.664566e+002,4.647588e+001
3.674208e+002,4.033059e+001
3.683851e+002,3.511455e+001
3.693493e+002,3.049340e+001
3.703135e+002,2.578447e+001
3.712778e+002,2.039926e+001
3.722420e+002,1.624279e+001
3.732062e+002,1.329415e+001
3.741705e+002,1.161271e+001
3.751347e+002,1.151477e+001
3.760989e+002,1.450554e+001
3.770632e+002,1.715629e+001
3.780274e+002,1.734419e+001
3.789916e+002,1.583060e+001
3.799559e+002,1.396072e+001
3.809201e+002,1.323538e+001
3.818844e+002,1.334597e+001
3.828486e+002,1.300955e+001
3.838128e+002,1.225930e+001
3.847771e+002,1.142529e+001
3.857413e+002,1.100852e+001
3.867055e+002,1.137142e+001
3.876698e+002,1.121556e+001
3.886340e+002,9.034704e+000
3.895982e+002,6.868213e+000
3.905625e+002,7.926477e+000
3.915267e+002,1.552887e+001
3.924909e+002,2.099413e+001
3.934552e+002,2.239799e+001
3.944194e+002,2.143210e+001
3.953836e+002,1.970645e+001
3.963479e+002,1.776432e+001
3.973121e+002,1.629333e+001
3.982763e+002,1.599871e+001
3.992406e+002,1.644958e+001
4.002048e+002,1.700447e+001
4.011690e+002,1.702019e+001
4.021333e+002,1.662782e+001
4.030975e+002,1.706025e+001
4.040617e+002,1.833457e+001
4.050260e+002,1.994618e+001
4.059902e+002,2.126172e+001
4.069544e+002,2.170617e+001
4.079187e+002,2.364759e+001
4.088829e+002,2.756021e+001
4.098471e+002,3.210137e+001
4.108114e+002,3.617687e+001
4.117756e+002,3.932932e+001
4.127398e+002,4.322465e+001
4.137041e+002,5.002431e+001
4.146683e+002,5.674592e+001
4.156325e+002,6.124454e+001
4.165968e+002,6.237300e+001
4.175610e+002,6.104454e+001
4.185252e+002,5.821445e+001
4.194895e+002,5.464938e+001
4.204537e+002,5.101671e+001
4.214179e+002,4.777887e+001
4.223822e+002,4.501680e+001
4.233464e+002,4.417317e+001
4.243106e+002,4.516991e+001
4.252749e+002,4.643070e+001
4.262391e+002,4.637125e+001
4.272033e+002,4.460353e+001
4.281676e+002,4.729191e+001
4.291318e+002,5.595103e+001
4.300960e+002,6.746526e+001
4.310603e+002,8.092621e+001
4.320245e+002,9.603682e+001
4.329887e+002,1.133518e+002
4.339530e+002,1.346526e+002
4.349172e+002,1.576949e+002
4.358814e+002,1.849095e+002
4.368457e+002,2.144957e+002
4.378099e+002,2.409168e+002
4.387741e+002,2.522089e+002
4.397384e+002,2.503929e+002
4.407026e+002,2.406729e+002
4.416668e+002,2.232969e+002
4.426311e+002,2.006420e+002
4.435953e+002,1.807168e+002
4.445595e+002,1.644643e+002
4.455238e+002,1.503640e+002
4.464880e+002,1.385790e+002
4.474522e+002,1.289021e+002
4.484165e+002,1.212815e+002
4.493807e+002,1.178698e+002
4.503449e+002,1.140529e+002
4.513092e+002,1.088826e+002
4.522734e+002,1.021707e+002
4.532376e+002,9.348846e+001
4.542019e+002,8.172511e+001
4.551661e+002,6.958872e+001
4.561303e+002,6.026892e+001
4.570946e+002,5.345636e+001
4.580588e+002,4.843295e+001
4.590230e+002,4.442416e+001
4.599873e+002,4.159697e+001
4.609515e+002,3.927171e+001
4.619157e+002,3.710536e+001
4.628800e+002,3.567279e+001
4.638442e+002,3.535001e+001
4.648084e+002,3.596105e+001
4.657727e+002,3.861936e+001
4.667369e+002,4.505644e+001
4.677011e+002,5.169487e+001
4.686654e+002,5.641512e+001
4.696296e+002,5.856061e+001
4.705938e+002,5.928079e+001
4.715581e+002,5.956844e+001
4.725223e+002,5.889671e+001
4.734865e+002,5.644701e+001
4.744508e+002,5.215881e+001
4.754150e+002,4.702063e+001
4.763792e+002,4.365077e+001
4.773435e+002,4.138367e+001
4.783077e+002,3.832737e+001
4.792719e+002,3.372351e+001
4.802362e+002,2.808532e+001
4.812004e+002,2.421456e+001
4.821646e+002,2.369857e+001
4.831289e+002,2.294279e+001
4.840931e+002,2.134290e+001
4.850573e+002,1.915527e+001
4.860216e+002,1.712350e+001
4.869858e+002,1.542711e+001
4.879500e+002,1.453108e+001
4.889143e+002,1.530141e+001
4.898785e+002,1.673430e+001
4.908427e+002,1.716676e+001
4.918070e+002,1.481506e+001
4.927712e+002,1.146100e+001
4.937354e+002,9.957159e+000
4.946997e+002,1.003729e+001
4.956639e+002,1.112845e+001
4.966281e+002,1.268726e+001
4.975924e+002,1.477849e+001
4.985566e+002,1.592072e+001
4.995208e+002,1.518863e+001
5.004851e+002,1.500612e+001
5.014493e+002,1.768027e+001
5.024135e+002,2.420305e+001
5.033778e+002,2.883804e+001
5.043420e+002,3.004279e+001
5.053063e+002,3.069436e+001
5.062705e+002,3.236826e+001
5.072347e+002,3.514305e+001
5.081990e+002,3.689064e+001
5.091632e+002,3.477124e+001
5.101274e+002,3.120912e+001
5.110917e+002,2.709584e+001
5.120559e+002,2.290861e+001
5.130201e+002,1.892793e+001
5.139844e+002,1.569471e+001
5.149486e+002,1.311661e+001
5.159128e+002,1.046932e+001
5.168771e+002,7.691492e+000
5.178413e+002,4.868915e+000
5.188055e+002,2.100250e+000
5.197698e+002,-1.447754e+000
5.207340e+002,-3.449823e+000
5.216982e+002,-2.588568e+000
5.226625e+002,-9.395935e-001
5.236267e+002,-1.088196e+000
5.245909e+002,-4.613464e+000
5.255552e+002,-7.549273e+000
5.265194e+002,-7.398261e+000
5.274836e+002,-6.108099e+000
5.284479e+002,-5.394147e+000
5.294121e+002,-6.174573e+000
5.303763e+002,-7.549597e+000
5.313406e+002,-7.444903e+000
5.323048e+002,-6.472735e+000
5.332690e+002,-5.535352e+000
5.342333e+002,-5.050238e+000
5.351975e+002,-4.964960e+000
5.361617e+002,-4.943909e+000
5.371260e+002,-5.177142e+000
5.380902e+002,-5.091925e+000
5.390544e+002,-4.360517e+000
5.400187e+002,-3.282422e+000
5.409829e+002,-2.716650e+000
5.419471e+002,-2.951166e+000
5.429114e+002,-3.520709e+000
5.438756e+002,-4.632483e+000
5.448398e+002,-5.947248e+000
5.458041e+002,-6.995074e+000
5.467683e+002,-7.401001e+000
5.477325e+002,-7.385223e+000
5.486968e+002,-7.602435e+000
5.496610e+002,-7.811987e+000
5.506252e+002,-7.332098e+000
5.515895e+002,-5.592767e+000
5.525537e+002,-2.661035e+000
5.535179e+002,-2.028375e+000
5.544822e+002,-4.125818e+000
5.554464e+002,-6.104333e+000
5.564106e+002,-6.353058e+000
5.573749e+002,-4.885065e+000
5.583391e+002,-4.141620e+000
5.593033e+002,-5.249646e+000
5.602676e+002,-6.109241e+000
5.612318e+002,-6.052124e+000
5.621960e+002,-5.245453e+000
5.631603e+002,-4.318231e+000
5.641245e+002,-3.348914e+000
5.650887e+002,-2.939887e+000
5.660530e+002,-3.872980e+000
5.670172e+002,-5.729034e+000
5.679814e+002,-7.647790e+000
5.689457e+002,-8.714624e+000
5.699099e+002,-8.931231e+000
5.708741e+002,-8.895533e+000
5.718384e+002,-8.492462e+000
5.728026e+002,-8.215820e+000
5.737668e+002,-8.673792e+000
5.747311e+002,-1.020086e+001
5.756953e+002,-1.087619e+001
5.766595e+002,-1.027336e+001
5.776238e+002,-9.396643e+000
5.785880e+002,-8.398028e+000
5.795522e+002,-7.394415e+000
5.805165e+002,-6.724530e+000
5.814807e+002,-6.708631e+000
5.824449e+002,-7.028577e+000
5.834092e+002,-7.765723e+000
5.843734e+002,-8.766851e+000
5.853376e+002,-9.798742e+000
5.863019e+002,-1.065470e+001
5.872661e+002,-1.109843e+001
5.882303e+002,-1.031321e+001
5.891946e+002,-8.236176e+000
5.901588e+002,-6.224566e+000
5.911230e+002,-5.826410e+000
5.920873e+002,-7.731805e+000
5.930515e+002,-8.616961e+000
5.940157e+002,-7.546918e+000
5.949800e+002,-6.693585e+000
5.959442e+002,-7.510651e+000
5.969084e+002,-1.000212e+001
5.978727e+002,-1.191537e+001
5.988369e+002,-1.143901e+001
5.998011e+002,-1.048326e+001
6.007654e+002,-9.353747e+000
6.017296e+002,-8.396210e+000
6.026938e+002,-8.129156e+000
6.036581e+002,-9.396454e+000
6.046223e+002,-1.151007e+001
6.055865e+002,-1.228261e+001
6.065508e+002,-1.174057e+001
6.075150e+002,-1.068703e+001
6.084792e+002,-9.992426e+000
6.094435e+002,-9.785583e+000
6.104077e+002,-9.129126e+000
6.113719e+002,-7.411756e+000
6.123362e+002,-6.094177e+000
6.133004e+002,-6.327033e+000
6.142646e+002,-8.099835e+000
6.152289e+002,-9.145599e+000
6.161931e+002,-7.639050e+000
6.171573e+002,-6.026776e+000
6.181216e+002,-5.187396e+000
6.190858e+002,-4.946643e+000
6.200500e+002,-4.604553e+000
6.210143e+002,-3.528332e+000
6.219785e+002,-1.970093e+000
6.229427e+002,-4.901977e-001
6.239070e+002,8.973816e-001
6.248712e+002,2.274487e+000
6.258354e+002,3.766144e+000
6.267997e+002,5.497217e+000
6.277639e+002,6.941925e+000
6.287281e+002,8.374334e+000
6.296924e+002,9.134155e+000
6.306566e+002,8.439563e+000
6.316208e+002,6.479559e+000
6.325851e+002,5.363055e+000
6.335493e+002,6.766156e+000
6.345135e+002,8.293134e+000
6.354778e+002,9.431500e+000
6.364420e+002,1.010052e+001
6.374063e+002,1.044422e+001
6.383705e+002,1.063753e+001
6.393347e+002,1.032169e+001
6.402990e+002,8.847387e+000
6.412632e+002,6.655505e+000
6.422274e+002,4.673474e+000
6.431917e+002,3.581811e+000
6.441559e+002,3.324609e+000
6.451201e+002,3.151483e+000
6.460844e+002,3.084485e+000
6.470486e+002,3.022552e+000
6.480128e+002,3.217004e+000
6.489771e+002,3.482629e+000
6.499413e+002,2.928760e+000
6.509055e+002,3.730835e-001
6.518698e+002,-1.750201e+000
6.528340e+002,-2.698053e+000
6.537982e+002,-2.867242e+000
6.547625e+002,-2.823578e+000
6.557267e+002,-2.898645e+000
6.566909e+002,-2.897217e+000
6.576552e+002,-2.444861e+000
6.586194e+002,-1.778345e+000
6.595836e+002,-1.250964e+000
6.605479e+002,-1.000513e+000
6.615121e+002,-8.235108e-001
6.624763e+002,2.033691e-002
6.634406e+002,2.023120e+000
6.644048e+002,3.354401e+000
6.653690e+002,3.480072e+000
6.663333e+002,2.744037e+000
6.672975e+002,1.750385e+000
6.682617e+002,1.846985e-001
6.692260e+002,-5.002564e-001
6.701902e+002,8.209900e-001
6.711544e+002,2.413013e+000
6.721187e+002,2.594232e+000
6.730829e+002,8.347229e-001
6.740471e+002,-1.285162e+000
6.750114e+002,-1.330133e+000
6.759756e+002,-4.622070e-001
6.769398e+002,3.319336e-001
6.779041e+002,7.760498e-001
6.788683e+002,8.999817e-001
6.798325e+002,7.385559e-001
6.807968e+002,1.223450e-001
6.817610e+002,3.933716e-002
6.827252e+002,7.433044e-001
6.836895e+002,1.738934e+000
6.846537e+002,2.639514e+000
6.856179e+002,3.429346e+000
6.865822e+002,4.024725e+000
6.875464e+002,4.392615e+000
6.885106e+002,4.625006e+000
6.894749e+002,4.728302e+000
6.904391e+002,4.735913e+000
6.914034e+002,4.723071e+000
6.923676e+002,4.815314e+000
6.933318e+002,4.879736e+000
6.942961e+002,4.576831e+000
6.952603e+002,4.041632e+000
6.962245e+002,3.690784e+000
6.971888e+002,3.897839e+000
6.981530e+002,4.640631e+000
6.991172e+002,5.251092e+000
7.000815e+002,5.665320e+000
7.010457e+002,6.042816e+000
7.020099e+002,6.284442e+000
7.029742e+002,6.558759e+000
7.039384e+002,7.531482e+000
7.049026e+002,9.920423e+000
7.058669e+002,1.216635e+001
7.068311e+002,1.410168e+001
7.077953e+002,1.552241e+001
7.087596e+002,1.608436e+001
7.097238e+002,1.560397e+001
7.106880e+002,1.482029e+001
7.116523e+002,1.476791e+001
7.126165e+002,1.508788e+001
7.135807e+002,1.557819e+001
7.145450e+002,1.616090e+001
7.155092e+002,1.652697e+001
7.164734e+002,1.572951e+001
7.174377e+002,1.266295e+001
7.184019e+002,1.085992e+001
7.193661e+002,1.126111e+001
7.203304e+002,1.219945e+001
7.212946e+002,1.185338e+001
7.222589e+002,9.817719e+000
7.232231e+002,7.981323e+000
7.241873e+002,6.750433e+000
7.251516e+002,6.021942e+000
7.261158e+002,5.688092e+000
7.270800e+002,5.752948e+000
7.280443e+002,6.466974e+000
7.290085e+002,8.562658e+000
7.299727e+002,1.102159e+001
7.309370e+002,1.184879e+001
7.319012e+002,1.113567e+001
7.328654e+002,9.497156e+000
7.338297e+002,7.366950e+000
7.347939e+002,4.661536e+000
7.357581e+002,3.175726e+000
7.367224e+002,3.563025e+000
7.376866e+002,4.078723e+000
7.386508e+002,4.181433e+000
7.396151e+002,4.075269e+000
7.405793e+002,4.447675e+000
7.415435e+002,6.070203e+000
7.425078e+002,7.229041e+000
7.434720e+002,6.561481e+000
7.444362e+002,5.359662e+000
7.454005e+002,5.089935e+000
7.463647e+002,6.387750e+000
7.473289e+002,8.386444e+000
7.482932e+002,9.763861e+000
7.492574e+002,1.057999e+001
7.502216e+002,1.053244e+001
7.511859e+002,9.438562e+000
7.521501e+002,7.768164e+000
7.531143e+002,6.359576e+000
7.540786e+002,5.061902e+000
7.550428e+002,4.735083e+000
7.560070e+002,6.141174e+000
7.569713e+002,7.550818e+000
7.579355e+002,7.644043e+000
7.588997e+002,6.448419e+000
7.598640e+002,5.700665e+000
7.608282e+002,6.841266e+000
7.617924e+002,8.328527e+000
7.627567e+002,9.542554e+000
7.637209e+002,1.041145e+001
7.646851e+002,1.077099e+001
7.656494e+002,1.044612e+001
7.666136e+002,9.982697e+000
7.675778e+002,1.231782e+001
7.685421e+002,1.700866e+001
7.695063e+002,2.040588e+001
7.704705e+002,2.064549e+001
7.714348e+002,1.844194e+001
7.723990e+002,1.663683e+001
7.733632e+002,1.549480e+001
7.743275e+002,1.430202e+001
7.752917e+002,1.258289e+001
7.762559e+002,1.113852e+001
7.772202e+002,1.081508e+001
7.781844e+002,1.181663e+001
7.791486e+002,1.307763e+001
7.801129e+002,1.358317e+001
7.810771e+002,1.401273e+001
7.820413e+002,1.498956e+001
7.830056e+002,1.646053e+001
7.839698e+002,1.785577e+001
7.849340e+002,1.847507e+001
7.858983e+002,1.839056e+001
7.868625e+002,1.954929e+001
7.878267e+002,2.228998e+001
7.887910e+002,2.473079e+001
7.897552e+002,2.567758e+001
7.907194e+002,2.535436e+001
7.916837e+002,2.541975e+001
7.926479e+002,2.634769e+001
7.936121e+002,2.715114e+001
7.945764e+002,2.758086e+001
7.955406e+002,2.778175e+001
7.965048e+002,2.778942e+001
7.974691e+002,2.766734e+001
7.984333e+002,2.805420e+001
7.993975e+002,3.025944e+001
8.003618e+002,3.312550e+001
8.013260e+002,3.562589e+001
8.022902e+002,3.750626e+001
8.032545e+002,3.882449e+001
8.042187e+002,3.966146e+001
8.051829e+002,3.988261e+001
8.061472e+002,4.069370e+001
8.071114e+002,4.183088e+001
8.080756e+002,4.357013e+001
8.090399e+002,4.635434e+001
8.100041e+002,5.006099e+001
8.109683e+002,5.360770e+001
8.119326e+002,5.607038e+001
8.128968e+002,5.916006e+001
8.138610e+002,6.344837e+001
8.148253e+002,6.866690e+001
8.157895e+002,7.448061e+001
8.167537e+002,8.074754e+001
8.177180e+002,8.738185e+001
8.186822e+002,9.503859e+001
8.196464e+002,1.029283e+002
8.206107e+002,1.090092e+002
8.215749e+002,1.126946e+002
8.225391e+002,1.147568e+002
8.235034e+002,1.165418e+002
8.244676e+002,1.186177e+002
8.254318e+002,1.181762e+002
8.263961e+002,1.149053e+002
8.273603e+002,1.106678e+002
8.283245e+002,1.056921e+002
8.292888e+002,1.002587e+002
8.302530e+002,9.527336e+001
8.312172e+002,9.145119e+001
8.321815e+002,8.774985e+001
8.331457e+002,8.324622e+001
8.341099e+002,7.863369e+001
8.350742e+002,7.493582e+001
8.360384e+002,7.257266e+001
8.370026e+002,7.075159e+001
8.379669e+002,6.739700e+001
8.389311e+002,6.240145e+001
8.398953e+002,5.872300e+001
8.408596e+002,5.715499e+001
8.418238e+002,5.632227e+001
8.427880e+002,5.463688e+001
8.437523e+002,5.191957e+001
8.447165e+002,4.938349e+001
8.456807e+002,4.705549e+001
8.466450e+002,4.508353e+001
8.476092e+002,4.378609e+001
8.485734e+002,4.278237e+001
8.495377e+002,4.126438e+001
8.505019e+002,3.863134e+001
8.514661e+002,3.604253e+001
8.524304e+002,3.523511e+001
8.533946e+002,3.542152e+001
8.543588e+002,3.552924e+001
8.553231e+002,3.512316e+001
8.562873e+002,3.434074e+001
8.572515e+002,3.347240e+001
8.582158e+002,3.241261e+001
8.591800e+002,3.161351e+001
8.601442e+002,3.089899e+001
8.611085e+002,3.046779e+001
8.620727e+002,3.063412e+001
8.630369e+002,3.139625e+001
8.640012e+002,3.214580e+001
8.649654e+002,3.283216e+001
8.659296e+002,3.315772e+001
8.668939e+002,3.253048e+001
8.678581e+002,3.165858e+001
8.688223e+002,3.159690e+001
8.697866e+002,3.283597e+001
8.707508e+002,3.464750e+001
8.717150e+002,3.559489e+001
8.726793e+002,3.576810e+001
8.736435e+002,3.558767e+001
8.746077e+002,3.513183e+001
8.755720e+002,3.435552e+001
8.765362e+002,3.310931e+001
8.775004e+002,3.125585e+001
8.784647e+002,2.957677e+001
8.794289e+002,2.776567e+001
8.803931e+002,2.640861e+001
8.813574e+002,2.601817e+001
8.823216e+002,2.614709e+001
8.832858e+002,2.593003e+001
8.842501e+002,2.497218e+001
8.852143e+002,2.386276e+001
8.861785e+002,2.341423e+001
8.871428e+002,2.296019e+001
8.881070e+002,2.131567e+001
8.890712e+002,1.839213e+001
8.900355e+002,1.558827e+001
8.909997e+002,1.524982e+001
8.919639e+002,1.794929e+001
8.929282e+002,1.896460e+001
8.938924e+002,1.733233e+001
8.948566e+002,1.557335e+001
8.958209e+002,1.533270e+001
8.967851e+002,1.609839e+001
8.977493e+002,1.542748e+001
8.987136e+002,1.116050e+001
8.996778e+002,8.183294e+000
9.006420e+002,9.415448e+000
9.016063e+002,1.191038e+001
9.025705e+002,1.295662e+001
9.035347e+002,1.181506e+001
9.044990e+002,9.814593e+000
9.054632e+002,8.510455e+000
9.064274e+002,7.686109e+000
9.073917e+002,6.427081e+000
9.083559e+002,4.736768e+000
9.093201e+002,3.421582e+000
9.102844e+002,3.193848e+000
9.112486e+002,3.981763e+000
9.122128e+002,4.594507e+000
9.131771e+002,5.361163e+000
9.141413e+002,5.426459e+000
9.151055e+002,4.162946e+000
9.160698e+002,2.557422e+000
9.170340e+002,1.477771e+000
9.179982e+002,1.112305e+000
9.189625e+002,1.135059e+000
9.199267e+002,1.546436e+000
9.208909e+002,2.061707e+000
9.218552e+002,2.528619e+000
9.228194e+002,2.869952e+000
9.237836e+002,2.904504e+000
9.247479e+002,2.480737e+000
9.257121e+002,1.677222e+000
9.266763e+002,9.368042e-001
9.276406e+002,7.831421e-002
9.286048e+002,-3.105225e-001
9.295690e+002,1.300110e-001
9.305333e+002,8.836853e-001
9.314975e+002,1.447455e+000
9.324617e+002,1.786884e+000
9.334260e+002,1.807227e+000
9.343902e+002,9.897522e-001
9.353545e+002,2.547302e-001
9.363187e+002,2.333618e-001
9.372830e+002,5.497559e-001
9.382472e+002,3.195068e-001
9.392114e+002,-9.565735e-001
9.401757e+002,-2.430792e+000
9.411399e+002,-1.867969e+000
9.421041e+002,3.585510e-001
9.430684e+002,2.090533e+000
9.440326e+002,2.879883e+000
9.449968e+002,3.081140e+000
9.459611e+002,3.109192e+000
9.469253e+002,2.990546e+000
9.478895e+002,3.038251e+000
9.488538e+002,3.375385e+000
9.498180e+002,3.689429e+000
9.507822e+002,3.991187e+000
9.517465e+002,4.134100e+000
9.527107e+002,3.779999e+000
9.536749e+002,2.793182e+000
9.546392e+002,2.018506e+000
9.556034e+002,2.870123e+000
9.565676e+002,4.345721e+000
9.575319e+002,5.190039e+000
9.584961e+002,5.326593e+000
9.594603e+002,5.428296e+000
9.604246e+002,6.187757e+000
9.613888e+002,7.577313e+000
9.623530e+002,8.563593e+000
9.633173e+002,7.779053e+000
9.642815e+002,8.437189e+000
9.652457e+002,1.154568e+001
9.662100e+002,1.609753e+001
9.671742e+002,2.032532e+001
9.681384e+002,2.373279e+001
9.691027e+002,2.933040e+001
9.700669e+002,4.008870e+001
9.710311e+002,5.313538e+001
9.719954e+002,7.055522e+001
9.729596e+002,8.865822e+001
9.739238e+002,9.988093e+001
9.748881e+002,9.914560e+001
9.758523e+002,8.915923e+001
9.768165e+002,7.823685e+001
9.777808e+002,6.591141e+001
9.787450e+002,5.556256e+001
9.797092e+002,4.814179e+001
9.806735e+002,4.234278e+001
9.816377e+002,3.683677e+001
9.826019e+002,3.161666e+001
9.835662e+002,2.789000e+001
9.845304e+002,2.702137e+001
9.854946e+002,2.664071e+001
9.864589e+002,2.617285e+001
9.874231e+002,2.563080e+001
9.883873e+002,2.477990e+001
9.893516e+002,2.364211e+001
9.903158e+002,2.309095e+001
9.912800e+002,2.472404e+001
9.922443e+002,2.814682e+001
9.932085e+002,3.043177e+001
9.941727e+002,3.134074e+001
9.951370e+002,3.318542e+001
9.961012e+002,3.744744e+001
9.970654e+002,4.386993e+001
9.980297e+002,5.133751e+001
9.989939e+002,5.625371e+001
9.999581e+002,6.937270e+001
1.000922e+003,8.822777e+001
1.001887e+003,1.177767e+002
1.002851e+003,1.667566e+002
1.003815e+003,2.317520e+002
1.004779e+003,3.001692e+002
1.005744e+003,3.732549e+002
1.006708e+003,4.252287e+002
1.007672e+003,4.138597e+002
1.008636e+003,3.577193e+002
1.009600e+003,2.936815e+002
1.010565e+003,2.371641e+002
1.011529e+003,1.879834e+002
1.012493e+003,1.466832e+002
1.013457e+003,1.140435e+002
1.014422e+003,8.945285e+001
1.015386e+003,7.417152e+001
1.016350e+003,6.306889e+001
1.017314e+003,5.566836e+001
1.018279e+003,5.056094e+001
1.019243e+003,4.542151e+001
1.020207e+003,3.938949e+001
1.021171e+003,3.402861e+001
1.022135e+003,3.138085e+001
1.023100e+003,2.959415e+001
1.024064e+003,2.701827e+001
1.025028e+003,2.356754e+001
1.025992e+003,2.005667e+001
1.026957e+003,1.720812e+001
1.027921e+003,1.515962e+001
1.028885e+003,1.458090e+001
1.029849e+003,1.650216e+001
1.030814e+003,1.753586e+001
1.031778e+003,1.662661e+001
1.032742e+003,1.507549e+001
1.033706e+003,1.424577e+001
1.034671e+003,1.425384e+001
1.035635e+003,1.404389e+001
1.036599e+003,1.249170e+001
1.037563e+003,1.162829e+001
1.038527e+003,1.327537e+001
1.039492e+003,1.583193e+001
1.040456e+003,1.715577e+001
1.041420e+003,1.652726e+001
1.042384e+003,1.506955e+001
1.043349e+003,1.439045e+001
1.044313e+003,1.449086e+001
1.045277e+003,1.454935e+001
1.046241e+003,1.469055e+001
1.047206e+003,1.444619e+001
1.048170e+003,1.302534e+001
1.049134e+003,1.117522e+001
1.050098e+003,1.092391e+001
1.051063e+003,1.305414e+001
1.052027e+003,1.496777e+001
1.052991e+003,1.570775e+001
1.053955e+003,1.595315e+001
1.054919e+003,1.596334e+001
1.055884e+003,1.580018e+001
1.056848e+003,1.542573e+001
1.057812e+003,1.485648e+001
1.058776e+003,1.433940e+001
1.059741e+003,1.440854e+001
1.060705e+003,1.487694e+001
1.061669e+003,1.468438e+001
1.062633e+003,1.347580e+001
1.063598e+003,1.210029e+001
1.064562e+003,1.131945e+001
1.065526e+003,1.116907e+001
1.066490e+003,1.138897e+001
1.067454e+003,1.214954e+001
1.068419e+003,1.298395e+001
1.069383e+003,1.356193e+001
1.070347e+003,1.419896e+001
1.071311e+003,1.556241e+001
1.072276e+003,1.741011e+001
1.073240e+003,1.843857e+001
1.074204e+003,1.742800e+001
1.075168e+003,1.559930e+001
1.076133e+003,1.618572e+001
1.077097e+003,1.845388e+001
1.078061e+003,1.967990e+001
1.079025e+003,1.883185e+001
1.079990e+003,1.725095e+001
1.080954e+003,1.696878e+001
1.081918e+003,1.826180e+001
1.082882e+003,1.897579e+001
1.083846e+003,1.817112e+001
1.084811e+003,1.772453e+001
1.085775e+003,1.829025e+001
1.086739e+003,1.920794e+001
1.087703e+003,1.991155e+001
1.088668e+003,2.025991e+001
1.089632e+003,2.021794e+001
1.090596e+003,1.940441e+001
1.091560e+003,1.848596e+001
1.092525e+003,1.911033e+001
1.093489e+003,2.080617e+001
1.094453e+003,2.171494e+001
1.095417e+003,2.092979e+001
1.096381e+003,1.929507e+001
1.097346e+003,1.846284e+001
1.098310e+003,1.866364e+001
1.099274e+003,1.884945e+001
1.100238e+003,1.921249e+001
1.101203e+003,1.939544e+001
1.102167e+003,1.901099e+001
1.103131e+003,1.845980e+001
1.104095e+003,1.823888e+001
1.105060e+003,1.847555e+001
1.106024e+003,1.903346e+001
1.106988e+003,2.008238e+001
1.107952e+003,2.126983e+001
1.108917e+003,2.189694e+001
1.109881e+003,2.205448e+001
1.110845e+003,2.227573e+001
1.111809e+003,2.286542e+001
1.112773e+003,2.345154e+001
1.113738e+003,2.306144e+001
1.114702e+003,2.103585e+001
1.115666e+003,2.028121e+001
1.116630e+003,2.188480e+001
1.117595e+003,2.306916e+001
1.118559e+003,2.224975e+001
1.119523e+003,2.070286e+001
1.120487e+003,2.059604e+001
1.121452e+003,2.252648e+001
1.122416e+003,2.465307e+001
1.123380e+003,2.515740e+001
1.124344e+003,2.501377e+001
1.125308e+003,2.593637e+001
1.126273e+003,2.762845e+001
1.127237e+003,2.856890e+001
1.128201e+003,2.785175e+001
1.129165e+003,2.635800e+001
1.130130e+003,2.630099e+001
1.131094e+003,2.854598e+001
1.132058e+003,2.925784e+001
1.133022e+003,2.719541e+001
1.133987e+003,2.548176e+001
1.134951e+003,2.510933e+001
1.135915e+003,2.578881e+001
1.136879e+003,2.738997e+001
1.137844e+003,2.978533e+001
1.138808e+003,3.149546e+001
1.139772e+003,3.076807e+001
1.140736e+003,2.899693e+001
1.141700e+003,2.806554e+001
1.142665e+003,2.797916e+001
1.143629e+003,2.859431e+001
1.144593e+003,2.990372e+001
1.145557e+003,3.149381e+001
1.146522e+003,3.246688e+001
1.147486e+003,3.253038e+001
1.148450e+003,3.262568e+001
1.149414e+003,3.324456e+001
1.150379e+003,3.349347e+001
1.151343e+003,3.285552e+001
1.152307e+003,3.192144e+001
1.153271e+003,3.099269e+001
1.154235e+003,3.022978e+001
1.155200e+003,3.067167e+001
1.156164e+003,3.383801e+001
1.157128e+003,3.777536e+001
1.158092e+003,3.986864e+001
1.159057e+003,4.039349e+001
1.160021e+003,3.963888e+001
1.160985e+003,3.763657e+001
1.161949e+003,3.561113e+001
1.162914e+003,3.553216e+001
1.163878e+003,3.767005e+001
1.164842e+003,3.957671e+001
1.165806e+003,4.142219e+001
1.166771e+003,4.267300e+001
1.167735e+003,4.264417e+001
1.168699e+003,4.247475e+001
1.169663e+003,4.346173e+001
1.170627e+003,4.543924e+001
1.171592e+003,4.680257e+001
1.172556e+003,4.637933e+001
1.173520e+003,4.555080e+001
1.174484e+003,4.668626e+001
1.175449e+003,4.882327e+001
1.176413e+003,4.996763e+001
1.177377e+003,4.964754e+001
1.178341e+003,4.937480e+001
1.179306e+003,5.089902e+001
1.180270e+003,5.404107e+001
1.181234e+003,5.611393e+001
1.182198e+003,5.650297e+001
1.183162e+003,5.667823e+001
1.184127e+003,5.667352e+001
1.185091e+003,5.661340e+001
1.186055e+003,5.686634e+001
1.187019e+003,5.719505e+001
1.187984e+003,5.691642e+001
1.188948e+003,5.566445e+001
1.189912e+003,5.390639e+001
1.190876e+003,5.191181e+001
1.191841e+003,5.009537e+001
1.192805e+003,4.959932e+001
1.193769e+003,5.047993e+001
1.194733e+003,5.127850e+001
1.195698e+003,5.102180e+001
1.196662e+003,5.008241e+001
1.197626e+003,4.952035e+001
1.198590e+003,4.951786e+001
1.199554e+003,4.912246e+001
1.200519e+003,4.773785e+001
1.201483e+003,4.668165e+001
1.202447e+003,4.622913e+001
1.203411e+003,4.640711e+001
1.204376e+003,4.759340e+001
1.205340e+003,4.949674e+001
1.206304e+003,5.058754e+001
1.207268e+003,4.941164e+001
1.208233e+003,4.705048e+001
1.209197e+003,4.645813e+001
1.210161e+003,4.731481e+001
1.211125e+003,4.797748e+001
1.212089e+003,4.789535e+001
1.213054e+003,4.742439e+001
1.214018e+003,4.699858e+001
1.214982e+003,4.673229e+001
1.215946e+003,4.661624e+001
1.216911e+003,4.613704e+001
1.217875e+003,4.664415e+001
1.218839e+003,4.955312e+001
1.219803e+003,5.236050e+001
1.220768e+003,5.321198e+001
1.221732e+003,5.248542e+001
1.222696e+003,5.143935e+001
1.223660e+003,5.079587e+001
1.224625e+003,5.049709e+001
1.225589e+003,5.042449e+001
1.226553e+003,5.055683e+001
1.227517e+003,5.146024e+001
1.228481e+003,5.386843e+001
1.229446e+003,5.538600e+001
1.230410e+003,5.419773e+001
1.231374e+003,5.178405e+001
1.232338e+003,5.055696e+001
1.233303e+003,5.074193e+001
1.234267e+003,5.169874e+001
1.235231e+003,5.397172e+001
1.236195e+003,5.589915e+001
1.237160e+003,5.631765e+001
1.238124e+003,5.594949e+001
1.239088e+003,5.605199e+001
1.240052e+003,5.664592e+001
1.241016e+003,5.614163e+001
1.241981e+003,5.292240e+001
1.242945e+003,4.798969e+001
1.243909e+003,4.607829e+001
1.244873e+003,4.911374e+001
1.245838e+003,5.080594e+001
1.246802e+003,4.943820e+001
1.247766e+003,4.854832e+001
1.248730e+003,5.086852e+001
1.249695e+003,5.494577e+001
1.250659e+003,5.744148e+001
1.251623e+003,5.752076e+001
1.252587e+003,5.710546e+001
1.253552e+003,5.736982e+001
1.254516e+003,5.774007e+001
1.255480e+003,5.751089e+001
1.256444e+003,5.696910e+001
1.257408e+003,5.689568e+001
1.258373e+003,5.759066e+001
1.259337e+003,5.850756e+001
1.260301e+003,5.888118e+001
1.261265e+003,5.875249e+001
1.262230e+003,5.877444e+001
1.263194e+003,5.880088e+001
1.264158e+003,5.887902e+001
1.265122e+003,5.931227e+001
1.266087e+003,5.956816e+001
1.267051e+003,5.898878e+001
1.268015e+003,5.804670e+001
1.268979e+003,5.808456e+001
1.269943e+003,5.965038e+001
1.270908e+003,6.100306e+001
1.271872e+003,5.978783e+001
1.272836e+003,5.735957e+001
1.273800e+003,5.713639e+001
1.274765e+003,5.900479e+001
1.275729e+003,6.087057e+001
1.276693e+003,6.186446e+001
1.277657e+003,6.218785e+001
1.278622e+003,6.179810e+001
1.279586e+003,6.056025e+001
1.280550e+003,6.048348e+001
1.281514e+003,6.321111e+001
1.282479e+003,6.507983e+001
1.283443e+003,6.432871e+001
1.284407e+003,6.308548e+001
1.285371e+003,6.272320e+001
1.286335e+003,6.330057e+001
1.287300e+003,6.465476e+001
1.288264e+003,6.667609e+001
1.289228e+003,6.845144e+001
1.290192e+003,6.830743e+001
1.291157e+003,6.634798e+001
1.292121e+003,6.555757e+001
1.293085e+003,6.596368e+001
1.294049e+003,6.675902e+001
1.295014e+003,6.826675e+001
1.295978e+003,6.980215e+001
1.296942e+003,7.025558e+001
1.297906e+003,6.978696e+001
1.298870e+003,7.007977e+001
1.299835e+003,7.194848e+001
1.300799e+003,7.354021e+001
1.301763e+003,7.360451e+001
1.302727e+003,7.288661e+001
1.303692e+003,7.155721e+001
1.304656e+003,7.022256e+001
1.305620e+003,7.039537e+001
1.306584e+003,7.284554e+001
1.307549e+003,7.579012e+001
1.308513e+003,7.567049e+001
1.309477e+003,7.176404e+001
1.310441e+003,6.990585e+001
1.311406e+003,7.173339e+001
1.312370e+003,7.339554e+001
1.313334e+003,7.456361e+001
1.314298e+003,7.522599e+001
1.315263e+003,7.488173e+001
1.316227e+003,7.403105e+001
1.317191e+003,7.423466e+001
1.318155e+003,7.621282e+001
1.319120e+003,7.855617e+001
1.320084e+003,7.985490e+001
1.321048e+003,8.031907e+001
1.322012e+003,8.050859e+001
1.322976e+003,8.043824e+001
1.323941e+003,8.015611e+001
1.324905e+003,7.967504e+001
1.325869e+003,7.921754e+001
1.326833e+003,7.910468e+001
1.327798e+003,7.929948e+001
1.328762e+003,7.915841e+001
1.329726e+003,7.804580e+001
1.330690e+003,7.763308e+001
1.331655e+003,7.868523e+001
1.332619e+003,8.020729e+001
1.333583e+003,8.205607e+001
1.334547e+003,8.368169e+001
1.335511e+003,8.409257e+001
1.336476e+003,8.300713e+001
1.337440e+003,8.156935e+001
1.338404e+003,8.125893e+001
1.339368e+003,8.191008e+001
1.340333e+003,8.165724e+001
1.341297e+003,7.961205e+001
1.342261e+003,7.916052e+001
1.343225e+003,8.208873e+001
1.344190e+003,8.529985e+001
1.345154e+003,8.687818e+001
1.346118e+003,8.708874e+001
1.347082e+003,8.654805e+001
1.348047e+003,8.531838e+001
1.349011e+003,8.393912e+001
1.349975e+003,8.247676e+001
1.350939e+003,8.143513e+001
1.351903e+003,8.133379e+001
1.352868e+003,8.189447e+001
1.353832e+003,8.260750e+001
1.354796e+003,8.333317e+001
1.355760e+003,8.415560e+001
1.356725e+003,8.516076e+001
1.357689e+003,8.633604e+001
1.358653e+003,8.774229e+001
1.359617e+003,8.995506e+001
1.360582e+003,9.069671e+001
1.361546e+003,8.800542e+001
1.362510e+003,8.594836e+001
1.363474e+003,8.643200e+001
1.364438e+003,8.800896e+001
1.365403e+003,8.912979e+001
1.366367e+003,8.941431e+001
1.367331e+003,8.904454e+001
1.368295e+003,8.815172e+001
1.369260e+003,8.737152e+001
1.370224e+003,8.797541e+001
1.371188e+003,9.010120e+001
1.372152e+003,9.196103e+001
1.373117e+003,9.355962e+001
1.374081e+003,9.437321e+001
1.375045e+003,9.363143e+001
1.376009e+003,9.253268e+001
1.376974e+003,9.253219e+001
1.377938e+003,9.353997e+001
1.378902e+003,9.445781e+001
1.379866e+003,9.490982e+001
1.380830e+003,9.523131e+001
1.381795e+003,9.608665e+001
1.382759e+003,9.658363e+001
1.383723e+003,9.548259e+001
1.384687e+003,9.343398e+001
1.385652e+003,9.215813e+001
1.386616e+003,9.229695e+001
1.387580e+003,9.307093e+001
1.388544e+003,9.358369e+001
1.389509e+003,9.379562e+001
1.390473e+003,9.374040e+001
1.391437e+003,9.278571e+001
1.392401e+003,9.338222e+001
1.393365e+003,9.780671e+001
1.394330e+003,1.010276e+002
1.395294e+003,1.000108e+002
1.396258e+003,9.709007e+001
1.397222e+003,9.481789e+001
1.398187e+003,9.407651e+001
1.399151e+003,9.516310e+001
1.400115e+003,9.825551e+001
1.401079e+003,1.016857e+002
1.402044e+003,1.022170e+002
1.403008e+003,9.981431e+001
1.403972e+003,9.920340e+001
1.404936e+003,1.011689e+002
1.405901e+003,1.031204e+002
1.406865e+003,1.043092e+002
1.407829e+003,1.049455e+002
1.408793e+003,1.050003e+002
1.409757e+003,1.047347e+002
1.410722e+003,1.050479e+002
1.411686e+003,1.061546e+002
1.412650e+003,1.073003e+002
1.413614e+003,1.086540e+002
1.414579e+003,1.093403e+002
1.415543e+003,1.075867e+002
1.416507e+003,1.045366e+002
1.417471e+003,1.032522e+002
1.418436e+003,1.046009e+002
1.419400e+003,1.064721e+002
1.420364e+003,1.067677e+002
1.421328e+003,1.060986e+002
1.422292e+003,1.068870e+002
1.423257e+003,1.096654e+002
1.424221e+003,1.115035e+002
1.425185e+003,1.112111e+002
1.426149e+003,1.106549e+002
1.427114e+003,1.101702e+002
1.428078e+003,1.101782e+002
1.429042e+003,1.110797e+002
1.430006e+003,1.125748e+002
1.430971e+003,1.139885e+002
1.431935e+003,1.149841e+002
1.432899e+003,1.157806e+002
1.433863e+003,1.167906e+002
1.434828e+003,1.179901e+002
1.435792e+003,1.178602e+002
1.436756e+003,1.147488e+002
1.437720e+003,1.132149e+002
1.438684e+003,1.149368e+002
1.439649e+003,1.170464e+002
1.440613e+003,1.181461e+002
1.441577e+003,1.184578e+002
1.442541e+003,1.183948e+002
1.443506e+003,1.179458e+002
1.444470e+003,1.167175e+002
1.445434e+003,1.142301e+002
1.446398e+003,1.122143e+002
1.447363e+003,1.137487e+002
1.448327e+003,1.173167e+002
1.449291e+003,1.186928e+002
1.450255e+003,1.175416e+002
1.451219e+003,1.175318e+002
1.452184e+003,1.209619e+002
1.453148e+003,1.256134e+002
1.454112e+003,1.290962e+002
1.455076e+003,1.313606e+002
1.456041e+003,1.320315e+002
1.457005e+003,1.307636e+002
1.457969e+003,1.294161e+002
1.458933e+003,1.281149e+002
1.459898e+003,1.276346e+002
1.460862e+003,1.294699e+002
1.461826e+003,1.318597e+002
1.462790e+003,1.316684e+002
1.463755e+003,1.288313e+002
1.464719e+003,1.266051e+002
1.465683e+003,1.274145e+002
1.466647e+003,1.301808e+002
1.467611e+003,1.324992e+002
1.468576e+003,1.343235e+002
1.469540e+003,1.355787e+002
1.470504e+003,1.361372e+002
1.471468e+003,1.364686e+002
1.472433e+003,1.366129e+002
1.473397e+003,1.365252e+002
1.474361e+003,1.360445e+002
1.475325e+003,1.354158e+002
1.476290e+003,1.350118e+002
1.477254e+003,1.348304e+002
1.478218e+003,1.343536e+002
1.479182e+003,1.331924e+002
1.480146e+003,1.320758e+002
1.481111e+003,1.326750e+002
1.482075e+003,1.351828e+002
1.483039e+003,1.366290e+002
1.484003e+003,1.368149e+002
1.484968e+003,1.363693e+002
1.485932e+003,1.346843e+002
1.486896e+003,1.333965e+002
1.487860e+003,1.342974e+002
1.488825e+003,1.363854e+002
1.489789e+003,1.374409e+002
1.490753e+003,1.369438e+002
1.491717e+003,1.353665e+002
1.492682e+003,1.324571e+002
1.493646e+003,1.296538e+002
1.494610e+003,1.296966e+002
1.495574e+003,1.317951e+002
1.496538e+003,1.340189e+002
1.497503e+003,1.364653e+002
1.498467e+003,1.373573e+002
1.499431e+003,1.343944e+002
1.500395e+003,1.303957e+002
1.501360e+003,1.291535e+002
1.502324e+003,1.302708e+002
1.503288e+003,1.313387e+002
1.504252e+003,1.317830e+002
1.505217e+003,1.326787e+002
1.506181e+003,1.357710e+002
1.507145e+003,1.380316e+002
1.508109e+003,1.361599e+002
1.509073e+003,1.323945e+002
1.510038e+003,1.301436e+002
1.511002e+003,1.299282e+002
1.511966e+003,1.307982e+002
1.512930e+003,1.324276e+002
1.513895e+003,1.339934e+002
1.514859e+003,1.333945e+002
1.515823e+003,1.305701e+002
1.516787e+003,1.301864e+002
1.517752e+003,1.340362e+002
1.518716e+003,1.364543e+002
1.519680e+003,1.341668e+002
1.520644e+003,1.319796e+002
1.521609e+003,1.325999e+002
1.522573e+003,1.341515e+002
1.523537e+003,1.345492e+002
1.524501e+003,1.336045e+002
1.525465e+003,1.319036e+002
1.526430e+003,1.297699e+002
1.527394e+003,1.278074e+002
1.528358e+003,1.271895e+002
1.529322e+003,1.278137e+002
1.530287e+003,1.271216e+002
1.531251e+003,1.231173e+002
1.532215e+003,1.219902e+002
1.533179e+003,1.268488e+002
1.534144e+003,1.304384e+002
1.535108e+003,1.288913e+002
1.536072e+003,1.254488e+002
1.537036e+003,1.234054e+002
1.538000e+003,1.229715e+002
1.538965e+003,1.229854e+002
1.539929e+003,1.228333e+002
1.540893e+003,1.224835e+002
1.541857e+003,1.219500e+002
1.542822e+003,1.214530e+002
1.543786e+003,1.214988e+002
1.544750e+003,1.223575e+002
1.545714e+003,1.223711e+002
1.546679e+003,1.213415e+002
1.547643e+003,1.196469e+002
1.548607e+003,1.162800e+002
1.549571e+003,1.134400e+002
1.550536e+003,1.140823e+002
1.551500e+003,1.167156e+002
1.552464e+003,1.169155e+002
1.553428e+003,1.136699e+002
1.554392e+003,1.110870e+002
1.555357e+003,1.126166e+002
1.556321e+003,1.157386e+002
1.557285e+003,1.153518e+002
1.558249e+003,1.117217e+002
1.559214e+003,1.095991e+002
1.560178e+003,1.096604e+002
1.561142e+003,1.096228e+002
1.562106e+003,1.080061e+002
1.563071e+003,1.064537e+002
1.564035e+003,1.069304e+002
1.564999e+003,1.086638e+002
1.565963e+003,1.099381e+002
1.566927e+003,1.103317e+002
1.567892e+003,1.087717e+002
1.568856e+003,1.039605e+002
1.569820e+003,9.945711e+001
1.570784e+003,1.000334e+002
1.571749e+003,1.036954e+002
1.572713e+003,1.057065e+002
1.573677e+003,1.060604e+002
1.574641e+003,1.060058e+002
1.575606e+003,1.060362e+002
1.576570e+003,1.052331e+002
1.577534e+003,1.023266e+002
1.578498e+003,9.848424e+001
1.579463e+003,9.563251e+001
1.580427e+003,9.384972e+001
1.581391e+003,9.337122e+001
1.582355e+003,9.466720e+001
1.583319e+003,9.574086e+001
1.584284e+003,9.502914e+001
1.585248e+003,9.380511e+001
1.586212e+003,9.366277e+001
1.587176e+003,9.397929e+001
1.588141e+003,9.340462e+001
1.589105e+003,9.178558e+001
1.590069e+003,8.994591e+001
1.591033e+003,8.817529e+001
1.591998e+003,8.657850e+001
1.592962e+003,8.537573e+001
1.593926e+003,8.450211e+001
1.594890e+003,8.379732e+001
1.595854e+003,8.341929e+001
1.596819e+003,8.241832e+001
1.597783e+003,7.971303e+001
1.598747e+003,7.720857e+001
1.599711e+003,7.675181e+001
1.600676e+003,7.700775e+001
1.601640e+003,7.619564e+001
1.602604e+003,7.461098e+001
1.603568e+003,7.412541e+001
1.604533e+003,7.550795e+001
1.605497e+003,7.679901e+001
1.606461e+003,7.575683e+001
1.607425e+003,7.335018e+001
1.608390e+003,7.245967e+001
1.609354e+003,7.321626e+001
1.610318e+003,7.323318e+001
1.611282e+003,7.171016e+001
1.612246e+003,7.009999e+001
1.613211e+003,6.915744e+001
1.614175e+003,6.827933e+001
1.615139e+003,6.740309e+001
1.616103e+003,6.629391e+001
1.617068e+003,6.414198e+001
1.618032e+003,6.112239e+001
1.618996e+003,5.900707e+001
1.619960e+003,5.885231e+001
1.620925e+003,5.935934e+001
1.621889e+003,5.887000e+001
1.622853e+003,5.753491e+001
1.623817e+003,5.581155e+001
1.624781e+003,5.345524e+001
1.625746e+003,5.280850e+001
1.626710e+003,5.587224e+001
1.627674e+003,5.795356e+001
1.628638e+003,5.599928e+001
1.629603e+003,5.278068e+001
1.630567e+003,4.998142e+001
1.631531e+003,4.799852e+001
1.632495e+003,4.744229e+001
1.633460e+003,4.831110e+001
1.634424e+003,4.938522e+001
1.635388e+003,4.988898e+001
1.636352e+003,4.955107e+001
1.637317e+003,4.746093e+001
1.638281e+003,4.378336e+001
1.639245e+003,4.144683e+001
1.640209e+003,4.079469e+001
1.641173e+003,4.033027e+001
1.642138e+003,3.978231e+001
1.643102e+003,3.934772e+001
1.644066e+003,3.934248e+001
1.645030e+003,3.927525e+001
1.645995e+003,3.846717e+001
1.646959e+003,3.720280e+001
1.647923e+003,3.631099e+001
1.648887e+003,3.605045e+001
1.649852e+003,3.607335e+001
1.650816e+003,3.621674e+001
1.651780e+003,3.617857e+001
1.652744e+003,3.512841e+001
1.653708e+003,3.311018e+001
1.654673e+003,3.161439e+001
1.655637e+003,3.066975e+001
1.656601e+003,3.044012e+001
1.657565e+003,3.190781e+001
1.658530e+003,3.290062e+001
1.659494e+003,3.201273e+001
1.660458e+003,3.020592e+001
1.661422e+003,2.810632e+001
1.662387e+003,2.608421e+001
1.663351e+003,2.493425e+001
1.664315e+003,2.489458e+001
1.665279e+003,2.486544e+001
1.666244e+003,2.384654e+001
1.667208e+003,2.238066e+001
1.668172e+003,2.173899e+001
1.669136e+003,2.179171e+001
1.670100e+003,2.060626e+001
1.671065e+003,1.745230e+001
1.672029e+003,1.562287e+001
1.672993e+003,1.719070e+001
1.673957e+003,1.901246e+001
1.674922e+003,1.910383e+001
1.675886e+003,1.826377e+001
1.676850e+003,1.696679e+001
1.677814e+003,1.556655e+001
1.678779e+003,1.499912e+001
1.679743e+003,1.556580e+001
1.680707e+003,1.621244e+001
1.681671e+003,1.607889e+001
1.682635e+003,1.553428e+001
1.683600e+003,1.521957e+001
1.684564e+003,1.513126e+001
1.685528e+003,1.511430e+001
1.686492e+003,1.513127e+001
1.687457e+003,1.487621e+001
1.688421e+003,1.411433e+001
1.689385e+003,1.342011e+001
1.690349e+003,1.365441e+001
1.691314e+003,1.398627e+001
1.692278e+003,1.303583e+001
1.693242e+003,1.119691e+001
1.694206e+003,1.039647e+001
1.695171e+003,1.122183e+001
1.696135e+003,1.158795e+001
1.697099e+003,9.419104e+000
1.698063e+003,6.870752e+000
1.699027e+003,7.192297e+000
1.699992e+003,9.361633e+000
1.700956e+003,9.896039e+000
1.701920e+003,8.483838e+000
1.702884e+003,8.064166e+000
1.703849e+003,1.008023e+001
1.704813e+003,1.153300e+001
1.705777e+003,9.676661e+000
1.706741e+003,6.340967e+000
1.707706e+003,4.327243e+000
1.708670e+003,3.462231e+000
1.709634e+003,3.148517e+000
1.710598e+003,3.390921e+000
1.711563e+003,3.651846e+000
1.712527e+003,3.899277e+000
1.713491e+003,3.855640e+000
1.714455e+003,3.045554e+000
1.715419e+003,1.946576e+000
1.716384e+003,1.305896e+000
1.717348e+003,1.158542e+000
1.718312e+003,1.389587e+000
1.719276e+003,1.957065e+000
1.720241e+003,2.394940e+000
1.721205e+003,2.373908e+000
1.722169e+003,2.095068e+000
1.723133e+003,2.041327e+000
1.724098e+003,2.092838e+000
1.725062e+003,7.455719e-001
1.726026e+003,-2.796994e+000
1.726990e+003,-4.532227e+000
1.727954e+003,-2.287875e+000
1.728919e+003,-1.268799e-001
1.729883e+003,1.042541e-001
1.730847e+003,-5.743744e-001
1.731811e+003,-1.512369e+000
1.732776e+003,-2.355191e+000
1.733740e+003,-2.418793e+000
1.734704e+003,-1.735413e+000
1.735668e+003,-1.316983e+000
1.736633e+003,-1.757913e+000
1.737597e+003,-2.661170e+000
1.738561e+003,-3.559982e+000
1.739525e+003,-4.300607e+000
1.740490e+003,-4.218344e+000
1.741454e+003,-2.982919e+000
1.742418e+003,-2.263763e+000
1.743382e+003,-2.579407e+000
1.744346e+003,-2.623108e+000
1.745311e+003,-1.653693e+000
1.746275e+003,-9.669434e-001
1.747239e+003,-1.875882e+000
1.748203e+003,-3.090875e+000
1.749168e+003,-2.472907e+000
1.750132e+003,-6.506195e-001
1.751096e+003,-3.150116e-001
1.752060e+003,-2.326501e+000
1.753025e+003,-4.620667e+000
1.753989e+003,-5.277756e+000
1.754953e+003,-4.913254e+000
1.755917e+003,-4.951978e+000
1.756881e+003,-5.411353e+000
1.757846e+003,-5.536505e+000
1.758810e+003,-5.166498e+000
1.759774e+003,-4.813437e+000
1.760738e+003,-4.663101e+000
1.761703e+003,-4.480438e+000
1.762667e+003,-4.114093e+000
1.763631e+003,-3.740939e+000
1.764595e+003,-3.214795e+000
1.765560e+003,-2.862799e+000
1.766524e+003,-3.506900e+000
1.767488e+003,-5.073556e+000
1.768452e+003,-6.328113e+000
1.769417e+003,-6.607434e+000
1.770381e+003,-6.298654e+000
1.771345e+003,-5.623233e+000
1.772309e+003,-4.816391e+000
1.773273e+003,-4.507892e+000
1.774238e+003,-4.673209e+000
1.775202e+003,-4.783481e+000
1.776166e+003,-4.721762e+000
1.777130e+003,-4.806964e+000
1.778095e+003,-5.167444e+000
1.779059e+003,-5.659015e+000
1.780023e+003,-6.344504e+000
1.780987e+003,-6.987387e+000
1.781952e+003,-7.329645e+000
1.782916e+003,-7.358536e+000
1.783880e+003,-6.622012e+000
1.784844e+003,-4.675171e+000
1.785808e+003,-3.627029e+000
1.786773e+003,-5.164383e+000
1.787737e+003,-6.973834e+000
1.788701e+003,-7.134229e+000
1.789665e+003,-6.560327e+000
1.790630e+003,-6.478580e+000
1.791594e+003,-6.939450e+000
1.792558e+003,-7.766873e+000
1.793522e+003,-8.851257e+000
1.794487e+003,-9.718457e+000
1.795451e+003,-1.006396e+001
1.796415e+003,-9.918762e+000
1.797379e+003,-9.301340e+000
1.798344e+003,-8.332617e+000
1.799308e+003,-7.484186e+000
1.800272e+003,-6.735245e+000
1.801236e+003,-6.321435e+000
1.802201e+003,-5.992566e+000
1.803165e+003,-6.223065e+000
1.804129e+003,-8.234854e+000
1.805093e+003,-9.469879e+000
1.806057e+003,-7.547254e+000
1.807022e+003,-4.914416e+000
1.807986e+003,-4.614182e+000
1.808950e+003,-6.007413e+000
1.809914e+003,-6.496451e+000
1.810879e+003,-5.493039e+000
1.811843e+003,-4.847547e+000
1.812807e+003,-5.942227e+000
1.813771e+003,-7.862033e+000
1.814736e+003,-9.243155e+000
1.815700e+003,-1.009123e+001
1.816664e+003,-1.058898e+001
1.817628e+003,-1.080312e+001
1.818593e+003,-1.001348e+001
1.819557e+003,-7.629315e+000
1.820521e+003,-5.616486e+000
1.821485e+003,-4.473670e+000
1.822449e+003,-4.221222e+000
1.823414e+003,-5.393057e+000
1.824378e+003,-7.165683e+000
1.825342e+003,-8.739828e+000
1.826306e+003,-9.906790e+000
1.827271e+003,-1.020505e+001
1.828235e+003,-9.507681e+000
1.829199e+003,-8.240405e+000
1.830163e+003,-5.838364e+000
1.831128e+003,-3.885959e+000
1.832092e+003,-4.326938e+000
1.833056e+003,-5.728317e+000
1.834020e+003,-5.481339e+000
1.834984e+003,-4.159106e+000
1.835949e+003,-4.493558e+000
1.836913e+003,-6.813968e+000
1.837877e+003,-8.435760e+000
1.838841e+003,-7.903430e+000
1.839806e+003,-6.596072e+000
1.840770e+003,-5.983383e+000
1.841734e+003,-5.940726e+000
1.842698e+003,-6.068246e+000
1.843663e+003,-6.344421e+000
1.844627e+003,-6.614337e+000
1.845591e+003,-7.595584e+000
1.846555e+003,-7.443347e+000
1.847520e+003,-4.532743e+000
1.848484e+003,-2.610251e+000
1.849448e+003,-3.714615e+000
1.850412e+003,-5.661911e+000
1.851376e+003,-6.971332e+000
1.852341e+003,-7.618329e+000
1.853305e+003,-7.850906e+000
1.854269e+003,-7.786157e+000
1.855233e+003,-7.400369e+000
1.856198e+003,-6.689380e+000
1.857162e+003,-6.122897e+000
1.858126e+003,-6.221951e+000
1.859090e+003,-6.683630e+000
1.860055e+003,-7.056643e+000
1.861019e+003,-7.324851e+000
1.861983e+003,-6.999847e+000
1.862947e+003,-6.010574e+000
1.863911e+003,-5.817105e+000
1.864876e+003,-7.056729e+000
1.865840e+003,-7.624039e+000
1.866804e+003,-6.012656e+000
1.867768e+003,-3.841361e+000
1.868733e+003,-2.891504e+000
1.869697e+003,-2.867743e+000
1.870661e+003,-2.883099e+000
1.871625e+003,-2.934372e+000
1.872590e+003,-3.023859e+000
1.873554e+003,-3.164536e+000
1.874518e+003,-3.270383e+000
1.875482e+003,-3.508523e+000
1.876447e+003,-3.457718e+000
1.877411e+003,-2.301322e+000
1.878375e+003,-1.150104e+000
1.879339e+003,-1.742465e+000
1.880303e+003,-3.286560e+000
1.881268e+003,-3.707968e+000
1.882232e+003,-2.761917e+000
1.883196e+003,-1.894470e+000
1.884160e+003,-1.880048e+000
1.885125e+003,-2.142578e+000
1.886089e+003,-2.043753e+000
1.887053e+003,-1.812747e+000
1.888017e+003,-2.138367e+000
1.888982e+003,-3.020450e+000
1.889946e+003,-3.367575e+000
1.890910e+003,-3.139011e+000
1.891874e+003,-2.491446e+000
1.892839e+003,-1.166388e+000
1.893803e+003,-1.560272e-001
1.894767e+003,-1.875305e-002
1.895731e+003,-1.853668e-001
1.896695e+003,-2.745667e-001
1.897660e+003,-2.826599e-001
1.898624e+003,-1.878601e-001
1.899588e+003,4.171753e-003
1.900552e+003,3.039368e-001
1.901517e+003,8.137543e-001
1.902481e+003,9.259094e-001
1.903445e+003,-1.176117e-001
1.904409e+003,-9.387634e-001
1.905374e+003,-3.395752e-001
1.906338e+003,7.825470e-001
1.907302e+003,1.749893e+000
1.908266e+003,2.119336e+000
1.909230e+003,8.152649e-001
1.910195e+003,-1.781848e+000
1.911159e+003,-3.640103e+000
1.912123e+003,-3.821234e+000
1.913087e+003,-2.942087e+000
1.914052e+003,-1.525916e+000
1.915016e+003,-3.345001e-001
1.915980e+003,-1.195801e+000
1.916944e+003,-3.841650e+000
1.917909e+003,-4.550210e+000
1.918873e+003,-2.941904e+000
1.919837e+003,-1.463196e+000
1.920801e+003,-1.670776e-001
1.921766e+003,4.070465e-001
1.922730e+003,-2.925598e-001
1.923694e+003,-1.315082e+000
1.924658e+003,-2.523068e+000
1.925622e+003,-3.233398e+000
1.926587e+003,-2.059506e+000
1.927551e+003,3.221649e-001
1.928515e+003,1.447317e+000
1.929479e+003,9.718964e-001
1.930444e+003,3.335144e-001
1.931408e+003,-1.381134e-001
1.932372e+003,-6.361054e-001
1.933336e+003,-1.638742e+000
1.934301e+003,-2.277508e+000
1.935265e+003,-1.277878e+000
1.936229e+003,1.879456e-001
1.937193e+003,2.926514e-001
1.938157e+003,-7.044647e-001
1.939122e+003,-1.538486e+000
1.940086e+003,-1.810208e+000
1.941050e+003,-1.856052e+000
1.942014e+003,-1.889114e+000
1.942979e+003,-1.579639e+000
1.943943e+003,-3.365479e-001
1.944907e+003,1.170816e+000
1.945871e+003,6.211792e-001
1.946836e+003,-1.801639e+000
1.947800e+003,-2.446698e+000
1.948764e+003,-1.051825e+000
1.949728e+003,6.769715e-002
1.950693e+003,4.067261e-001
1.951657e+003,5.500366e-001
1.952621e+003,8.139954e-001
1.953585e+003,1.025415e+000
1.954549e+003,9.393402e-001
1.955514e+003,7.001587e-001
1.956478e+003,5.878052e-001
1.957442e+003,6.053772e-001
1.958406e+003,9.029053e-001
1.959371e+003,1.908160e+000
1.960335e+003,1.953543e+000
1.961299e+003,-5.998230e-001
1.962263e+003,-2.111816e+000
1.963228e+003,-1.632599e-001
1.964192e+003,1.933301e+000
1.965156e+003,1.675327e+000
1.966120e+003,3.087219e-001
1.967084e+003,-8.794464e-001
1.968049e+003,-1.404337e+000
1.969013e+003,-6.896850e-001
1.969977e+003,1.162231e+000
1.970941e+003,3.084598e+000
1.971906e+003,4.529977e+000
1.972870e+003,5.137991e+000
1.973834e+003,4.263516e+000
1.974798e+003,2.573422e+000
1.975763e+003,8.339081e-001
1.976727e+003,-7.334198e-001
1.977691e+003,-1.256397e+000
1.978655e+003,-8.182403e-001
1.979620e+003,-1.892151e-001
1.980584e+003,4.434753e-001
1.981548e+003,5.878479e-001
1.982512e+003,-8.424988e-002
1.983476e+003,-7.660705e-001
1.984441e+003,-5.668091e-001
1.985405e+003,9.125976e-002
1.986369e+003,2.190399e-001
1.987333e+003,-1.480652e-001
1.988298e+003,-7.207184e-001
1.989262e+003,-1.914160e+000
1.990226e+003,-2.236487e+000
1.991190e+003,-1.238705e+000
1.992155e+003,-5.415039e-002
1.993119e+003,1.600101e+000
1.994083e+003,2.717883e+000
1.995047e+003,2.391464e+000
1.996011e+003,1.557202e+000
1.996976e+003,8.622376e-001
1.997940e+003,5.606812e-001
1.998904e+003,1.288767e+000
1.999868e+003,3.048123e+000
2.000833e+003,4.612750e+000
2.001797e+003,5.703391e+000
2.002761e+003,6.404596e+000
2.003725e+003,6.917664e+000
2.004690e+003,6.873584e+000
2.005654e+003,5.376178e+000
2.006618e+003,3.798773e+000
2.007582e+003,3.873288e+000
2.008547e+003,4.764847e+000
2.009511e+003,4.806894e+000
2.010475e+003,4.004849e+000
2.011439e+003,3.352383e+000
2.012403e+003,3.243671e+000
2.013368e+003,3.643912e+000
2.014332e+003,4.592703e+000
2.015296e+003,5.501547e+000
2.016260e+003,5.496722e+000
2.017225e+003,4.952072e+000
2.018189e+003,4.758408e+000
2.019153e+003,4.764105e+000
2.020117e+003,4.286075e+000
2.021082e+003,3.341742e+000
2.022046e+003,2.678775e+000
2.023010e+003,2.512628e+000
2.023974e+003,2.629489e+000
2.024938e+003,2.892322e+000
2.025903e+003,3.497427e+000
2.026867e+003,4.828955e+000
2.027831e+003,5.977515e+000
2.028795e+003,4.554965e+000
2.029760e+003,7.661926e-001
2.030724e+003,-2.955292e-001
2.031688e+003,2.422684e+000
2.032652e+003,3.769025e+000
2.033617e+003,2.925052e+000
2.034581e+003,2.200314e+000
2.035545e+003,2.191986e+000
2.036509e+003,2.462717e+000
2.037474e+003,2.920081e+000
2.038438e+003,3.269693e+000
2.039402e+003,3.284064e+000
2.040366e+003,2.998291e+000
2.041330e+003,2.197122e+000
2.042295e+003,9.548187e-001
2.043259e+003,9.533478e-001
2.044223e+003,3.259778e+000
2.045187e+003,4.516077e+000
2.046152e+003,2.702869e+000
2.047116e+003,1.615567e+000
2.048080e+003,3.865439e+000
2.049044e+003,5.981293e+000
2.050009e+003,5.137613e+000
2.050973e+003,3.110135e+000
2.051937e+003,1.789291e+000
2.052901e+003,1.358923e+000
2.053865e+003,1.668530e+000
2.054830e+003,2.512610e+000
2.055794e+003,3.351535e+000
2.056758e+003,3.993314e+000
2.057722e+003,4.224130e+000
2.058687e+003,3.493542e+000
2.059651e+003,2.782742e+000
2.060615e+003,3.320657e+000
2.061579e+003,4.174405e+000
2.062544e+003,4.127832e+000
2.063508e+003,3.453903e+000
2.064472e+003,2.753747e+000
2.065436e+003,2.120068e+000
2.066401e+003,1.423434e+000
2.067365e+003,6.469727e-001
2.068329e+003,-8.503723e-002
2.069293e+003,-6.740478e-001
2.070258e+003,-8.544739e-001
2.071222e+003,-2.730103e-001
2.072186e+003,8.564056e-001
2.073150e+003,2.210458e+000
2.074115e+003,3.677640e+000
2.075079e+003,5.033835e+000
2.076043e+003,6.084958e+000
2.077007e+003,4.941998e+000
2.077971e+003,1.520944e+000
2.078936e+003,2.893829e-001
2.079900e+003,2.924057e+000
2.080864e+003,5.591644e+000
2.081828e+003,5.549024e+000
2.082792e+003,4.305292e+000
2.083757e+003,3.917160e+000
2.084721e+003,4.129584e+000
2.085685e+003,4.006940e+000
2.086649e+003,3.517996e+000
2.087614e+003,4.137228e+000
2.088578e+003,6.344876e+000
2.089542e+003,7.199365e+000
2.090506e+003,5.860895e+000
2.091471e+003,4.735382e+000
2.092435e+003,4.822787e+000
2.093399e+003,4.886511e+000
2.094363e+003,3.826764e+000
2.095328e+003,2.765198e+000
2.096292e+003,3.390555e+000
2.097256e+003,5.032102e+000
2.098220e+003,5.411383e+000
2.099185e+003,4.440707e+000
2.100149e+003,3.686914e+000
2.101113e+003,2.979630e+000
2.102077e+003,2.714639e+000
2.103042e+003,3.341907e+000
2.104006e+003,3.775952e+000
2.104970e+003,3.543362e+000
2.105934e+003,3.375998e+000
2.106898e+003,3.663901e+000
2.107863e+003,4.170920e+000
2.108827e+003,4.842981e+000
2.109791e+003,5.518188e+000
2.110755e+003,5.795966e+000
2.111719e+003,5.650735e+000
2.112684e+003,5.463254e+000
2.113648e+003,5.353259e+000
2.114612e+003,5.111646e+000
2.115576e+003,4.109946e+000
2.116541e+003,3.731934e+000
2.117505e+003,5.037549e+000
2.118469e+003,6.484192e+000
2.119433e+003,7.354266e+000
2.120398e+003,7.678809e+000
2.121362e+003,7.220136e+000
2.122326e+003,6.384503e+000
2.123290e+003,5.881930e+000
2.124255e+003,5.786328e+000
2.125219e+003,5.807864e+000
2.126183e+003,5.862418e+000
2.127147e+003,5.877823e+000
2.128112e+003,5.762677e+000
2.129076e+003,5.767960e+000
2.130040e+003,6.241232e+000
2.131004e+003,6.606805e+000
2.131969e+003,6.323367e+000
2.132933e+003,5.707507e+000
2.133897e+003,4.950714e+000
2.134861e+003,4.359897e+000
2.135825e+003,4.411530e+000
2.136790e+003,4.982025e+000
2.137754e+003,5.556842e+000
2.138718e+003,5.955853e+000
2.139682e+003,6.115195e+000
2.140646e+003,5.881357e+000
2.141611e+003,5.852127e+000
2.142575e+003,6.638177e+000
2.143539e+003,7.660889e+000
2.144503e+003,8.920069e+000
2.145468e+003,9.692889e+000
2.146432e+003,8.377436e+000
2.147396e+003,6.063574e+000
2.148360e+003,5.157675e+000
2.149325e+003,5.482877e+000
2.150289e+003,4.961920e+000
2.151253e+003,3.215671e+000
2.152217e+003,2.247400e+000
2.153182e+003,3.227624e+000
2.154146e+003,4.817178e+000
2.155110e+003,6.030908e+000
2.156074e+003,6.761108e+000
2.157039e+003,6.543073e+000
2.158003e+003,5.899646e+000
2.158967e+003,5.771661e+000
2.159931e+003,5.977142e+000
2.160896e+003,5.865585e+000
2.161860e+003,5.557016e+000
2.162824e+003,5.863910e+000
2.163788e+003,6.787940e+000
2.164752e+003,7.238715e+000
2.165717e+003,6.696890e+000
2.166681e+003,5.789060e+000
2.167645e+003,4.907919e+000
2.168609e+003,4.607278e+000
2.169573e+003,6.214914e+000
2.170538e+003,8.611957e+000
2.171502e+003,9.883606e+000
2.172466e+003,1.000305e+001
2.173430e+003,8.382666e+000
2.174395e+003,5.779352e+000
2.175359e+003,4.681360e+000
2.176323e+003,5.281546e+000
2.177287e+003,5.875842e+000
2.178252e+003,5.755975e+000
2.179216e+003,5.358545e+000
2.180180e+003,5.005551e+000
2.181144e+003,5.132745e+000
2.182109e+003,6.581393e+000
2.183073e+003,8.245453e+000
2.184037e+003,7.665863e+000
2.185001e+003,5.780722e+000
2.185966e+003,4.966531e+000
2.186930e+003,5.059662e+000
2.187894e+003,5.071030e+000
2.188858e+003,4.885056e+000
2.189823e+003,4.735269e+000
2.190787e+003,4.678366e+000
2.191751e+003,4.824472e+000
2.192715e+003,5.252713e+000
2.193679e+003,5.571448e+000
2.194644e+003,5.314837e+000
2.195608e+003,5.056064e+000
2.196572e+003,6.179489e+000
2.197536e+003,7.766339e+000
2.198500e+003,7.185370e+000
2.199465e+003,5.293738e+000
2.200429e+003,4.625058e+000
2.201393e+003,5.096326e+000
2.202357e+003,5.507523e+000
2.203322e+003,5.650665e+000
2.204286e+003,6.161337e+000
2.205250e+003,7.157861e+000
2.206214e+003,7.303162e+000
2.207179e+003,5.682947e+000
2.208143e+003,4.400934e+000
2.209107e+003,6.335513e+000
2.210071e+003,9.316736e+000
2.211036e+003,9.065961e+000
2.212000e+003,6.945813e+000
2.212964e+003,5.988998e+000
2.213928e+003,6.125244e+000
2.214893e+003,7.205365e+000
2.215857e+003,8.831164e+000
2.216821e+003,9.487177e+000
2.217785e+003,9.053919e+000
2.218750e+003,9.461535e+000
2.219714e+003,1.146360e+001
2.220678e+003,1.285772e+001
2.221642e+003,1.176624e+001
2.222606e+003,1.043637e+001
2.223571e+003,1.217344e+001
2.224535e+003,1.522782e+001
2.225499e+003,1.660128e+001
2.226463e+003,1.687346e+001
2.227427e+003,1.698342e+001
2.228392e+003,1.714483e+001
2.229356e+003,1.767161e+001
2.230320e+003,1.855228e+001
2.231284e+003,1.971014e+001
2.232249e+003,2.096136e+001
2.233213e+003,2.137354e+001
2.234177e+003,2.059769e+001
2.235141e+003,2.102393e+001
2.236106e+003,2.517903e+001
2.237070e+003,3.005779e+001
2.238034e+003,3.181315e+001
2.238998e+003,3.213461e+001
2.239963e+003,3.292643e+001
2.240927e+003,3.441530e+001
2.241891e+003,3.780701e+001
2.242855e+003,4.172699e+001
2.243820e+003,4.247946e+001
2.244784e+003,4.076027e+001
2.245748e+003,4.084644e+001
2.246712e+003,4.375426e+001
2.247677e+003,4.654908e+001
2.248641e+003,4.768160e+001
2.249605e+003,4.948143e+001
2.250569e+003,5.512257e+001
2.251533e+003,5.999158e+001
2.252498e+003,5.890540e+001
2.253462e+003,5.580473e+001
2.254426e+003,5.435748e+001
2.255390e+003,5.399785e+001
2.256354e+003,5.436736e+001
2.257319e+003,5.452903e+001
2.258283e+003,5.290398e+001
2.259247e+003,4.977137e+001
2.260211e+003,4.657589e+001
2.261176e+003,4.377685e+001
2.262140e+003,4.143958e+001
2.263104e+003,3.970571e+001
2.264068e+003,3.777886e+001
2.265033e+003,3.501997e+001
2.265997e+003,3.220521e+001
2.266961e+003,2.960428e+001
2.267925e+003,2.732287e+001
2.268890e+003,2.564858e+001
2.269854e+003,2.414658e+001
2.270818e+003,2.196954e+001
2.271782e+003,1.987754e+001
2.272747e+003,1.991751e+001
2.273711e+003,2.129001e+001
2.274675e+003,2.014438e+001
2.275639e+003,1.570135e+001
2.276604e+003,1.233516e+001
2.277568e+003,1.136298e+001
2.278532e+003,1.113552e+001
2.279496e+003,1.217598e+001
2.280460e+003,1.243623e+001
2.281425e+003,1.066045e+001
2.282389e+003,8.540967e+000
2.283353e+003,6.382403e+000
2.284317e+003,5.071073e+000
2.285281e+003,6.184842e+000
2.286246e+003,8.223376e+000
2.287210e+003,8.528943e+000
2.288174e+003,7.303848e+000
2.289138e+003,6.324084e+000
2.290103e+003,5.766763e+000
2.291067e+003,4.763846e+000
2.292031e+003,2.414444e+000
2.292995e+003,1.413471e+000
2.293960e+003,2.717072e+000
2.294924e+003,3.695773e+000
2.295888e+003,3.620813e+000
2.296852e+003,3.350699e+000
2.297817e+003,3.239621e+000
2.298781e+003,3.271191e+000
2.299745e+003,3.616711e+000
2.300709e+003,3.845395e+000
2.301674e+003,3.059280e+000
2.302638e+003,1.505029e+000
2.303602e+003,5.194489e-001
2.304566e+003,1.125122e-001
2.305531e+003,-2.696411e-001
2.306495e+003,-6.136780e-001
2.307459e+003,-6.409424e-001
2.308423e+003,-3.116852e-001
2.309387e+003,-2.886658e-002
2.310352e+003,1.010468e-001
2.311316e+003,2.170624e-001
2.312280e+003,4.348114e-001
2.313244e+003,1.483826e-001
2.314208e+003,-1.252878e+000
2.315173e+003,-2.682044e+000
2.316137e+003,-2.383765e+000
2.317101e+003,-1.227313e+000
2.318065e+003,-2.001318e+000
2.319030e+003,-3.869171e+000
2.319994e+003,-3.053879e+000
2.320958e+003,-3.073883e-001
2.321922e+003,1.408264e+000
2.322887e+003,1.765039e+000
2.323851e+003,6.727478e-001
2.324815e+003,-1.497598e+000
2.325779e+003,-3.213275e+000
2.326744e+003,-3.876569e+000
2.327708e+003,-4.192154e+000
2.328672e+003,-4.617975e+000
2.329636e+003,-4.897278e+000
2.330601e+003,-4.534949e+000
2.331565e+003,-4.314255e+000
2.332529e+003,-5.843509e+000
2.333493e+003,-7.285654e+000
2.334458e+003,-5.678040e+000
2.335422e+003,-3.234305e+000
2.336386e+003,-3.207965e+000
2.337350e+003,-4.628613e+000
2.338314e+003,-5.447165e+000
2.339279e+003,-5.507913e+000
2.340243e+003,-5.303949e+000
2.341207e+003,-5.086450e+000
2.342171e+003,-5.654578e+000
2.343135e+003,-7.521466e+000
2.344100e+003,-8.845212e+000
2.345064e+003,-8.757230e+000
2.346028e+003,-8.312866e+000
2.346992e+003,-7.302304e+000
2.347957e+003,-6.721939e+000
2.348921e+003,-7.680301e+000
2.349885e+003,-8.583407e+000
2.350849e+003,-8.034662e+000
2.351814e+003,-6.996976e+000
2.352778e+003,-6.656619e+000
2.353742e+003,-6.751456e+000
2.354706e+003,-6.500329e+000
2.355671e+003,-5.937241e+000
2.356635e+003,-5.926755e+000
2.357599e+003,-6.680539e+000
2.358563e+003,-7.189557e+000
2.359528e+003,-7.568652e+000
2.360492e+003,-7.283469e+000
2.361456e+003,-6.012949e+000
2.362420e+003,-4.947852e+000
2.363385e+003,-4.319430e+000
2.364349e+003,-4.754327e+000
2.365313e+003,-6.766772e+000
2.366277e+003,-8.706088e+000
2.367241e+003,-9.044360e+000
2.368206e+003,-8.431906e+000
2.369170e+003,-7.803223e+000
2.370134e+003,-7.332306e+000
2.371098e+003,-7.724890e+000
2.372063e+003,-8.685178e+000
2.373027e+003,-9.014221e+000
2.373991e+003,-8.737760e+000
2.374955e+003,-7.802536e+000
2.375919e+003,-6.583618e+000
2.376884e+003,-6.472180e+000
2.377848e+003,-7.434115e+000
2.378812e+003,-7.910699e+000
2.379776e+003,-7.462631e+000
2.380741e+003,-7.307565e+000
2.381705e+003,-8.129099e+000
2.382669e+003,-8.907236e+000
2.383633e+003,-9.170221e+000
2.384598e+003,-8.565695e+000
2.385562e+003,-5.782550e+000
2.386526e+003,-3.311362e+000
2.387490e+003,-3.351483e+000
2.388455e+003,-4.446954e+000
2.389419e+003,-5.545859e+000
2.390383e+003,-6.446322e+000
2.391347e+003,-7.189310e+000
2.392312e+003,-7.654803e+000
2.393276e+003,-7.279010e+000
2.394240e+003,-6.246469e+000
2.395204e+003,-6.246292e+000
2.396168e+003,-7.773077e+000
2.397133e+003,-8.750834e+000
2.398097e+003,-8.928363e+000
2.399061e+003,-8.855347e+000
2.400025e+003,-8.416021e+000
2.400990e+003,-8.038401e+000
2.401954e+003,-7.841702e+000
2.402918e+003,-7.668561e+000
2.403882e+003,-7.470999e+000
2.404846e+003,-7.223041e+000
2.405811e+003,-6.931174e+000
2.406775e+003,-6.361102e+000
2.407739e+003,-5.120852e+000
2.408703e+003,-3.667786e+000
2.409668e+003,-3.273669e+000
2.410632e+003,-3.732105e+000
2.411596e+003,-4.202118e+000
2.412560e+003,-4.611926e+000
2.413525e+003,-4.342725e+000
2.414489e+003,-3.636136e+000
2.415453e+003,-3.752789e+000
2.416417e+003,-4.578296e+000
2.417382e+003,-4.841730e+000
2.418346e+003,-4.333856e+000
2.419310e+003,-3.949396e+000
2.420274e+003,-4.095084e+000
2.421239e+003,-4.575147e+000
2.422203e+003,-5.455808e+000
2.423167e+003,-5.946017e+000
2.424131e+003,-5.414423e+000
2.425095e+003,-4.384302e+000
2.426060e+003,-2.428543e+000
2.427024e+003,-1.001520e+000
2.427988e+003,-1.851199e+000
2.428952e+003,-3.138101e+000
2.429917e+003,-2.855997e+000
2.430881e+003,-1.860025e+000
2.431845e+003,-1.572223e+000
2.432809e+003,-1.924963e+000
2.433773e+003,-2.331635e+000
2.434738e+003,-2.772961e+000
2.435702e+003,-3.384244e+000
2.436666e+003,-4.641861e+000
2.437630e+003,-4.091284e+000
2.438595e+003,-1.010440e+000
2.439559e+003,4.461578e-001
2.440523e+003,-5.049469e-001
2.441487e+003,-8.225250e-001
2.442452e+003,4.043182e-001
2.443416e+003,1.512372e+000
2.444380e+003,1.660712e+000
2.445344e+003,1.172604e+000
2.446309e+003,2.789764e-001
2.447273e+003,-3.824921e-001
2.448237e+003,-1.060425e-001
2.449201e+003,1.134720e+000
2.450166e+003,4.762738e+000
2.451130e+003,8.299210e+000
2.452094e+003,6.759338e+000
2.453058e+003,3.017483e+000
2.454022e+003,1.669598e+000
2.454987e+003,1.721036e+000
2.455951e+003,3.899322e-001
2.456915e+003,-1.809140e+000
2.457879e+003,-2.676471e+000
2.458844e+003,-1.955676e+000
2.459808e+003,-6.594909e-001
2.460772e+003,1.118735e+000
2.461736e+003,2.143753e+000
2.462700e+003,1.283475e+000
2.463665e+003,1.070074e+000
2.464629e+003,2.691208e+000
2.465593e+003,3.498456e+000
2.466557e+003,2.249301e+000
2.467522e+003,1.669086e+000
2.468486e+003,3.219186e+000
2.469450e+003,4.778043e+000
2.470414e+003,4.881729e+000
2.471379e+003,4.099847e+000
2.472343e+003,2.909110e+000
2.473307e+003,2.068594e+000
2.474271e+003,3.483368e+000
2.475236e+003,6.196213e+000
2.476200e+003,7.034173e+000
2.477164e+003,6.553006e+000
2.478128e+003,6.314847e+000
2.479093e+003,6.234436e+000
2.480057e+003,5.457870e+000
2.481021e+003,4.515277e+000
2.481985e+003,5.379373e+000
2.482949e+003,7.682367e+000
2.483914e+003,8.945837e+000
2.484878e+003,8.566693e+000
2.485842e+003,7.925232e+000
2.486806e+003,7.487586e+000
2.487771e+003,7.053271e+000
2.488735e+003,5.918463e+000
2.489699e+003,5.808481e+000
2.490663e+003,8.617941e+000
2.491627e+003,1.031525e+001
2.492592e+003,8.409445e+000
2.493556e+003,6.907770e+000
2.494520e+003,8.030932e+000
2.495484e+003,9.620999e+000
2.496449e+003,9.833692e+000
2.497413e+003,9.602631e+000
2.498377e+003,1.035046e+001
2.499341e+003,1.161959e+001
2.500306e+003,1.226709e+001
2.501270e+003,1.234515e+001
2.502234e+003,1.188096e+001
2.503198e+003,1.102211e+001
2.504163e+003,9.901550e+000
2.505127e+003,8.964783e+000
2.506091e+003,1.005140e+001
2.507055e+003,1.238505e+001
2.508020e+003,1.292891e+001
2.508984e+003,1.172834e+001
2.509948e+003,1.167143e+001
2.510912e+003,1.347108e+001
2.511876e+003,1.453806e+001
2.512841e+003,1.355739e+001
2.513805e+003,1.321252e+001
2.514769e+003,1.506647e+001
2.515733e+003,1.655272e+001
2.516698e+003,1.636019e+001
2.517662e+003,1.667010e+001
2.518626e+003,1.876486e+001
2.519590e+003,2.054596e+001
2.520554e+003,2.069292e+001
2.521519e+003,2.069899e+001
2.522483e+003,2.195239e+001
2.523447e+003,2.328455e+001
2.524411e+003,2.290371e+001
2.525376e+003,2.186389e+001
2.526340e+003,2.280037e+001
2.527304e+003,2.507285e+001
2.528268e+003,2.682127e+001
2.529233e+003,2.828036e+001
2.530197e+003,3.003049e+001
2.531161e+003,3.191923e+001
2.532125e+003,3.349950e+001
2.533090e+003,3.478674e+001
2.534054e+003,3.598873e+001
2.535018e+003,3.720068e+001
2.535982e+003,3.859769e+001
2.536947e+003,4.015890e+001
2.537911e+003,4.091268e+001
2.538875e+003,4.022363e+001
2.539839e+003,3.987687e+001
2.540803e+003,3.994793e+001
2.541768e+003,4.066790e+001
2.542732e+003,4.203631e+001
2.543696e+003,4.427016e+001
2.544660e+003,4.812041e+001
2.545625e+003,5.005912e+001
2.546589e+003,4.818071e+001
2.547553e+003,4.647736e+001
2.548517e+003,4.799230e+001
2.549482e+003,5.063602e+001
2.550446e+003,5.214730e+001
2.551410e+003,5.282056e+001
2.552374e+003,5.294442e+001
2.553339e+003,5.262507e+001
2.554303e+003,5.213544e+001
2.555267e+003,5.127894e+001
2.556231e+003,4.906435e+001
2.557196e+003,4.689761e+001
2.558160e+003,4.734936e+001
2.559124e+003,4.875353e+001
2.560088e+003,4.787388e+001
2.561052e+003,4.526738e+001
2.562017e+003,4.377743e+001
2.562981e+003,4.342479e+001
2.563945e+003,4.178037e+001
2.564909e+003,3.833685e+001
2.565874e+003,3.651702e+001
2.566838e+003,3.668284e+001
2.567802e+003,3.573899e+001
2.568766e+003,3.343747e+001
2.569730e+003,3.160948e+001
2.570695e+003,3.063654e+001
2.571659e+003,3.052709e+001
2.572623e+003,3.104500e+001
2.573587e+003,3.081196e+001
2.574552e+003,2.919139e+001
2.575516e+003,2.753366e+001
2.576480e+003,2.697150e+001
2.577444e+003,2.589100e+001
2.578409e+003,2.232062e+001
2.579373e+003,1.890210e+001
2.580337e+003,1.688823e+001
2.581301e+003,1.587750e+001
2.582266e+003,1.636719e+001
2.583230e+003,1.695948e+001
2.584194e+003,1.674267e+001
2.585158e+003,1.601721e+001
2.586123e+003,1.501162e+001
2.587087e+003,1.391973e+001
2.588051e+003,1.299423e+001
2.589015e+003,1.231775e+001
2.589979e+003,1.228521e+001
2.590944e+003,1.265338e+001
2.591908e+003,1.261404e+001
2.592872e+003,1.213356e+001
2.593836e+003,1.087127e+001
2.594801e+003,9.284037e+000
2.595765e+003,8.320706e+000
2.596729e+003,7.853436e+000
2.597693e+003,7.262872e+000
2.598657e+003,6.533465e+000
2.599622e+003,6.066733e+000
2.600586e+003,5.928754e+000
2.601550e+003,5.725442e+000
2.602514e+003,5.274167e+000
2.603479e+003,5.126502e+000
2.604443e+003,5.421960e+000
2.605407e+003,5.594580e+000
2.606371e+003,5.667130e+000
2.607336e+003,5.425125e+000
2.608300e+003,4.814957e+000
2.609264e+003,3.703857e+000
2.610228e+003,2.121396e+000
2.611193e+003,1.420297e+000
2.612157e+003,2.350601e+000
2.613121e+003,3.382852e+000
2.614085e+003,3.314734e+000
2.615050e+003,2.941693e+000
2.616014e+003,3.250272e+000
2.616978e+003,3.005316e+000
2.617942e+003,3.918091e-001
2.618906e+003,-1.629749e+000
2.619871e+003,-4.598297e-001
2.620835e+003,1.043381e+000
2.621799e+003,5.273498e-001
2.622763e+003,-3.098999e-001
2.623728e+003,1.712982e-001
2.624692e+003,1.198813e+000
2.625656e+003,1.587811e+000
2.626620e+003,1.408664e+000
2.627584e+003,5.151428e-001
2.628549e+003,-5.718231e-001
2.629513e+003,4.242004e-001
2.630477e+003,2.288928e+000
2.631441e+003,2.015799e+000
2.632406e+003,7.034424e-001
2.633370e+003,8.736511e-001
2.634334e+003,1.919220e+000
2.635298e+003,1.933044e+000
2.636263e+003,1.078076e+000
2.637227e+003,7.724975e-001
2.638191e+003,1.183865e+000
2.639155e+003,1.546967e+000
2.640120e+003,1.868887e+000
2.641084e+003,1.914337e+000
2.642048e+003,1.571851e+000
2.643012e+003,1.414264e+000
2.643977e+003,1.514844e+000
2.644941e+003,1.160745e+000
2.645905e+003,3.220520e-001
2.646869e+003,-1.248444e-001
2.647833e+003,-5.784607e-002
2.648798e+003,-3.708862e-001
2.649762e+003,-1.336908e+000
2.650726e+003,-1.883240e+000
2.651690e+003,-1.366171e+000
2.652655e+003,-9.406738e-001
2.653619e+003,-1.162735e+000
2.654583e+003,-1.472073e+000
2.655547e+003,-2.118817e+000
2.656511e+003,-2.085159e+000
2.657476e+003,-5.889374e-001
2.658440e+003,1.678345e-001
2.659404e+003,-8.242645e-001
2.660368e+003,-2.367816e+000
2.661333e+003,-3.729743e+000
2.662297e+003,-3.952637e+000
2.663261e+003,-1.946521e+000
2.664225e+003,2.066834e-001
2.665190e+003,-2.071014e-001
2.666154e+003,-1.837567e+000
2.667118e+003,-4.282440e+000
2.668082e+003,-5.775647e+000
2.669047e+003,-3.682166e+000
2.670011e+003,-1.056097e+000
2.670975e+003,-1.017337e+000
2.671939e+003,-1.653818e+000
2.672904e+003,-3.557373e-001
2.673868e+003,1.393536e+000
2.674832e+003,1.581000e+000
2.675796e+003,3.359100e-001
2.676760e+003,-2.396265e+000
2.677725e+003,-5.794156e+000
2.678689e+003,-6.202911e+000
2.679653e+003,-4.525565e+000
2.680617e+003,-3.111661e+000
2.681582e+003,-2.011981e+000
2.682546e+003,-5.932037e-001
2.683510e+003,4.107696e-001
2.684474e+003,-1.399292e+000
2.685438e+003,-4.517758e+000
2.686403e+003,-4.504102e+000
2.687367e+003,-1.531973e+000
2.688331e+003,3.512573e-003
2.689295e+003,-3.684082e-002
2.690260e+003,-2.881805e-001
2.691224e+003,-8.227051e-001
2.692188e+003,-9.458771e-001
2.693152e+003,-7.230988e-001
2.694117e+003,-1.427609e+000
2.695081e+003,-2.795151e+000
2.696045e+003,-2.497028e+000
2.697009e+003,-7.616882e-001
2.697974e+003,-6.735779e-001
2.698938e+003,-2.600922e+000
2.699902e+003,-3.287131e+000
2.700866e+003,-1.580826e+000
2.701831e+003,-1.160034e-001
2.702795e+003,4.934875e-001
2.703759e+003,5.027038e-001
2.704723e+003,-4.442505e-001
2.705688e+003,-6.480621e-001
2.706652e+003,2.953919e-001
2.707616e+003,1.863892e-001
2.708580e+003,-1.470605e+000
2.709544e+003,-2.500690e+000
2.710509e+003,-2.122962e+000
2.711473e+003,-2.116055e+000
2.712437e+003,-3.470395e+000
2.713401e+003,-4.242798e+000
2.714365e+003,-2.866730e+000
2.715330e+003,-1.297134e+000
2.716294e+003,-1.017090e-001
2.717258e+003,3.961029e-001
2.718222e+003,-8.460999e-002
2.719187e+003,-1.208331e+000
2.720151e+003,-3.518982e+000
2.721115e+003,-4.432940e+000
2.722079e+003,-2.490842e+000
2.723044e+003,-5.903625e-001
2.724008e+003,-9.091614e-001
2.724972e+003,-1.629813e+000
2.725936e+003,-8.266999e-001
2.726901e+003,2.021454e-001
2.727865e+003,-3.004150e-002
2.728829e+003,-5.974518e-001
2.729793e+003,-1.022757e+000
2.730758e+003,-1.170676e+000
2.731722e+003,-7.014343e-001
2.732686e+003,-2.734741e-001
2.733650e+003,-5.407928e-001
2.734615e+003,-5.674835e-001
2.735579e+003,6.245636e-001
2.736543e+003,1.760916e+000
2.737507e+003,1.102246e+000
2.738471e+003,-5.896240e-001
2.739436e+003,-2.372144e+000
2.740400e+003,-3.720297e+000
2.741364e+003,-3.245377e+000
2.742328e+003,-2.304898e+000
2.743292e+003,-2.988544e+000
2.744257e+003,-3.589969e+000
2.745221e+003,-1.532465e+000
2.746185e+003,1.175009e+000
2.747149e+003,2.126126e+000
2.748114e+003,1.598172e+000
2.749078e+003,-3.592743e-001
2.750042e+003,-2.675571e+000
2.751006e+003,-2.306470e+000
2.751971e+003,-2.092255e-001
2.752935e+003,5.715729e-001
2.753899e+003,3.573425e-001
2.754863e+003,-6.188080e-001
2.755828e+003,-1.684000e+000
2.756792e+003,-1.982291e+000
2.757756e+003,-1.582541e+000
2.758720e+003,-3.591919e-001
2.759685e+003,1.162906e+000
2.760649e+003,2.210086e+000
2.761613e+003,2.542026e+000
2.762577e+003,1.142712e+000
2.763542e+003,-1.603674e+000
2.764506e+003,-2.369827e+000
2.765470e+003,-1.617850e+000
2.766434e+003,-1.821130e+000
2.767398e+003,-2.621457e+000
2.768363e+003,-3.096024e+000
2.769327e+003,-3.212869e+000
2.770291e+003,-3.200378e+000
2.771255e+003,-2.880127e+000
2.772219e+003,-1.439722e+000
2.773184e+003,6.906006e-001
2.774148e+003,1.188907e+000
2.775112e+003,1.581482e-001
2.776076e+003,-1.999634e-001
2.777041e+003,1.419495e-001
2.778005e+003,-1.484711e-001
2.778969e+003,-9.032043e-001
2.779933e+003,-1.145517e+000
2.780898e+003,-1.002667e+000
2.781862e+003,-1.033072e+000
2.782826e+003,-1.291232e+000
2.783790e+003,-1.900116e+000
2.784755e+003,-2.564603e+000
2.785719e+003,-1.860101e+000
2.786683e+003,3.427429e-001
2.787647e+003,4.323761e-001
2.788612e+003,-1.970731e+000
2.789576e+003,-3.569443e+000
2.790540e+003,-4.320633e+000
2.791504e+003,-2.842178e+000
2.792469e+003,1.519074e-001
2.793433e+003,8.964111e-001
2.794397e+003,-3.066742e-001
2.795361e+003,-7.325012e-001
2.796325e+003,-8.012696e-002
2.797290e+003,5.337860e-001
2.798254e+003,8.585693e-001
2.799218e+003,4.960602e-001
2.800182e+003,-8.202912e-001
2.801146e+003,-1.048209e+000
2.802111e+003,-2.511292e-002
2.803075e+003,7.999085e-001
2.804039e+003,1.304282e+000
2.805003e+003,1.416043e+000
2.805968e+003,1.157037e+000
2.806932e+003,7.799286e-001
2.807896e+003,4.132355e-001
2.808860e+003,7.739563e-002
2.809825e+003,-2.664398e-001
2.810789e+003,-8.490906e-001
2.811753e+003,-1.795013e+000
2.812717e+003,-2.657806e+000
2.813682e+003,-3.690243e+000
2.814646e+003,-3.005222e+000
2.815610e+003,-6.324402e-001
2.816574e+003,8.873901e-001
2.817539e+003,1.287787e+000
2.818503e+003,5.564362e-001
2.819467e+003,-7.852691e-001
2.820431e+003,-8.518189e-001
2.821396e+003,4.052277e-001
2.822360e+003,3.119324e-001
2.823324e+003,-1.953696e+000
2.824288e+003,-2.318811e+000
2.825252e+003,2.220032e-001
2.826217e+003,1.095987e+000
2.827181e+003,2.630737e-001
2.828145e+003,2.446686e-001
2.829109e+003,9.670563e-001
2.830073e+003,4.948273e-001
2.831038e+003,-1.032678e+000
2.832002e+003,-2.216907e+000
2.832966e+003,-2.524484e+000
2.833930e+003,-1.148306e+000
2.834895e+003,2.059018e+000
2.835859e+003,3.687616e+000
2.836823e+003,3.251343e+000
2.837787e+003,2.469647e+000
2.838752e+003,1.294855e+000
2.839716e+003,9.918548e-001
2.840680e+003,1.429309e+000
2.841644e+003,1.015176e+000
2.842609e+003,-6.945801e-002
2.843573e+003,-1.386688e-001
2.844537e+003,7.528076e-001
2.845501e+003,1.042053e+000
2.846466e+003,4.202698e-001
2.847430e+003,-2.439117e-001
2.848394e+003,-8.284210e-001
2.849358e+003,-1.901346e+000
2.850323e+003,-3.576404e+000
2.851287e+003,-2.689285e+000
2.852251e+003,2.392487e-001
2.853215e+003,1.184244e+000
2.854179e+003,4.210114e-001
2.855144e+003,5.341370e-001
2.856108e+003,1.450940e+000
2.857072e+003,1.406952e+000
2.858036e+003,2.348572e-001
2.859000e+003,-1.133438e+000
2.859965e+003,-2.632336e+000
2.860929e+003,-2.412879e+000
2.861893e+003,-4.373657e-001
2.862857e+003,3.329773e-002
2.863822e+003,-6.126526e-001
2.864786e+003,-3.173920e-001
2.865750e+003,6.638641e-001
2.866714e+003,1.098511e+000
2.867679e+003,1.046991e+000
2.868643e+003,1.358264e+000
2.869607e+003,1.938260e+000
2.870571e+003,1.478726e+000
2.871536e+003,2.181000e-001
2.872500e+003,7.241424e-001
2.873464e+003,2.826352e+000
2.874428e+003,2.791473e+000
2.875393e+003,1.311411e+000
2.876357e+003,5.636657e-001
2.877321e+003,4.851654e-001
2.878285e+003,5.939514e-001
2.879250e+003,8.350128e-001
2.880214e+003,1.669330e+000
2.881178e+003,2.525302e+000
2.882142e+003,1.825647e+000
2.883106e+003,-6.573792e-002
2.884071e+003,-2.063049e+000
2.885035e+003,-3.815659e+000
2.885999e+003,-3.081842e+000
2.886963e+003,-7.842285e-001
2.887927e+003,1.644543e+000
2.888892e+003,3.409116e+000
2.889856e+003,2.689792e+000
2.890820e+003,1.179071e+000
2.891784e+003,1.834067e+000
2.892749e+003,3.343030e+000
2.893713e+003,3.296191e+000
2.894677e+003,2.346661e+000
2.895641e+003,1.911954e+000
2.896606e+003,1.803690e+000
2.897570e+003,1.542572e+000
2.898534e+003,1.256259e+000
2.899498e+003,1.067837e+000
2.900463e+003,1.020572e+000
2.901427e+003,1.145212e+000
2.902391e+003,1.501196e+000
2.903355e+003,2.607373e+000
2.904320e+003,3.138623e+000
2.905284e+003,1.401456e+000
2.906248e+003,-4.017517e-001
2.907212e+003,1.309961e+000
2.908177e+003,4.155130e+000
2.909141e+003,4.531494e+000
2.910105e+003,3.426550e+000
2.911069e+003,8.100128e-001
2.912033e+003,-1.439630e+000
2.912998e+003,-1.538220e+000
2.913962e+003,-1.202756e+000
2.914926e+003,-1.558279e+000
2.915890e+003,-1.661539e+000
2.916854e+003,-7.732910e-001
2.917819e+003,8.844910e-002
2.918783e+003,-2.125702e-001
2.919747e+003,-3.253540e-001
2.920711e+003,2.147308e+000
2.921676e+003,3.904568e+000
2.922640e+003,1.999667e+000
2.923604e+003,1.528961e-001
2.924568e+003,-3.777618e-001
2.925533e+003,2.844543e-002
2.926497e+003,1.347748e+000
2.927461e+003,2.602817e+000
2.928425e+003,3.388071e+000
2.929390e+003,-3.673065e-001
2.930354e+003,-1.273065e+001
2.931318e+003,-2.025720e+001
2.932282e+003,-9.683311e+000
2.933247e+003,-1.240421e+000
2.934211e+003,-1.148386e+000
2.935175e+003,-1.260400e+000
2.936139e+003,-1.220236e+000
2.937104e+003,-4.714630e-001
2.938068e+003,1.064435e+000
2.939032e+003,2.004623e+000
2.939996e+003,1.988123e+000
2.940960e+003,2.072571e+000
2.941925e+003,2.650824e+000
2.942889e+003,3.044986e+000
2.943853e+003,3.176892e+000
2.944817e+003,2.658548e+000
2.945781e+003,1.297565e+000
2.946746e+003,2.878082e-001
2.947710e+003,-2.566254e-001
2.948674e+003,6.890442e-001
2.949638e+003,2.576395e+000
2.950603e+003,2.786963e+000
2.951567e+003,1.387817e+000
2.952531e+003,5.686463e-001
2.953495e+003,6.947357e-001
2.954460e+003,8.084229e-001
2.955424e+003,8.724030e-001
2.956388e+003,4.067658e-001
2.957352e+003,-4.759033e-001
2.958317e+003,-4.485626e-001
2.959281e+003,1.786682e-001
2.960245e+003,5.826966e-001
2.961209e+003,7.272461e-001
2.962174e+003,5.215667e-001
2.963138e+003,2.613281e-001
2.964102e+003,5.091003e-001
2.965066e+003,1.267087e+000
2.966031e+003,2.714261e+000
2.966995e+003,4.303186e+000
2.967959e+003,4.059308e+000
2.968923e+003,2.778723e+000
2.969887e+003,2.077298e+000
2.970852e+003,1.456891e+000
2.971816e+003,-3.065582e-001
2.972780e+003,-1.660666e+000
2.973744e+003,-3.819794e-001
2.974708e+003,1.177744e+000
2.975673e+003,1.043704e+000
2.976637e+003,3.479248e-001
2.977601e+003,3.820190e-001
2.978565e+003,7.888916e-001
2.979530e+003,1.277844e+000
2.980494e+003,1.701068e+000
2.981458e+003,2.133523e+000
2.982422e+003,2.173364e+000
2.983387e+003,1.240762e+000
2.984351e+003,4.889313e-001
2.985315e+003,2.723908e-001
2.986279e+003,1.055344e+000
2.987244e+003,2.987738e+000
2.988208e+003,4.041898e+000
2.989172e+003,2.863162e+000
2.990136e+003,1.705325e+000
2.991101e+003,1.875153e+000
2.992065e+003,2.440006e+000
2.993029e+003,3.623788e+000
2.993993e+003,3.903268e+000
2.994958e+003,3.054523e+000
2.995922e+003,2.118591e+000
2.996886e+003,1.413104e+000
2.997850e+003,1.321921e+000
2.998814e+003,1.789291e+000
2.999779e+003,2.073676e+000
3.000743e+003,1.963223e+000
3.001707e+003,2.089032e+000
3.002671e+003,2.718750e+000
3.003635e+003,1.539917e+000
3.004600e+003,-1.228506e+000
3.005564e+003,-1.255322e+000
3.006528e+003,5.606109e-001
3.007492e+003,6.501587e-001
3.008457e+003,-3.108673e-001
3.009421e+003,1.875854e-001
3.010385e+003,1.665378e+000
3.011349e+003,2.273819e+000
3.012314e+003,2.026456e+000
3.013278e+003,7.815704e-001
3.014242e+003,-8.042237e-001
3.015206e+003,-1.443481e-001
3.016171e+003,1.310110e+000
3.017135e+003,9.205810e-001
3.018099e+003,1.128387e-001
3.019063e+003,2.052979e-001
3.020028e+003,1.177750e+000
3.020992e+003,3.444708e+000
3.021956e+003,4.759497e+000
3.022920e+003,3.030481e+000
3.023885e+003,7.065704e-001
3.024849e+003,5.921112e-001
3.025813e+003,7.590759e-001
3.026777e+003,-1.287527e+000
3.027741e+003,-2.666070e+000
3.028706e+003,-1.284616e+000
3.029670e+003,1.042786e-002
3.030634e+003,6.261749e-001
3.031598e+003,5.506561e-001
3.032563e+003,-1.452148e-001
3.033527e+003,9.091797e-002
3.034491e+003,1.765222e+000
3.035455e+003,2.607184e+000
3.036420e+003,1.482931e+000
3.037384e+003,4.505280e-001
3.038348e+003,4.234009e-002
3.039312e+003,-1.105338e+000
3.040277e+003,-2.985229e+000
3.041241e+003,-2.308035e+000
3.042205e+003,2.372894e-001
3.043169e+003,5.153961e-001
3.044134e+003,-1.172433e+000
3.045098e+003,-2.112207e+000
3.046062e+003,-1.987823e+000
3.047026e+003,-1.513480e+000
3.047990e+003,-8.796997e-001
3.048955e+003,-1.172351e+000
3.049919e+003,-2.001526e+000
3.050883e+003,-1.446118e+000
3.051847e+003,-3.702423e-001
3.052812e+003,-2.833252e-001
3.053776e+003,-5.016998e-001
3.054740e+003,-4.878479e-001
3.055704e+003,2.542633e-001
3.056668e+003,2.519879e+000
3.057633e+003,4.282623e+000
3.058597e+003,3.193805e+000
3.059561e+003,1.194702e+000
3.060525e+003,5.285034e-001
3.061490e+003,3.932739e-001
3.062454e+003,4.997711e-001
3.063418e+003,4.494904e-001
3.064382e+003,-4.084473e-002
3.065347e+003,-4.494385e-001
3.066311e+003,-6.310608e-001
3.067275e+003,-1.095215e-001
3.068239e+003,1.137753e+000
3.069204e+003,1.489041e+000
3.070168e+003,1.874023e-001
3.071132e+003,-6.547149e-001
3.072096e+003,-1.645081e-001
3.073061e+003,5.416504e-001
3.074025e+003,1.527670e+000
3.074989e+003,1.828525e+000
3.075953e+003,1.544138e+000
3.076917e+003,1.726990e+000
3.077882e+003,2.089478e+000
3.078846e+003,1.321628e+000
3.079810e+003,-1.485901e-001
3.080774e+003,-7.448547e-001
3.081739e+003,-4.713898e-001
3.082703e+003,8.551849e-001
3.083667e+003,2.451248e+000
3.084631e+003,1.083191e+000
3.085595e+003,-1.155508e+000
3.086560e+003,-6.723450e-001
3.087524e+003,5.165100e-001
3.088488e+003,2.343750e-001
3.089452e+003,-2.504822e-001
3.090417e+003,-1.129242e-001
3.091381e+003,6.187469e-001
3.092345e+003,1.978506e+000
3.093309e+003,2.496408e+000
3.094274e+003,3.255890e-001
3.095238e+003,-1.351993e+000
3.096202e+003,2.250427e-001
3.097166e+003,1.371216e+000
3.098131e+003,1.432050e+000
3.099095e+003,7.195404e-001
3.100059e+003,-5.960510e-001
3.101023e+003,-4.469391e-001
3.101988e+003,1.244565e+000
3.102952e+003,2.227234e+000
3.103916e+003,1.900125e+000
3.104880e+003,1.232376e+000
3.105844e+003,3.935425e-001
3.106809e+003,-2.438049e-001
3.107773e+003,-6.763824e-001
3.108737e+003,-8.194702e-001
3.109701e+003,-8.060974e-001
3.110666e+003,-9.395935e-001
3.111630e+003,-1.053693e+000
3.112594e+003,-7.969300e-001
3.113558e+003,-3.936493e-001
3.114522e+003,-1.099670e-001
3.115487e+003,-7.355347e-002
3.116451e+003,-4.742615e-001
3.117415e+003,-1.083064e+000
3.118379e+003,-1.881117e+000
3.119344e+003,-2.290955e+000
3.120308e+003,-1.297275e+000
3.121272e+003,-8.438202e-001
3.122236e+003,-1.861386e+000
3.123201e+003,-2.297240e+000
3.124165e+003,-1.517574e+000
3.125129e+003,-6.562836e-001
3.126093e+003,-2.489990e-001
3.127058e+003,-4.291046e-001
3.128022e+003,-1.378349e+000
3.128986e+003,-1.567372e+000
3.129950e+003,-4.580170e-001
3.130915e+003,-1.059387e-001
3.131879e+003,-4.405640e-001
3.132843e+003,-1.012190e+000
3.133807e+003,-1.457042e+000
3.134771e+003,-5.906448e-001
3.135736e+003,8.418182e-001
3.136700e+003,9.878662e-001
3.137664e+003,2.802216e-001
3.138628e+003,-2.490418e-001
3.139593e+003,-8.403152e-001
3.140557e+003,-2.756358e+000
3.141521e+003,-4.170634e+000
3.142485e+003,-8.910431e-001
3.143449e+003,2.297461e+000
3.144414e+003,1.278738e+000
3.145378e+003,-6.973282e-001
3.146342e+003,-2.577806e+000
3.147306e+003,-2.902281e+000
3.148271e+003,-1.096678e+000
3.149235e+003,3.856323e-001
3.150199e+003,1.617554e-001
3.151163e+003,-4.483933e-001
3.152128e+003,-8.985901e-001
3.153092e+003,-1.710207e+000
3.154056e+003,-3.034439e+000
3.155020e+003,-3.072534e+000
3.155985e+003,-2.018675e+000
3.156949e+003,-9.217148e-001
3.157913e+003,-2.409759e-001
3.158877e+003,-1.036067e+000
3.159842e+003,-2.590813e+000
3.160806e+003,-2.609741e+000
3.161770e+003,-1.720639e+000
3.162734e+003,-1.713779e+000
3.163698e+003,-2.005223e+000
3.164663e+003,-1.113831e+000
3.165627e+003,-1.329117e-001
3.166591e+003,-9.406891e-002
3.167555e+003,-5.561279e-001
3.168520e+003,-1.259467e+000
3.169484e+003,-2.333637e+000
3.170448e+003,-3.838495e+000
3.171412e+003,-4.438624e+000
3.172376e+003,-3.358249e+000
3.173341e+003,-1.705537e+000
3.174305e+003,5.840607e-001
3.175269e+003,1.192044e+000
3.176233e+003,-3.709961e-001
3.177198e+003,-1.368366e+000
3.178162e+003,-1.666847e+000
3.179126e+003,-1.314500e+000
3.180090e+003,-6.302872e-001
3.181055e+003,-3.322693e-001
3.182019e+003,-4.147003e-001
3.182983e+003,-6.216003e-001
3.183947e+003,-7.480057e-001
3.184912e+003,-2.536453e-001
3.185876e+003,4.382004e-001
3.186840e+003,6.656830e-001
3.187804e+003,1.689224e-001
3.188769e+003,-2.120308e+000
3.189733e+003,-4.008629e+000
3.190697e+003,-4.308002e+000
3.191661e+003,-4.101921e+000
3.192625e+003,-3.835565e+000
3.193590e+003,-3.229790e+000
3.194554e+003,-2.167999e+000
3.195518e+003,-1.452458e+000
3.196482e+003,-1.608842e+000
3.197447e+003,-1.420862e+000
3.198411e+003,-6.028641e-001
3.199375e+003,-1.289409e+000
3.200339e+003,-2.969452e+000
3.201303e+003,-2.193410e+000
3.202268e+003,1.662765e-001
3.203232e+003,1.766846e+000
3.204196e+003,2.244739e+000
3.205160e+003,1.666202e+000
3.206125e+003,4.916611e-001
3.207089e+003,-6.578171e-001
3.208053e+003,-1.381950e+000
3.209017e+003,-4.827728e-001
3.209982e+003,4.523209e-001
3.210946e+003,-4.527634e-001
3.211910e+003,-6.593262e-001
3.212874e+003,9.579681e-001
3.213839e+003,2.127063e+000
3.214803e+003,2.062946e+000
3.215767e+003,8.803253e-001
3.216731e+003,-1.163206e+000
3.217696e+003,-2.228453e+000
3.218660e+003,-1.551228e+000
3.219624e+003,-7.844833e-001
3.220588e+003,6.280823e-002
3.221552e+003,1.173767e-001
3.222517e+003,-3.064056e-001
3.223481e+003,-3.588547e-001
3.224445e+003,-1.669052e-001
3.225409e+003,4.560699e-002
3.226374e+003,2.697220e-001
3.227338e+003,5.489639e-001
3.228302e+003,6.401993e-001
3.229266e+003,2.209457e-001
3.230230e+003,-3.978424e-001
3.231195e+003,-1.376808e+000
3.232159e+003,-1.522702e+000
3.233123e+003,6.163681e-001
3.234087e+003,1.443726e+000
3.235052e+003,4.115265e-001
3.236016e+003,-2.052307e-001
3.236980e+003,-1.489410e-002
3.237944e+003,-1.605743e-001
3.238909e+003,-8.256195e-001
3.239873e+003,-9.037002e-001
3.240837e+003,-5.128189e-001
3.241801e+003,-1.634833e+000
3.242766e+003,-3.525049e+000
3.243730e+003,-2.613657e+000
3.244694e+003,-9.352844e-001
3.245658e+003,-1.636920e+000
3.246623e+003,-2.883794e+000
3.247587e+003,-3.105879e+000
3.248551e+003,-2.803890e+000
3.249515e+003,-2.301550e+000
3.250479e+003,-1.261125e+000
3.251444e+003,7.731705e-001
3.252408e+003,1.775388e+000
3.253372e+003,-2.078186e-001
3.254336e+003,-1.706923e+000
3.255301e+003,-2.548663e+000
3.256265e+003,-2.220056e+000
3.257229e+003,-1.004121e+000
3.258193e+003,1.106720e-001
3.259157e+003,7.387390e-001
3.260122e+003,1.223648e-001
3.261086e+003,-9.685318e-001
3.262050e+003,-7.503555e-001
3.263014e+003,-1.123795e-001
3.263979e+003,-1.502554e+000
3.264943e+003,-3.083078e+000
3.265907e+003,-2.262012e+000
3.266871e+003,-1.292261e+000
3.267836e+003,-1.511520e+000
3.268800e+003,-1.580660e+000
3.269764e+003,-1.102121e+000
3.270728e+003,-8.219162e-001
3.271693e+003,-1.021722e+000
3.272657e+003,-1.530106e+000
3.273621e+003,-2.319403e+000
3.274585e+003,-2.794899e+000
3.275550e+003,-2.939107e+000
3.276514e+003,-2.249730e+000
3.277478e+003,-1.034670e+000
3.278442e+003,2.549820e-001
3.279406e+003,1.024899e+000
3.280371e+003,-1.645157e-001
3.281335e+003,-1.387117e+000
3.282299e+003,-8.910675e-001
3.283263e+003,-2.461700e-001
3.284228e+003,-9.900162e-001
3.285192e+003,-1.440944e+000
3.286156e+003,5.824127e-001
3.287120e+003,1.544167e+000
3.288084e+003,9.452514e-002
3.289049e+003,-1.182999e-001
3.290013e+003,1.046196e+000
3.290977e+003,1.744609e+000
3.291941e+003,1.653961e+000
3.292906e+003,5.116791e-001
3.293870e+003,-9.669083e-001
3.294834e+003,-6.648697e-001
3.295798e+003,6.008698e-001
3.296763e+003,6.023560e-001
3.297727e+003,4.775848e-002
3.298691e+003,1.076782e-001
3.299655e+003,2.257400e-001
3.300620e+003,-4.139145e-001
3.301584e+003,-2.704529e-001
3.302548e+003,1.136971e+000
3.303512e+003,1.999040e+000
3.304477e+003,1.778529e+000
3.305441e+003,2.142190e+000
3.306405e+003,3.685709e+000
3.307369e+003,2.974316e+000
3.308333e+003,-2.878128e-001
3.309298e+003,5.988144e-001
3.310262e+003,3.911487e+000
3.311226e+003,5.003195e+000
3.312190e+003,4.311203e+000
3.313155e+003,1.385489e+000
3.314119e+003,-6.263168e-001
3.315083e+003,8.167206e-001
3.316047e+003,2.647357e+000
3.317011e+003,2.354440e+000
3.317976e+003,1.339110e+000
3.318940e+003,1.161133e-001
3.319904e+003,-2.814987e-001
3.320868e+003,4.268784e-001
3.321833e+003,1.113954e+000
3.322797e+003,1.711755e+000
3.323761e+003,2.610101e+000
3.324725e+003,3.454721e+000
3.325690e+003,3.116296e+000
3.326654e+003,2.019649e+000
3.327618e+003,1.241191e+000
3.328582e+003,8.307449e-001
3.329547e+003,1.118066e+000
3.330511e+003,1.459302e+000
3.331475e+003,9.045563e-001
3.332439e+003,4.510849e-001
3.333404e+003,5.483109e-001
3.334368e+003,7.744781e-001
3.335332e+003,9.982055e-001
3.336296e+003,4.771713e-001
3.337260e+003,-7.199173e-001
3.338225e+003,-8.228683e-001
3.339189e+003,3.004852e-001
3.340153e+003,-3.419861e-001
3.341117e+003,-2.239426e+000
3.342082e+003,-2.776195e+000
3.343046e+003,-2.350742e+000
3.344010e+003,-3.278061e-001
3.344974e+003,5.057373e-001
3.345938e+003,-2.783562e+000
3.346903e+003,-4.877335e+000
3.347867e+003,-3.285168e+000
3.348831e+003,-5.234467e-001
3.349795e+003,2.073259e+000
3.350760e+003,2.298239e+000
3.351724e+003,-1.962025e+000
3.352688e+003,-3.201717e+000
3.353652e+003,-1.724316e+000
3.354617e+003,-3.136429e-001
3.355581e+003,6.551086e-001
3.356545e+003,7.818176e-001
3.357509e+003,2.115051e-001
3.358474e+003,-9.498901e-001
3.359438e+003,-2.024274e+000
3.360402e+003,-2.455928e+000
3.361366e+003,-1.745587e+000
3.362331e+003,1.865419e+000
3.363295e+003,3.297662e+000
3.364259e+003,-8.423904e-001
3.365223e+003,-2.307083e+000
3.366188e+003,-8.134720e-001
3.367152e+003,-1.846023e-001
3.368116e+003,-6.284180e-001
3.369080e+003,-9.884399e-001
3.370044e+003,-1.055251e+000
3.371009e+003,-8.014587e-001
3.371973e+003,-5.710327e-001
3.372937e+003,-1.132344e+000
3.373901e+003,-1.960748e+000
3.374865e+003,-2.866110e+000
3.375830e+003,-2.971994e+000
3.376794e+003,-1.611408e+000
3.377758e+003,-9.615906e-001
3.378722e+003,-1.345378e+000
3.379687e+003,-1.205969e+000
3.380651e+003,-3.034531e-001
3.381615e+003,3.443466e-001
3.382579e+003,5.279175e-001
3.383544e+003,1.840515e-001
3.384508e+003,-3.482483e-001
3.385472e+003,3.925156e-001
3.386436e+003,1.406638e+000
3.387401e+003,1.657173e+000
3.388365e+003,1.160300e+000
3.389329e+003,-2.147903e-001
3.390293e+003,-6.556778e-001
3.391258e+003,4.690628e-001
3.392222e+003,1.584074e+000
3.393186e+003,2.059226e+000
3.394150e+003,3.020606e+000
3.395115e+003,4.605460e+000
3.396079e+003,4.553195e+000
3.397043e+003,3.481473e+000
3.398007e+003,3.079919e+000
3.398971e+003,3.271799e+000
3.399936e+003,4.157983e+000
3.400900e+003,4.873498e+000
3.401864e+003,4.888358e+000
3.402828e+003,5.057333e+000
3.403792e+003,5.997989e+000
3.404757e+003,6.594879e+000
3.405721e+003,5.796280e+000
3.406685e+003,6.140124e+000
3.407649e+003,7.670569e+000
3.408614e+003,8.262174e+000
3.409578e+003,8.539459e+000
3.410542e+003,1.070478e+001
3.411506e+003,1.356142e+001
3.412471e+003,1.518838e+001
3.413435e+003,1.602259e+001
3.414399e+003,1.651070e+001
3.415363e+003,1.660468e+001
3.416328e+003,1.586083e+001
3.417292e+003,1.568926e+001
3.418256e+003,1.675601e+001
3.419220e+003,1.778426e+001
3.420185e+003,1.863534e+001
3.421149e+003,1.864058e+001
3.422113e+003,1.816688e+001
3.423077e+003,1.815454e+001
3.424042e+003,1.888409e+001
3.425006e+003,2.092229e+001
3.425970e+003,2.230465e+001
3.426934e+003,1.920660e+001
