7.140112e+001,1.591072e+002
7.236536e+001,1.553537e+002
7.332959e+001,1.564134e+002
7.429382e+001,1.604524e+002
7.525806e+001,1.685259e+002
7.622229e+001,1.712670e+002
7.718652e+001,1.617887e+002
7.815076e+001,1.333394e+002
7.911499e+001,1.137419e+002
8.007922e+001,9.942757e+001
8.104346e+001,9.269308e+001
8.200769e+001,9.663041e+001
8.297192e+001,1.194926e+002
8.393616e+001,1.434794e+002
8.490039e+001,1.701072e+002
8.586462e+001,1.942299e+002
8.682886e+001,2.079233e+002
8.779310e+001,1.930103e+002
8.875733e+001,1.677443e+002
8.972157e+001,1.398435e+002
9.068580e+001,1.132049e+002
9.165003e+001,8.958439e+001
9.261427e+001,8.133871e+001
9.357850e+001,8.350531e+001
9.454273e+001,8.818958e+001
9.550697e+001,9.012349e+001
9.647120e+001,8.864016e+001
9.743543e+001,8.714375e+001
9.839967e+001,8.677554e+001
9.936390e+001,8.575388e+001
1.003281e+002,8.156807e+001
1.012924e+002,6.878212e+001
1.022566e+002,5.972869e+001
1.032208e+002,5.753881e+001
1.041851e+002,6.063508e+001
1.051493e+002,6.492519e+001
1.061135e+002,6.894147e+001
1.070778e+002,7.113406e+001
1.080420e+002,7.001589e+001
1.090062e+002,6.545854e+001
1.099705e+002,5.890358e+001
1.109347e+002,5.237953e+001
1.118989e+002,4.660433e+001
1.128632e+002,4.408776e+001
1.138274e+002,4.672433e+001
1.147916e+002,5.568279e+001
1.157559e+002,6.063316e+001
1.167201e+002,6.069515e+001
1.176843e+002,5.887461e+001
1.186486e+002,5.883110e+001
1.196128e+002,6.218166e+001
1.205770e+002,6.514606e+001
1.215413e+002,6.972347e+001
1.225055e+002,7.386031e+001
1.234697e+002,7.327065e+001
1.244340e+002,5.826702e+001
1.253982e+002,4.295851e+001
1.263624e+002,2.973533e+001
1.273267e+002,2.032966e+001
1.282909e+002,1.640656e+001
1.292551e+002,2.822718e+001
1.302194e+002,4.516289e+001
1.311836e+002,5.800963e+001
1.321478e+002,6.089584e+001
1.331121e+002,5.363704e+001
1.340763e+002,4.716517e+001
1.350405e+002,4.121925e+001
1.360048e+002,3.660104e+001
1.369690e+002,3.411271e+001
1.379332e+002,3.443341e+001
1.388975e+002,3.692418e+001
1.398617e+002,4.346049e+001
1.408259e+002,5.129676e+001
1.417902e+002,5.620742e+001
1.427544e+002,5.542614e+001
1.437186e+002,5.215696e+001
1.446829e+002,4.549119e+001
1.456471e+002,3.666738e+001
1.466113e+002,2.845537e+001
1.475756e+002,2.392009e+001
1.485398e+002,2.257145e+001
1.495040e+002,2.673226e+001
1.504683e+002,3.646929e+001
1.514325e+002,4.946943e+001
1.523967e+002,5.144378e+001
1.533610e+002,4.498967e+001
1.543252e+002,3.670433e+001
1.552894e+002,3.115973e+001
1.562537e+002,2.931736e+001
1.572179e+002,2.788973e+001
1.581821e+002,2.549200e+001
1.591464e+002,2.418683e+001
1.601106e+002,2.687236e+001
1.610748e+002,3.933225e+001
1.620391e+002,4.659485e+001
1.630033e+002,4.239408e+001
1.639676e+002,3.184309e+001
1.649318e+002,2.294136e+001
1.658960e+002,2.504183e+001
1.668603e+002,2.996609e+001
1.678245e+002,3.265879e+001
1.687887e+002,3.262810e+001
1.697530e+002,3.117530e+001
1.707172e+002,3.172899e+001
1.716814e+002,3.347160e+001
1.726457e+002,3.456216e+001
1.736099e+002,3.432728e+001
1.745741e+002,3.273198e+001
1.755384e+002,2.995612e+001
1.765026e+002,2.452024e+001
1.774668e+002,1.980377e+001
1.784311e+002,1.808820e+001
1.793953e+002,2.090714e+001
1.803595e+002,2.225955e+001
1.813238e+002,2.014434e+001
1.822880e+002,1.705740e+001
1.832522e+002,1.529154e+001
1.842165e+002,1.713665e+001
1.851807e+002,1.812347e+001
1.861449e+002,1.365475e+001
1.871092e+002,6.625329e+000
1.880734e+002,8.157104e-001
1.890376e+002,1.690088e+000
1.900019e+002,7.573450e+000
1.909661e+002,1.295414e+001
1.919303e+002,1.740177e+001
1.928946e+002,2.082750e+001
1.938588e+002,2.269126e+001
1.948230e+002,2.191902e+001
1.957873e+002,2.192639e+001
1.967515e+002,2.280612e+001
1.977157e+002,2.466262e+001
1.986800e+002,2.919093e+001
1.996442e+002,3.769410e+001
2.006084e+002,4.719186e+001
2.015727e+002,5.901443e+001
2.025369e+002,7.333962e+001
2.035011e+002,8.277629e+001
2.044654e+002,8.080589e+001
2.054296e+002,7.372042e+001
2.063938e+002,6.321992e+001
2.073581e+002,5.062325e+001
2.083223e+002,3.886560e+001
2.092865e+002,3.398442e+001
2.102508e+002,3.457268e+001
2.112150e+002,4.020203e+001
2.121792e+002,5.065613e+001
2.131435e+002,6.808950e+001
2.141077e+002,7.561931e+001
2.150719e+002,6.872601e+001
2.160362e+002,5.596229e+001
2.170004e+002,5.012830e+001
2.179646e+002,5.768211e+001
2.189289e+002,6.415653e+001
2.198931e+002,6.636186e+001
2.208573e+002,6.660939e+001
2.218216e+002,6.980707e+001
2.227858e+002,8.373383e+001
2.237500e+002,9.649017e+001
2.247143e+002,1.049324e+002
2.256785e+002,1.079973e+002
2.266427e+002,1.052730e+002
2.276070e+002,9.125507e+001
2.285712e+002,7.197041e+001
2.295354e+002,5.511951e+001
2.304997e+002,4.300398e+001
2.314639e+002,3.507518e+001
2.324281e+002,2.812180e+001
2.333924e+002,2.187053e+001
2.343566e+002,1.710724e+001
2.353208e+002,1.461227e+001
2.362851e+002,1.483853e+001
2.372493e+002,1.441183e+001
2.382135e+002,1.268370e+001
2.391778e+002,1.079258e+001
2.401420e+002,9.177526e+000
2.411062e+002,7.961194e+000
2.420705e+002,7.225061e+000
2.430347e+002,7.514636e+000
2.439989e+002,7.831238e+000
2.449632e+002,7.276184e+000
2.459274e+002,5.125171e+000
2.468916e+002,2.363232e+000
2.478559e+002,8.509033e-001
2.488201e+002,3.433105e-001
2.497843e+002,5.370606e-001
2.507486e+002,1.093530e+000
2.517128e+002,2.176807e+000
2.526770e+002,3.467285e+000
2.536413e+002,4.527564e+000
2.546055e+002,5.833203e+000
2.555697e+002,8.320874e+000
2.565340e+002,1.407848e+001
2.574982e+002,1.807444e+001
2.584625e+002,1.990389e+001
2.594267e+002,2.002047e+001
2.603909e+002,1.912543e+001
2.613552e+002,1.664954e+001
2.623194e+002,1.386179e+001
2.632836e+002,1.073174e+001
2.642479e+002,7.782983e+000
2.652121e+002,5.941064e+000
2.661763e+002,7.567163e+000
2.671406e+002,1.069979e+001
2.681048e+002,1.220575e+001
2.690690e+002,1.154957e+001
2.700333e+002,9.388232e+000
2.709975e+002,8.429565e+000
2.719617e+002,9.211865e+000
2.729260e+002,9.499731e+000
2.738902e+002,8.619739e+000
2.748544e+002,6.588525e+000
2.758187e+002,4.681872e+000
2.767829e+002,2.559497e+000
2.777471e+002,8.078247e-001
2.787114e+002,-5.340698e-001
2.796756e+002,-1.362488e+000
2.806398e+002,-1.072192e+000
2.816041e+002,1.550171e+000
2.825683e+002,4.691675e+000
2.835325e+002,7.865723e+000
2.844968e+002,1.067715e+001
2.854610e+002,1.260828e+001
2.864252e+002,1.136733e+001
2.873895e+002,8.545202e+000
2.883537e+002,6.757031e+000
2.893179e+002,7.700867e+000
2.902822e+002,1.166571e+001
2.912464e+002,1.267869e+001
2.922106e+002,1.039662e+001
2.931749e+002,7.051660e+000
2.941391e+002,3.695667e+000
2.951033e+002,-1.396484e-001
2.960676e+002,-2.559570e+000
2.970318e+002,-3.499927e+000
2.979960e+002,-3.229700e+000
2.989603e+002,-1.625012e+000
2.999245e+002,1.648108e+000
3.008887e+002,4.864990e+000
3.018530e+002,6.894250e+000
3.028172e+002,8.233789e+000
3.037814e+002,9.356506e+000
3.047457e+002,1.068155e+001
3.057099e+002,1.193519e+001
3.066741e+002,1.269434e+001
3.076384e+002,1.284855e+001
3.086026e+002,1.164241e+001
3.095668e+002,8.102063e+000
3.105311e+002,8.590943e-001
3.114953e+002,-3.006384e+000
3.124595e+002,-2.005542e+000
3.134238e+002,9.164917e-001
3.143880e+002,2.375781e+000
3.153522e+002,1.358081e+000
3.163165e+002,1.850586e-002
3.172807e+002,-2.283350e+000
3.182449e+002,-4.091723e+000
3.192092e+002,-3.553662e+000
3.201734e+002,1.536072e+000
3.211376e+002,7.144678e+000
3.221019e+002,1.035024e+001
3.230661e+002,1.174849e+001
3.240303e+002,1.228145e+001
3.249946e+002,1.299561e+001
3.259588e+002,1.377299e+001
3.269230e+002,1.434445e+001
3.278873e+002,1.471621e+001
3.288515e+002,1.467716e+001
3.298157e+002,1.382743e+001
3.307800e+002,1.111735e+001
3.317442e+002,9.804443e+000
3.327084e+002,1.003350e+001
3.336727e+002,1.138796e+001
3.346369e+002,1.335619e+001
3.356011e+002,1.715044e+001
3.365654e+002,1.969894e+001
3.375296e+002,1.979633e+001
3.384938e+002,1.839811e+001
3.394581e+002,1.684406e+001
3.404223e+002,1.575570e+001
3.413865e+002,1.572629e+001
3.423508e+002,1.734597e+001
3.433150e+002,2.039399e+001
3.442792e+002,2.426390e+001
3.452435e+002,2.798489e+001
3.462077e+002,3.171232e+001
3.471719e+002,3.648525e+001
3.481362e+002,4.178785e+001
3.491004e+002,4.886943e+001
3.500646e+002,6.059408e+001
3.510289e+002,7.786778e+001
3.519931e+002,1.006967e+002
3.529573e+002,1.308552e+002
3.539216e+002,1.660559e+002
3.548858e+002,2.038607e+002
3.558500e+002,2.547233e+002
3.568143e+002,2.903130e+002
3.577785e+002,3.014448e+002
3.587427e+002,2.913835e+002
3.597070e+002,2.653957e+002
3.606712e+002,2.218887e+002
3.616354e+002,1.727101e+002
3.625997e+002,1.319401e+002
3.635639e+002,1.006079e+002
3.645281e+002,7.799119e+001
3.654924e+002,6.270605e+001
3.664566e+002,5.699451e+001
3.674208e+002,5.191632e+001
3.683851e+002,4.801605e+001
3.693493e+002,4.441375e+001
3.703135e+002,3.916088e+001
3.712778e+002,2.961940e+001
3.722420e+002,2.248351e+001
3.732062e+002,1.833180e+001
3.741705e+002,1.671658e+001
3.751347e+002,1.717159e+001
3.760989e+002,2.100284e+001
3.770632e+002,2.473630e+001
3.780274e+002,2.674420e+001
3.789916e+002,2.718571e+001
3.799559e+002,2.644733e+001
3.809201e+002,2.477796e+001
3.818844e+002,2.256973e+001
3.828486e+002,2.080124e+001
3.838128e+002,1.948550e+001
3.847771e+002,1.858024e+001
3.857413e+002,1.801713e+001
3.867055e+002,1.800509e+001
3.876698e+002,1.795857e+001
3.886340e+002,1.653527e+001
3.895982e+002,1.549437e+001
3.905625e+002,1.781111e+001
3.915267e+002,2.739695e+001
3.924909e+002,3.368878e+001
3.934552e+002,3.365895e+001
3.944194e+002,3.047114e+001
3.953836e+002,2.740386e+001
3.963479e+002,2.626512e+001
3.973121e+002,2.602957e+001
3.982763e+002,2.581765e+001
3.992406e+002,2.559502e+001
4.002048e+002,2.518909e+001
4.011690e+002,2.439213e+001
4.021333e+002,2.335891e+001
4.030975e+002,2.318182e+001
4.040617e+002,2.383934e+001
4.050260e+002,2.521365e+001
4.059902e+002,2.714492e+001
4.069544e+002,2.949083e+001
4.079187e+002,3.302784e+001
4.088829e+002,3.869282e+001
4.098471e+002,4.445076e+001
4.108114e+002,4.798005e+001
4.117756e+002,4.758294e+001
4.127398e+002,5.046035e+001
4.137041e+002,6.316418e+001
4.146683e+002,7.701228e+001
4.156325e+002,8.601176e+001
4.165968e+002,8.698798e+001
4.175610e+002,8.244910e+001
4.185252e+002,7.477511e+001
4.194895e+002,6.590471e+001
4.204537e+002,5.801922e+001
4.214179e+002,5.253865e+001
4.223822e+002,4.945256e+001
4.233464e+002,4.908591e+001
4.243106e+002,5.154892e+001
4.252749e+002,5.406304e+001
4.262391e+002,5.425346e+001
4.272033e+002,5.158875e+001
4.281676e+002,5.406438e+001
4.291318e+002,6.383899e+001
4.300960e+002,7.656950e+001
4.310603e+002,9.087762e+001
4.320245e+002,1.064321e+002
4.329887e+002,1.242798e+002
4.339530e+002,1.473394e+002
4.349172e+002,1.718551e+002
4.358814e+002,1.988820e+002
4.368457e+002,2.267445e+002
4.378099e+002,2.513331e+002
4.387741e+002,2.639971e+002
4.397384e+002,2.657379e+002
4.407026e+002,2.586192e+002
4.416668e+002,2.422455e+002
4.426311e+002,2.192131e+002
4.435953e+002,1.982249e+002
4.445595e+002,1.788204e+002
4.455238e+002,1.627556e+002
4.464880e+002,1.508674e+002
4.474522e+002,1.423119e+002
4.484165e+002,1.356966e+002
4.493807e+002,1.329949e+002
4.503449e+002,1.294899e+002
4.513092e+002,1.243024e+002
4.522734e+002,1.171717e+002
4.532376e+002,1.074727e+002
4.542019e+002,9.372498e+001
4.551661e+002,7.933532e+001
4.561303e+002,6.801305e+001
4.570946e+002,5.968608e+001
4.580588e+002,5.429478e+001
4.590230e+002,5.184446e+001
4.599873e+002,5.265557e+001
4.609515e+002,5.198571e+001
4.619157e+002,4.908224e+001
4.628800e+002,4.619644e+001
4.638442e+002,4.523595e+001
4.648084e+002,4.645388e+001
4.657727e+002,4.922527e+001
4.667369e+002,5.466575e+001
4.677011e+002,6.034370e+001
4.686654e+002,6.498676e+001
4.696296e+002,6.821657e+001
4.705938e+002,6.997402e+001
4.715581e+002,7.026876e+001
4.725223e+002,6.922511e+001
4.734865e+002,6.642892e+001
4.744508e+002,6.197239e+001
4.754150e+002,5.665754e+001
4.763792e+002,5.207224e+001
4.773435e+002,4.814429e+001
4.783077e+002,4.524940e+001
4.792719e+002,4.369920e+001
4.802362e+002,4.316058e+001
4.812004e+002,4.160652e+001
4.821646e+002,3.802050e+001
4.831289e+002,3.445396e+001
4.840931e+002,3.064967e+001
4.850573e+002,2.686528e+001
4.860216e+002,2.385842e+001
4.869858e+002,2.271287e+001
4.879500e+002,2.184488e+001
4.889143e+002,2.060238e+001
4.898785e+002,1.922565e+001
4.908427e+002,1.817970e+001
4.918070e+002,1.786574e+001
4.927712e+002,1.799186e+001
4.937354e+002,1.795046e+001
4.946997e+002,1.786611e+001
4.956639e+002,1.800159e+001
4.966281e+002,1.862193e+001
4.975924e+002,1.978311e+001
4.985566e+002,2.118797e+001
4.995208e+002,2.244217e+001
5.004851e+002,2.430109e+001
5.014493e+002,2.758157e+001
5.024135e+002,3.270728e+001
5.033778e+002,3.732243e+001
5.043420e+002,4.223734e+001
5.053063e+002,4.602736e+001
5.062705e+002,4.771223e+001
5.072347e+002,4.709349e+001
5.081990e+002,4.509296e+001
5.091632e+002,4.168945e+001
5.101274e+002,3.786998e+001
5.110917e+002,3.407185e+001
5.120559e+002,3.049103e+001
5.130201e+002,2.718110e+001
5.139844e+002,2.421873e+001
5.149486e+002,2.153408e+001
5.159128e+002,1.893696e+001
5.168771e+002,1.659288e+001
5.178413e+002,1.413711e+001
5.188055e+002,1.056824e+001
5.197698e+002,3.214099e+000
5.207340e+002,-8.463379e-001
5.216982e+002,6.334961e-001
5.226625e+002,4.137042e+000
5.236267e+002,5.719983e+000
5.245909e+002,3.704932e+000
5.255552e+002,1.150848e+000
5.265194e+002,-9.886902e-001
5.274836e+002,-2.372669e+000
5.284479e+002,-2.296271e+000
5.294121e+002,-4.330139e-001
5.303763e+002,2.101129e+000
5.313406e+002,1.977270e+000
5.323048e+002,4.257568e-001
5.332690e+002,2.032837e-001
5.342333e+002,2.778241e+000
5.351975e+002,7.524951e+000
5.361617e+002,9.214727e+000
5.371260e+002,5.569318e+000
5.380902e+002,2.527161e+000
5.390544e+002,1.136383e+000
5.400187e+002,1.022168e+000
5.409829e+002,1.142474e+000
5.419471e+002,1.617670e+000
5.429114e+002,2.071429e+000
5.438756e+002,2.462659e+000
5.448398e+002,2.702924e+000
5.458041e+002,2.644836e+000
5.467683e+002,2.102216e+000
5.477325e+002,1.505310e+000
5.486968e+002,1.582770e+000
5.496610e+002,2.030475e+000
5.506252e+002,2.228302e+000
5.515895e+002,1.661725e+000
5.525537e+002,3.426514e-001
5.535179e+002,-2.777954e-001
5.544822e+002,-7.059936e-002
5.554464e+002,2.868958e-001
5.564106e+002,2.715576e-001
5.573749e+002,-1.693664e-001
5.583391e+002,2.432861e-002
5.593033e+002,2.691296e+000
5.602676e+002,4.308142e+000
5.612318e+002,3.009491e+000
5.621960e+002,-3.419983e-001
5.631603e+002,-2.908264e+000
5.641245e+002,-1.815961e+000
5.650887e+002,-8.027954e-002
5.660530e+002,-6.515625e-001
5.670172e+002,-2.777118e+000
5.679814e+002,-4.434631e+000
5.689457e+002,-3.390369e+000
5.699099e+002,7.457886e-002
5.708741e+002,1.506549e+000
5.718384e+002,8.438781e-001
5.728026e+002,-4.534119e-001
5.737668e+002,-1.310333e+000
5.747311e+002,-1.675586e+000
5.756953e+002,-1.953705e+000
5.766595e+002,-2.161273e+000
5.776238e+002,-2.276330e+000
5.785880e+002,-2.136975e+000
5.795522e+002,-1.813953e+000
5.805165e+002,-1.760339e+000
5.814807e+002,-2.545612e+000
5.824449e+002,-3.425366e+000
5.834092e+002,-4.235883e+000
5.843734e+002,-4.843146e+000
5.853376e+002,-5.016919e+000
5.863019e+002,-4.380048e+000
5.872661e+002,-3.153632e+000
5.882303e+002,-2.792200e+000
5.891946e+002,-3.324359e+000
5.901588e+002,-3.709180e+000
5.911230e+002,-2.709839e+000
5.920873e+002,3.548401e-001
5.930515e+002,1.954614e+000
5.940157e+002,2.142242e+000
5.949800e+002,1.440680e+000
5.959442e+002,-6.885498e-001
5.969084e+002,-4.102557e+000
5.978727e+002,-6.180054e+000
5.988369e+002,-3.586359e+000
5.998011e+002,-7.347900e-001
6.007654e+002,7.906250e-001
6.017296e+002,8.829285e-001
6.026938e+002,7.199707e-002
6.036581e+002,-1.372040e+000
6.046223e+002,-2.901025e+000
6.055865e+002,-2.897254e+000
6.065508e+002,-1.431799e+000
6.075150e+002,3.059998e-001
6.084792e+002,1.003210e+000
6.094435e+002,3.693176e-001
6.104077e+002,2.747375e-001
6.113719e+002,1.278400e+000
6.123362e+002,1.981464e+000
6.133004e+002,1.286481e+000
6.142646e+002,-7.979919e-001
6.152289e+002,-2.128131e+000
6.161931e+002,-1.163165e+000
6.171573e+002,1.546814e-001
6.181216e+002,1.261902e+000
6.190858e+002,2.207770e+000
6.200500e+002,3.387689e+000
6.210143e+002,5.267468e+000
6.219785e+002,7.348590e+000
6.229427e+002,8.798370e+000
6.239070e+002,9.624957e+000
6.248712e+002,9.857984e+000
6.258354e+002,9.459314e+000
6.267997e+002,8.244580e+000
6.277639e+002,9.434845e+000
6.287281e+002,1.521317e+001
6.296924e+002,1.985233e+001
6.306566e+002,2.004490e+001
6.316208e+002,1.624400e+001
6.325851e+002,1.367554e+001
6.335493e+002,1.536298e+001
6.345135e+002,1.727753e+001
6.354778e+002,1.852233e+001
6.364420e+002,1.904335e+001
6.374063e+002,1.910810e+001
6.383705e+002,1.887344e+001
6.393347e+002,1.833735e+001
6.402990e+002,1.757303e+001
6.412632e+002,1.667354e+001
6.422274e+002,1.583745e+001
6.431917e+002,1.520871e+001
6.441559e+002,1.472186e+001
6.451201e+002,1.329461e+001
6.460844e+002,1.028445e+001
6.470486e+002,7.709387e+000
6.480128e+002,6.281390e+000
6.489771e+002,5.818414e+000
6.499413e+002,5.520947e+000
6.509055e+002,5.253522e+000
6.518698e+002,5.129486e+000
6.528340e+002,5.303363e+000
6.537982e+002,5.636664e+000
6.547625e+002,6.020679e+000
6.557267e+002,6.421277e+000
6.566909e+002,6.534381e+000
6.576552e+002,5.607214e+000
6.586194e+002,4.211761e+000
6.595836e+002,3.253101e+000
6.605479e+002,3.200794e+000
6.615121e+002,3.890613e+000
6.624763e+002,4.512262e+000
6.634406e+002,5.176074e+000
6.644048e+002,5.405169e+000
6.653690e+002,4.510425e+000
6.663333e+002,3.178900e+000
6.672975e+002,2.869653e+000
6.682617e+002,4.347565e+000
6.692260e+002,5.825177e+000
6.701902e+002,6.890979e+000
6.711544e+002,7.758313e+000
6.721187e+002,8.806409e+000
6.730829e+002,1.007153e+001
6.740471e+002,1.068408e+001
6.750114e+002,8.071503e+000
6.759756e+002,4.804675e+000
6.769398e+002,3.971765e+000
6.779041e+002,6.024506e+000
6.788683e+002,9.141668e+000
6.798325e+002,9.994360e+000
6.807968e+002,7.641309e+000
6.817610e+002,6.494226e+000
6.827252e+002,7.355774e+000
6.836895e+002,8.696185e+000
6.846537e+002,9.021716e+000
6.856179e+002,8.022235e+000
6.865822e+002,7.609235e+000
6.875464e+002,8.601642e+000
6.885106e+002,9.885157e+000
6.894749e+002,1.144808e+001
6.904391e+002,1.294635e+001
6.914034e+002,1.357634e+001
6.923676e+002,1.204214e+001
6.933318e+002,9.958319e+000
6.942961e+002,9.525653e+000
6.952603e+002,1.053987e+001
6.962245e+002,1.224517e+001
6.971888e+002,1.398301e+001
6.981530e+002,1.572696e+001
6.991172e+002,1.605999e+001
7.000815e+002,1.397226e+001
7.010457e+002,1.260277e+001
7.020099e+002,1.342859e+001
7.029742e+002,1.607937e+001
7.039384e+002,1.863292e+001
7.049026e+002,2.084521e+001
7.058669e+002,2.262004e+001
7.068311e+002,2.395474e+001
7.077953e+002,2.483099e+001
7.087596e+002,2.522566e+001
7.097238e+002,2.515924e+001
7.106880e+002,2.472298e+001
7.116523e+002,2.331174e+001
7.126165e+002,2.166439e+001
7.135807e+002,2.141042e+001
7.145450e+002,2.313623e+001
7.155092e+002,2.566541e+001
7.164734e+002,2.569608e+001
7.174377e+002,2.122506e+001
7.184019e+002,1.844781e+001
7.193661e+002,1.843298e+001
7.203304e+002,1.928812e+001
7.212946e+002,1.895849e+001
7.222589e+002,1.700330e+001
7.232231e+002,1.545653e+001
7.241873e+002,1.554181e+001
7.251516e+002,1.567308e+001
7.261158e+002,1.452610e+001
7.270800e+002,1.234329e+001
7.280443e+002,1.076826e+001
7.290085e+002,1.193258e+001
7.299727e+002,1.451266e+001
7.309370e+002,1.562906e+001
7.319012e+002,1.536667e+001
7.328654e+002,1.449837e+001
7.338297e+002,1.368098e+001
7.347939e+002,1.290287e+001
7.357581e+002,1.214153e+001
7.367224e+002,1.121857e+001
7.376866e+002,1.051349e+001
7.386508e+002,1.015648e+001
7.396151e+002,1.009067e+001
7.405793e+002,1.014860e+001
7.415435e+002,1.022668e+001
7.425078e+002,1.069017e+001
7.434720e+002,1.198515e+001
7.444362e+002,1.342920e+001
7.454005e+002,1.423169e+001
7.463647e+002,1.407443e+001
7.473289e+002,1.351413e+001
7.482932e+002,1.353969e+001
7.492574e+002,1.409142e+001
7.502216e+002,1.518163e+001
7.511859e+002,1.685874e+001
7.521501e+002,1.843945e+001
7.531143e+002,1.867260e+001
7.540786e+002,1.679952e+001
7.550428e+002,1.553005e+001
7.560070e+002,1.481085e+001
7.569713e+002,1.455840e+001
7.579355e+002,1.491715e+001
7.588997e+002,1.580211e+001
7.598640e+002,1.653041e+001
7.608282e+002,1.664825e+001
7.617924e+002,1.666066e+001
7.627567e+002,1.663628e+001
7.637209e+002,1.671367e+001
7.646851e+002,1.704481e+001
7.656494e+002,1.774470e+001
7.666136e+002,1.884644e+001
7.675778e+002,2.097727e+001
7.685421e+002,2.398334e+001
7.695063e+002,2.595609e+001
7.704705e+002,2.586382e+001
7.714348e+002,2.415061e+001
7.723990e+002,2.257079e+001
7.733632e+002,2.113948e+001
7.743275e+002,1.975671e+001
7.752917e+002,1.786136e+001
7.762559e+002,1.643270e+001
7.772202e+002,1.652507e+001
7.781844e+002,1.839667e+001
7.791486e+002,2.066167e+001
7.801129e+002,2.224338e+001
7.810771e+002,2.363109e+001
7.820413e+002,2.530166e+001
7.830056e+002,2.719183e+001
7.839698e+002,2.881206e+001
7.849340e+002,2.956069e+001
7.858983e+002,2.948042e+001
7.868625e+002,3.009835e+001
7.878267e+002,3.147683e+001
7.887910e+002,3.298922e+001
7.897552e+002,3.465676e+001
7.907194e+002,3.637398e+001
7.916837e+002,3.705112e+001
7.926479e+002,3.577130e+001
7.936121e+002,3.430313e+001
7.945764e+002,3.230383e+001
7.955406e+002,3.060352e+001
7.965048e+002,3.014721e+001
7.974691e+002,3.135697e+001
7.984333e+002,3.358385e+001
7.993975e+002,3.647831e+001
8.003618e+002,3.954453e+001
8.013260e+002,4.238240e+001
8.022902e+002,4.486750e+001
8.032545e+002,4.687110e+001
8.042187e+002,4.820897e+001
8.051829e+002,4.874247e+001
8.061472e+002,4.958387e+001
8.071114e+002,5.013839e+001
8.080756e+002,5.143437e+001
8.090399e+002,5.420687e+001
8.100041e+002,5.834036e+001
8.109683e+002,6.287188e+001
8.119326e+002,6.810035e+001
8.128968e+002,7.286884e+001
8.138610e+002,7.607366e+001
8.148253e+002,7.887700e+001
8.157895e+002,8.253134e+001
8.167537e+002,8.770521e+001
8.177180e+002,9.409922e+001
8.186822e+002,1.022246e+002
8.196464e+002,1.111276e+002
8.206107e+002,1.187388e+002
8.215749e+002,1.245524e+002
8.225391e+002,1.285141e+002
8.235034e+002,1.304077e+002
8.244676e+002,1.295687e+002
8.254318e+002,1.283728e+002
8.263961e+002,1.277784e+002
8.273603e+002,1.263025e+002
8.283245e+002,1.231273e+002
8.292888e+002,1.183214e+002
8.302530e+002,1.123221e+002
8.312172e+002,1.043098e+002
8.321815e+002,9.690292e+001
8.331457e+002,9.176871e+001
8.341099e+002,8.838383e+001
8.350742e+002,8.637572e+001
8.360384e+002,8.536076e+001
8.370026e+002,8.453104e+001
8.379669e+002,8.182274e+001
8.389311e+002,7.709161e+001
8.398953e+002,7.260918e+001
8.408596e+002,6.833547e+001
8.418238e+002,6.471510e+001
8.427880e+002,6.250394e+001
8.437523e+002,6.201701e+001
8.447165e+002,6.144987e+001
8.456807e+002,6.078131e+001
8.466450e+002,5.982341e+001
8.476092e+002,5.848919e+001
8.485734e+002,5.671623e+001
8.495377e+002,5.427628e+001
8.505019e+002,5.084636e+001
8.514661e+002,4.764031e+001
8.524304e+002,4.645491e+001
8.533946e+002,4.645566e+001
8.543588e+002,4.664011e+001
8.553231e+002,4.657296e+001
8.562873e+002,4.610635e+001
8.572515e+002,4.487827e+001
8.582158e+002,4.239783e+001
8.591800e+002,4.069832e+001
8.601442e+002,3.961602e+001
8.611085e+002,3.924877e+001
8.620727e+002,4.028208e+001
8.630369e+002,4.256620e+001
8.640012e+002,4.377699e+001
8.649654e+002,4.185450e+001
8.659296e+002,4.013135e+001
8.668939e+002,4.037169e+001
8.678581e+002,4.161427e+001
8.688223e+002,4.247283e+001
8.697866e+002,4.223414e+001
8.707508e+002,4.141175e+001
8.717150e+002,4.098917e+001
8.726793e+002,4.088218e+001
8.736435e+002,4.087081e+001
8.746077e+002,4.103262e+001
8.755720e+002,4.100182e+001
8.765362e+002,4.021074e+001
8.775004e+002,3.845308e+001
8.784647e+002,3.686496e+001
8.794289e+002,3.518763e+001
8.803931e+002,3.391589e+001
8.813574e+002,3.338635e+001
8.823216e+002,3.333165e+001
8.832858e+002,3.331201e+001
8.842501e+002,3.323840e+001
8.852143e+002,3.299964e+001
8.861785e+002,3.243180e+001
8.871428e+002,3.154044e+001
8.881070e+002,3.004363e+001
8.890712e+002,2.803213e+001
8.900355e+002,2.628480e+001
8.909997e+002,2.612960e+001
8.919639e+002,2.795204e+001
8.929282e+002,2.862656e+001
8.938924e+002,2.756376e+001
8.948566e+002,2.632799e+001
8.958209e+002,2.577633e+001
8.967851e+002,2.572016e+001
8.977493e+002,2.528268e+001
8.987136e+002,2.388654e+001
8.996778e+002,2.264850e+001
9.006420e+002,2.250883e+001
9.016063e+002,2.242855e+001
9.025705e+002,2.124113e+001
9.035347e+002,1.878250e+001
9.044990e+002,1.610967e+001
9.054632e+002,1.448951e+001
9.064274e+002,1.375246e+001
9.073917e+002,1.308197e+001
9.083559e+002,1.251612e+001
9.093201e+002,1.202346e+001
9.102844e+002,1.153591e+001
9.112486e+002,1.105465e+001
9.122128e+002,1.079807e+001
9.131771e+002,1.125153e+001
9.141413e+002,1.128018e+001
9.151055e+002,1.026710e+001
9.160698e+002,9.145971e+000
9.170340e+002,9.020411e+000
9.179982e+002,1.006005e+001
9.189625e+002,1.087333e+001
9.199267e+002,9.774335e+000
9.208909e+002,8.397052e+000
9.218552e+002,8.747889e+000
9.228194e+002,1.035095e+001
9.237836e+002,1.139373e+001
9.247479e+002,1.043166e+001
9.257121e+002,7.874054e+000
9.266763e+002,6.105548e+000
9.276406e+002,5.317523e+000
9.286048e+002,4.924414e+000
9.295690e+002,5.099738e+000
9.305333e+002,5.515332e+000
9.314975e+002,5.931122e+000
9.324617e+002,6.364386e+000
9.334260e+002,6.317511e+000
9.343902e+002,4.825818e+000
9.353545e+002,3.459052e+000
9.363187e+002,2.738281e+000
9.372830e+002,2.687408e+000
9.382472e+002,3.384131e+000
9.392114e+002,4.871875e+000
9.401757e+002,6.706421e+000
9.411399e+002,7.614057e+000
9.421041e+002,7.707086e+000
9.430684e+002,7.941833e+000
9.440326e+002,8.489258e+000
9.449968e+002,9.109070e+000
9.459611e+002,9.523590e+000
9.469253e+002,9.745196e+000
9.478895e+002,1.018670e+001
9.488538e+002,1.142805e+001
9.498180e+002,1.217996e+001
9.507822e+002,1.182849e+001
9.517465e+002,1.080691e+001
9.527107e+002,9.607483e+000
9.536749e+002,8.427179e+000
9.546392e+002,7.739136e+000
9.556034e+002,8.371149e+000
9.565676e+002,9.707129e+000
9.575319e+002,1.133945e+001
9.584961e+002,1.313125e+001
9.594603e+002,1.451909e+001
9.604246e+002,1.478395e+001
9.613888e+002,1.388472e+001
9.623530e+002,1.403314e+001
9.633173e+002,1.582438e+001
9.642815e+002,1.779192e+001
9.652457e+002,1.906219e+001
9.662100e+002,2.093104e+001
9.671742e+002,2.474821e+001
9.681384e+002,3.072158e+001
9.691027e+002,3.870426e+001
9.700669e+002,4.974121e+001
9.710311e+002,6.202889e+001
9.719954e+002,7.743122e+001
9.729596e+002,9.305312e+001
9.739238e+002,1.030014e+002
9.748881e+002,1.033068e+002
9.758523e+002,9.580822e+001
9.768165e+002,8.591571e+001
9.777808e+002,7.293013e+001
9.787450e+002,6.149742e+001
9.797092e+002,5.207182e+001
9.806735e+002,4.437025e+001
9.816377e+002,3.817938e+001
9.826019e+002,3.352171e+001
9.835662e+002,3.038543e+001
9.845304e+002,2.969255e+001
9.854946e+002,2.967215e+001
9.864589e+002,3.019567e+001
9.874231e+002,3.083698e+001
9.883873e+002,3.088203e+001
9.893516e+002,3.014355e+001
9.903158e+002,2.945607e+001
9.912800e+002,2.998165e+001
9.922443e+002,3.187696e+001
9.932085e+002,3.472529e+001
9.941727e+002,3.857148e+001
9.951370e+002,4.323681e+001
9.961012e+002,4.809474e+001
9.970654e+002,5.322775e+001
9.980297e+002,6.034062e+001
9.989939e+002,6.702632e+001
9.999581e+002,8.089619e+001
1.000922e+003,9.776179e+001
1.001887e+003,1.254014e+002
1.002851e+003,1.752126e+002
1.003815e+003,2.434957e+002
1.004779e+003,3.144061e+002
1.005744e+003,3.862346e+002
1.006708e+003,4.362930e+002
1.007672e+003,4.285733e+002
1.008636e+003,3.790097e+002
1.009600e+003,3.176723e+002
1.010565e+003,2.570017e+002
1.011529e+003,2.005361e+002
1.012493e+003,1.564708e+002
1.013457e+003,1.275438e+002
1.014422e+003,1.044849e+002
1.015386e+003,8.805650e+001
1.016350e+003,7.488092e+001
1.017314e+003,6.403688e+001
1.018279e+003,5.527704e+001
1.019243e+003,4.860091e+001
1.020207e+003,4.422565e+001
1.021171e+003,4.116899e+001
1.022135e+003,3.944949e+001
1.023100e+003,3.814058e+001
1.024064e+003,3.658273e+001
1.025028e+003,3.456940e+001
1.025992e+003,3.190519e+001
1.026957e+003,2.839166e+001
1.027921e+003,2.442306e+001
1.028885e+003,2.234218e+001
1.029849e+003,2.306464e+001
1.030814e+003,2.360102e+001
1.031778e+003,2.381843e+001
1.032742e+003,2.345383e+001
1.033706e+003,2.179403e+001
1.034671e+003,1.897469e+001
1.035635e+003,1.753801e+001
1.036599e+003,1.991816e+001
1.037563e+003,2.202672e+001
1.038527e+003,2.112906e+001
1.039492e+003,1.886027e+001
1.040456e+003,1.736427e+001
1.041420e+003,1.746620e+001
1.042384e+003,1.838813e+001
1.043349e+003,1.901628e+001
1.044313e+003,1.933746e+001
1.045277e+003,1.975665e+001
1.046241e+003,2.031767e+001
1.047206e+003,2.080261e+001
1.048170e+003,2.110527e+001
1.049134e+003,2.127007e+001
1.050098e+003,2.142897e+001
1.051063e+003,2.168325e+001
1.052027e+003,2.181644e+001
1.052991e+003,2.148191e+001
1.053955e+003,2.108936e+001
1.054919e+003,2.077767e+001
1.055884e+003,2.061901e+001
1.056848e+003,2.082338e+001
1.057812e+003,2.155061e+001
1.058776e+003,2.240997e+001
1.059741e+003,2.238445e+001
1.060705e+003,2.151377e+001
1.061669e+003,2.058782e+001
1.062633e+003,1.960628e+001
1.063598e+003,1.869162e+001
1.064562e+003,1.791885e+001
1.065526e+003,1.736381e+001
1.066490e+003,1.736536e+001
1.067454e+003,1.810856e+001
1.068419e+003,1.918910e+001
1.069383e+003,2.090101e+001
1.070347e+003,2.243563e+001
1.071311e+003,2.309433e+001
1.072276e+003,2.294672e+001
1.073240e+003,2.261576e+001
1.074204e+003,2.253226e+001
1.075168e+003,2.264789e+001
1.076133e+003,2.300035e+001
1.077097e+003,2.347035e+001
1.078061e+003,2.346833e+001
1.079025e+003,2.268074e+001
1.079990e+003,2.173975e+001
1.080954e+003,2.162332e+001
1.081918e+003,2.248517e+001
1.082882e+003,2.314063e+001
1.083846e+003,2.337255e+001
1.084811e+003,2.352439e+001
1.085775e+003,2.359961e+001
1.086739e+003,2.365255e+001
1.087703e+003,2.373060e+001
1.088668e+003,2.390467e+001
1.089632e+003,2.434515e+001
1.090596e+003,2.535830e+001
1.091560e+003,2.635381e+001
1.092525e+003,2.616777e+001
1.093489e+003,2.501072e+001
1.094453e+003,2.370607e+001
1.095417e+003,2.253918e+001
1.096381e+003,2.183314e+001
1.097346e+003,2.246631e+001
1.098310e+003,2.520281e+001
1.099274e+003,2.654016e+001
1.100238e+003,2.521737e+001
1.101203e+003,2.420518e+001
1.102167e+003,2.477646e+001
1.103131e+003,2.591638e+001
1.104095e+003,2.606531e+001
1.105060e+003,2.483054e+001
1.106024e+003,2.346498e+001
1.106988e+003,2.299445e+001
1.107952e+003,2.330961e+001
1.108917e+003,2.430013e+001
1.109881e+003,2.573939e+001
1.110845e+003,2.677085e+001
1.111809e+003,2.686586e+001
1.112773e+003,2.648816e+001
1.113738e+003,2.692429e+001
1.114702e+003,2.896899e+001
1.115666e+003,2.970021e+001
1.116630e+003,2.779112e+001
1.117595e+003,2.628942e+001
1.118559e+003,2.645791e+001
1.119523e+003,2.759066e+001
1.120487e+003,2.865677e+001
1.121452e+003,2.936954e+001
1.122416e+003,2.987540e+001
1.123380e+003,3.026872e+001
1.124344e+003,3.039606e+001
1.125308e+003,2.991271e+001
1.126273e+003,2.907882e+001
1.127237e+003,2.875906e+001
1.128201e+003,2.944508e+001
1.129165e+003,3.070523e+001
1.130130e+003,3.156198e+001
1.131094e+003,3.197714e+001
1.132058e+003,3.183184e+001
1.133022e+003,3.042485e+001
1.133987e+003,2.947466e+001
1.134951e+003,2.977493e+001
1.135915e+003,3.084373e+001
1.136879e+003,3.216079e+001
1.137844e+003,3.353898e+001
1.138808e+003,3.433500e+001
1.139772e+003,3.344753e+001
1.140736e+003,3.206666e+001
1.141700e+003,3.210154e+001
1.142665e+003,3.322932e+001
1.143629e+003,3.413925e+001
1.144593e+003,3.418106e+001
1.145557e+003,3.406484e+001
1.146522e+003,3.530114e+001
1.147486e+003,3.849480e+001
1.148450e+003,3.996288e+001
1.149414e+003,3.850740e+001
1.150379e+003,3.726612e+001
1.151343e+003,3.688322e+001
1.152307e+003,3.723496e+001
1.153271e+003,3.844951e+001
1.154235e+003,4.031157e+001
1.155200e+003,4.135534e+001
1.156164e+003,3.989124e+001
1.157128e+003,3.820838e+001
1.158092e+003,4.026075e+001
1.159057e+003,4.450029e+001
1.160021e+003,4.685587e+001
1.160985e+003,4.574102e+001
1.161949e+003,4.310999e+001
1.162914e+003,4.179233e+001
1.163878e+003,4.190297e+001
1.164842e+003,4.265507e+001
1.165806e+003,4.428915e+001
1.166771e+003,4.622667e+001
1.167735e+003,4.926644e+001
1.168699e+003,5.195609e+001
1.169663e+003,5.259148e+001
1.170627e+003,5.142225e+001
1.171592e+003,5.048929e+001
1.172556e+003,5.104433e+001
1.173520e+003,5.241543e+001
1.174484e+003,5.372252e+001
1.175449e+003,5.497951e+001
1.176413e+003,5.628925e+001
1.177377e+003,5.765008e+001
1.178341e+003,5.889587e+001
1.179306e+003,5.990523e+001
1.180270e+003,6.072075e+001
1.181234e+003,6.133118e+001
1.182198e+003,6.148079e+001
1.183162e+003,6.172792e+001
1.184127e+003,6.203161e+001
1.185091e+003,6.249299e+001
1.186055e+003,6.389799e+001
1.187019e+003,6.552201e+001
1.187984e+003,6.530132e+001
1.188948e+003,6.220067e+001
1.189912e+003,5.870366e+001
1.190876e+003,5.830354e+001
1.191841e+003,5.984265e+001
1.192805e+003,6.029684e+001
1.193769e+003,5.953799e+001
1.194733e+003,5.864087e+001
1.195698e+003,5.820060e+001
1.196662e+003,5.806846e+001
1.197626e+003,5.801565e+001
1.198590e+003,5.824457e+001
1.199554e+003,5.770277e+001
1.200519e+003,5.527789e+001
1.201483e+003,5.339758e+001
1.202447e+003,5.300282e+001
1.203411e+003,5.349240e+001
1.204376e+003,5.421942e+001
1.205340e+003,5.481353e+001
1.206304e+003,5.493837e+001
1.207268e+003,5.434214e+001
1.208233e+003,5.343461e+001
1.209197e+003,5.307430e+001
1.210161e+003,5.310889e+001
1.211125e+003,5.295863e+001
1.212089e+003,5.215091e+001
1.213054e+003,5.141457e+001
1.214018e+003,5.199719e+001
1.214982e+003,5.385977e+001
1.215946e+003,5.478890e+001
1.216911e+003,5.373087e+001
1.217875e+003,5.308141e+001
1.218839e+003,5.384743e+001
1.219803e+003,5.481510e+001
1.220768e+003,5.513917e+001
1.221732e+003,5.501733e+001
1.222696e+003,5.518614e+001
1.223660e+003,5.600987e+001
1.224625e+003,5.691453e+001
1.225589e+003,5.673091e+001
1.226553e+003,5.539969e+001
1.227517e+003,5.553432e+001
1.228481e+003,5.790229e+001
1.229446e+003,5.991315e+001
1.230410e+003,6.040511e+001
1.231374e+003,5.980720e+001
1.232338e+003,5.847192e+001
1.233303e+003,5.637855e+001
1.234267e+003,5.546321e+001
1.235231e+003,5.775414e+001
1.236195e+003,5.949936e+001
1.237160e+003,5.737104e+001
1.238124e+003,5.414515e+001
1.239088e+003,5.384316e+001
1.240052e+003,5.680048e+001
1.241016e+003,5.969181e+001
1.241981e+003,5.928913e+001
1.242945e+003,5.642536e+001
1.243909e+003,5.500618e+001
1.244873e+003,5.572214e+001
1.245838e+003,5.656403e+001
1.246802e+003,5.768627e+001
1.247766e+003,5.870728e+001
1.248730e+003,5.921261e+001
1.249695e+003,5.950127e+001
1.250659e+003,6.043721e+001
1.251623e+003,6.231716e+001
1.252587e+003,6.372827e+001
1.253552e+003,6.351993e+001
1.254516e+003,6.250097e+001
1.255480e+003,6.105184e+001
1.256444e+003,5.956292e+001
1.257408e+003,5.885612e+001
1.258373e+003,5.926078e+001
1.259337e+003,6.050570e+001
1.260301e+003,6.232482e+001
1.261265e+003,6.477244e+001
1.262230e+003,6.673807e+001
1.263194e+003,6.822029e+001
1.264158e+003,6.874852e+001
1.265122e+003,6.789442e+001
1.266087e+003,6.655614e+001
1.267051e+003,6.473473e+001
1.268015e+003,6.308076e+001
1.268979e+003,6.310286e+001
1.269943e+003,6.542628e+001
1.270908e+003,6.792043e+001
1.271872e+003,6.807832e+001
1.272836e+003,6.693157e+001
1.273800e+003,6.711864e+001
1.274765e+003,6.857041e+001
1.275729e+003,6.988491e+001
1.276693e+003,7.054576e+001
1.277657e+003,7.049744e+001
1.278622e+003,6.917583e+001
1.279586e+003,6.639603e+001
1.280550e+003,6.517226e+001
1.281514e+003,6.719163e+001
1.282479e+003,6.886073e+001
1.283443e+003,6.876994e+001
1.284407e+003,6.834915e+001
1.285371e+003,6.843938e+001
1.286335e+003,6.914766e+001
1.287300e+003,7.056566e+001
1.288264e+003,7.274387e+001
1.289228e+003,7.500051e+001
1.290192e+003,7.623680e+001
1.291157e+003,7.640858e+001
1.292121e+003,7.565364e+001
1.293085e+003,7.330270e+001
1.294049e+003,7.170876e+001
1.295014e+003,7.234724e+001
1.295978e+003,7.383656e+001
1.296942e+003,7.454571e+001
1.297906e+003,7.451396e+001
1.298870e+003,7.453962e+001
1.299835e+003,7.471518e+001
1.300799e+003,7.493742e+001
1.301763e+003,7.475130e+001
1.302727e+003,7.483510e+001
1.303692e+003,7.642314e+001
1.304656e+003,7.910723e+001
1.305620e+003,8.111829e+001
1.306584e+003,8.139627e+001
1.307549e+003,8.081882e+001
1.308513e+003,8.117333e+001
1.309477e+003,8.265099e+001
1.310441e+003,8.311281e+001
1.311406e+003,8.136090e+001
1.312370e+003,8.049243e+001
1.313334e+003,8.183450e+001
1.314298e+003,8.348582e+001
1.315263e+003,8.374484e+001
1.316227e+003,8.284666e+001
1.317191e+003,8.203056e+001
1.318155e+003,8.179121e+001
1.319120e+003,8.185249e+001
1.320084e+003,8.202740e+001
1.321048e+003,8.219722e+001
1.322012e+003,8.218887e+001
1.322976e+003,8.199226e+001
1.323941e+003,8.161398e+001
1.324905e+003,8.103314e+001
1.325869e+003,8.051766e+001
1.326833e+003,8.027008e+001
1.327798e+003,8.026348e+001
1.328762e+003,8.103380e+001
1.329726e+003,8.328822e+001
1.330690e+003,8.496499e+001
1.331655e+003,8.482515e+001
1.332619e+003,8.468954e+001
1.333583e+003,8.644324e+001
1.334547e+003,8.899037e+001
1.335511e+003,9.001779e+001
1.336476e+003,8.861017e+001
1.337440e+003,8.585516e+001
1.338404e+003,8.296574e+001
1.339368e+003,8.020940e+001
1.340333e+003,7.978780e+001
1.341297e+003,8.250504e+001
1.342261e+003,8.467789e+001
1.343225e+003,8.607457e+001
1.344190e+003,8.670037e+001
1.345154e+003,8.579063e+001
1.346118e+003,8.426982e+001
1.347082e+003,8.478813e+001
1.348047e+003,8.806855e+001
1.349011e+003,9.006339e+001
1.349975e+003,8.706422e+001
1.350939e+003,8.326140e+001
1.351903e+003,8.340496e+001
1.352868e+003,8.605951e+001
1.353832e+003,8.846480e+001
1.354796e+003,8.983615e+001
1.355760e+003,9.041717e+001
1.356725e+003,9.029838e+001
1.357689e+003,8.968790e+001
1.358653e+003,8.950727e+001
1.359617e+003,8.988150e+001
1.360582e+003,9.032848e+001
1.361546e+003,9.022984e+001
1.362510e+003,9.082556e+001
1.363474e+003,9.389310e+001
1.364438e+003,9.714789e+001
1.365403e+003,9.767241e+001
1.366367e+003,9.553365e+001
1.367331e+003,9.310051e+001
1.368295e+003,9.192817e+001
1.369260e+003,9.151215e+001
1.370224e+003,9.089049e+001
1.371188e+003,9.028177e+001
1.372152e+003,9.142554e+001
1.373117e+003,9.521559e+001
1.374081e+003,9.769503e+001
1.375045e+003,9.648919e+001
1.376009e+003,9.415417e+001
1.376974e+003,9.351307e+001
1.377938e+003,9.449003e+001
1.378902e+003,9.588821e+001
1.379866e+003,9.767442e+001
1.380830e+003,9.852266e+001
1.381795e+003,9.625425e+001
1.382759e+003,9.360072e+001
1.383723e+003,9.327511e+001
1.384687e+003,9.477302e+001
1.385652e+003,9.627286e+001
1.386616e+003,9.705235e+001
1.387580e+003,9.757725e+001
1.388544e+003,9.844502e+001
1.389509e+003,9.950533e+001
1.390473e+003,9.969981e+001
1.391437e+003,9.817595e+001
1.392401e+003,9.806954e+001
1.393365e+003,1.008621e+002
1.394330e+003,1.033338e+002
1.395294e+003,1.035757e+002
1.396258e+003,1.029888e+002
1.397222e+003,1.038681e+002
1.398187e+003,1.062547e+002
1.399151e+003,1.078769e+002
1.400115e+003,1.070202e+002
1.401079e+003,1.051880e+002
1.402044e+003,1.055211e+002
1.403008e+003,1.080618e+002
1.403972e+003,1.090546e+002
1.404936e+003,1.080522e+002
1.405901e+003,1.069569e+002
1.406865e+003,1.060793e+002
1.407829e+003,1.055353e+002
1.408793e+003,1.056135e+002
1.409757e+003,1.062320e+002
1.410722e+003,1.069765e+002
1.411686e+003,1.077485e+002
1.412650e+003,1.078548e+002
1.413614e+003,1.062888e+002
1.414579e+003,1.045572e+002
1.415543e+003,1.041461e+002
1.416507e+003,1.049563e+002
1.417471e+003,1.067903e+002
1.418436e+003,1.095049e+002
1.419400e+003,1.119976e+002
1.420364e+003,1.133111e+002
1.421328e+003,1.136605e+002
1.422292e+003,1.133978e+002
1.423257e+003,1.120117e+002
1.424221e+003,1.114660e+002
1.425185e+003,1.132945e+002
1.426149e+003,1.143206e+002
1.427114e+003,1.127606e+002
1.428078e+003,1.110429e+002
1.429042e+003,1.116331e+002
1.430006e+003,1.140562e+002
1.430971e+003,1.162967e+002
1.431935e+003,1.172862e+002
1.432899e+003,1.174203e+002
1.433863e+003,1.172492e+002
1.434828e+003,1.168924e+002
1.435792e+003,1.169023e+002
1.436756e+003,1.170396e+002
1.437720e+003,1.174415e+002
1.438684e+003,1.184853e+002
1.439649e+003,1.197137e+002
1.440613e+003,1.212279e+002
1.441577e+003,1.226057e+002
1.442541e+003,1.224751e+002
1.443506e+003,1.208960e+002
1.444470e+003,1.211785e+002
1.445434e+003,1.260488e+002
1.446398e+003,1.312378e+002
1.447363e+003,1.292839e+002
1.448327e+003,1.232246e+002
1.449291e+003,1.214756e+002
1.450255e+003,1.247607e+002
1.451219e+003,1.281207e+002
1.452184e+003,1.288767e+002
1.453148e+003,1.288454e+002
1.454112e+003,1.308328e+002
1.455076e+003,1.342857e+002
1.456041e+003,1.356610e+002
1.457005e+003,1.340863e+002
1.457969e+003,1.325150e+002
1.458933e+003,1.315009e+002
1.459898e+003,1.315804e+002
1.460862e+003,1.342046e+002
1.461826e+003,1.375093e+002
1.462790e+003,1.386475e+002
1.463755e+003,1.372793e+002
1.464719e+003,1.352584e+002
1.465683e+003,1.339309e+002
1.466647e+003,1.330256e+002
1.467611e+003,1.316254e+002
1.468576e+003,1.292981e+002
1.469540e+003,1.292983e+002
1.470504e+003,1.340923e+002
1.471468e+003,1.376763e+002
1.472433e+003,1.383721e+002
1.473397e+003,1.385201e+002
1.474361e+003,1.397731e+002
1.475325e+003,1.414373e+002
1.476290e+003,1.418904e+002
1.477254e+003,1.409278e+002
1.478218e+003,1.402010e+002
1.479182e+003,1.411103e+002
1.480146e+003,1.427331e+002
1.481111e+003,1.427986e+002
1.482075e+003,1.410396e+002
1.483039e+003,1.396871e+002
1.484003e+003,1.387587e+002
1.484968e+003,1.381117e+002
1.485932e+003,1.377061e+002
1.486896e+003,1.378477e+002
1.487860e+003,1.395176e+002
1.488825e+003,1.415688e+002
1.489789e+003,1.409424e+002
1.490753e+003,1.371124e+002
1.491717e+003,1.341450e+002
1.492682e+003,1.351010e+002
1.493646e+003,1.375967e+002
1.494610e+003,1.376569e+002
1.495574e+003,1.359842e+002
1.496538e+003,1.346658e+002
1.497503e+003,1.338886e+002
1.498467e+003,1.338159e+002
1.499431e+003,1.348653e+002
1.500395e+003,1.362642e+002
1.501360e+003,1.374359e+002
1.502324e+003,1.383302e+002
1.503288e+003,1.379626e+002
1.504252e+003,1.357238e+002
1.505217e+003,1.340065e+002
1.506181e+003,1.345446e+002
1.507145e+003,1.353876e+002
1.508109e+003,1.344883e+002
1.509073e+003,1.330444e+002
1.510038e+003,1.332279e+002
1.511002e+003,1.351328e+002
1.511966e+003,1.368868e+002
1.512930e+003,1.374239e+002
1.513895e+003,1.370702e+002
1.514859e+003,1.359622e+002
1.515823e+003,1.340060e+002
1.516787e+003,1.327147e+002
1.517752e+003,1.321108e+002
1.518716e+003,1.326539e+002
1.519680e+003,1.361024e+002
1.520644e+003,1.386391e+002
1.521609e+003,1.380125e+002
1.522573e+003,1.358664e+002
1.523537e+003,1.340746e+002
1.524501e+003,1.330592e+002
1.525465e+003,1.322730e+002
1.526430e+003,1.313361e+002
1.527394e+003,1.306085e+002
1.528358e+003,1.308589e+002
1.529322e+003,1.320149e+002
1.530287e+003,1.321026e+002
1.531251e+003,1.304724e+002
1.532215e+003,1.292201e+002
1.533179e+003,1.276823e+002
1.534144e+003,1.272282e+002
1.535108e+003,1.298810e+002
1.536072e+003,1.327286e+002
1.537036e+003,1.321993e+002
1.538000e+003,1.290368e+002
1.538965e+003,1.264650e+002
1.539929e+003,1.259158e+002
1.540893e+003,1.263360e+002
1.541857e+003,1.266575e+002
1.542822e+003,1.269719e+002
1.543786e+003,1.272490e+002
1.544750e+003,1.276097e+002
1.545714e+003,1.269638e+002
1.546679e+003,1.245040e+002
1.547643e+003,1.220494e+002
1.548607e+003,1.196803e+002
1.549571e+003,1.181765e+002
1.550536e+003,1.186858e+002
1.551500e+003,1.204013e+002
1.552464e+003,1.215174e+002
1.553428e+003,1.215751e+002
1.554392e+003,1.211464e+002
1.555357e+003,1.205447e+002
1.556321e+003,1.196384e+002
1.557285e+003,1.181083e+002
1.558249e+003,1.161257e+002
1.559214e+003,1.152390e+002
1.560178e+003,1.159321e+002
1.561142e+003,1.165047e+002
1.562106e+003,1.164562e+002
1.563071e+003,1.157604e+002
1.564035e+003,1.139697e+002
1.564999e+003,1.118647e+002
1.565963e+003,1.113756e+002
1.566927e+003,1.126304e+002
1.567892e+003,1.129023e+002
1.568856e+003,1.104136e+002
1.569820e+003,1.078812e+002
1.570784e+003,1.093721e+002
1.571749e+003,1.126871e+002
1.572713e+003,1.120498e+002
1.573677e+003,1.075922e+002
1.574641e+003,1.043312e+002
1.575606e+003,1.042223e+002
1.576570e+003,1.046590e+002
1.577534e+003,1.034117e+002
1.578498e+003,1.015294e+002
1.579463e+003,1.011568e+002
1.580427e+003,1.022133e+002
1.581391e+003,1.028592e+002
1.582355e+003,1.027591e+002
1.583319e+003,1.015434e+002
1.584284e+003,9.811020e+001
1.585248e+003,9.443019e+001
1.586212e+003,9.272434e+001
1.587176e+003,9.243680e+001
1.588141e+003,9.259402e+001
1.589105e+003,9.311998e+001
1.590069e+003,9.358708e+001
1.591033e+003,9.392332e+001
1.591998e+003,9.367190e+001
1.592962e+003,9.164644e+001
1.593926e+003,8.832112e+001
1.594890e+003,8.664065e+001
1.595854e+003,8.727392e+001
1.596819e+003,8.747041e+001
1.597783e+003,8.602803e+001
1.598747e+003,8.394876e+001
1.599711e+003,8.110078e+001
1.600676e+003,7.862025e+001
1.601640e+003,7.848467e+001
1.602604e+003,8.029511e+001
1.603568e+003,8.179771e+001
1.604533e+003,8.212243e+001
1.605497e+003,8.127840e+001
1.606461e+003,7.841085e+001
1.607425e+003,7.482870e+001
1.608390e+003,7.491081e+001
1.609354e+003,7.887803e+001
1.610318e+003,8.026091e+001
1.611282e+003,7.695024e+001
1.612246e+003,7.344511e+001
1.613211e+003,7.192448e+001
1.614175e+003,7.081435e+001
1.615139e+003,6.892845e+001
1.616103e+003,6.690210e+001
1.617068e+003,6.581281e+001
1.618032e+003,6.574834e+001
1.618996e+003,6.612779e+001
1.619960e+003,6.670405e+001
1.620925e+003,6.678187e+001
1.621889e+003,6.503918e+001
1.622853e+003,6.192625e+001
1.623817e+003,6.014253e+001
1.624781e+003,5.999703e+001
1.625746e+003,5.975703e+001
1.626710e+003,5.903370e+001
1.627674e+003,5.805661e+001
1.628638e+003,5.613874e+001
1.629603e+003,5.456951e+001
1.630567e+003,5.531377e+001
1.631531e+003,5.711064e+001
1.632495e+003,5.688226e+001
1.633460e+003,5.416392e+001
1.634424e+003,5.178214e+001
1.635388e+003,5.190717e+001
1.636352e+003,5.291174e+001
1.637317e+003,5.172381e+001
1.638281e+003,4.850373e+001
1.639245e+003,4.588248e+001
1.640209e+003,4.379193e+001
1.641173e+003,4.279446e+001
1.642138e+003,4.423807e+001
1.643102e+003,4.520258e+001
1.644066e+003,4.365319e+001
1.645030e+003,4.142692e+001
1.645995e+003,4.018041e+001
1.646959e+003,3.983532e+001
1.647923e+003,3.976500e+001
1.648887e+003,3.975565e+001
1.649852e+003,3.984594e+001
1.650816e+003,4.013330e+001
1.651780e+003,4.038578e+001
1.652744e+003,4.012883e+001
1.653708e+003,3.936412e+001
1.654673e+003,3.816423e+001
1.655637e+003,3.625143e+001
1.656601e+003,3.493307e+001
1.657565e+003,3.517860e+001
1.658530e+003,3.537791e+001
1.659494e+003,3.456236e+001
1.660458e+003,3.327297e+001
1.661422e+003,3.203231e+001
1.662387e+003,3.087277e+001
1.663351e+003,2.950164e+001
1.664315e+003,2.786774e+001
1.665279e+003,2.683962e+001
1.666244e+003,2.736599e+001
1.667208e+003,2.869950e+001
1.668172e+003,2.943995e+001
1.669136e+003,2.954874e+001
1.670100e+003,2.870230e+001
1.671065e+003,2.655428e+001
1.672029e+003,2.477803e+001
1.672993e+003,2.392860e+001
1.673957e+003,2.370485e+001
1.674922e+003,2.465045e+001
1.675886e+003,2.547289e+001
1.676850e+003,2.417421e+001
1.677814e+003,2.142355e+001
1.678779e+003,1.998747e+001
1.679743e+003,2.074406e+001
1.680707e+003,2.140146e+001
1.681671e+003,1.966872e+001
1.682635e+003,1.728503e+001
1.683600e+003,1.784376e+001
1.684564e+003,2.074773e+001
1.685528e+003,2.183361e+001
1.686492e+003,2.041434e+001
1.687457e+003,1.904899e+001
1.688421e+003,1.872498e+001
1.689385e+003,1.857132e+001
1.690349e+003,1.777036e+001
1.691314e+003,1.694778e+001
1.692278e+003,1.703518e+001
1.693242e+003,1.768743e+001
1.694206e+003,1.753455e+001
1.695171e+003,1.618191e+001
1.696135e+003,1.482882e+001
1.697099e+003,1.424875e+001
1.698063e+003,1.403627e+001
1.699027e+003,1.374738e+001
1.699992e+003,1.341594e+001
1.700956e+003,1.296340e+001
1.701920e+003,1.238534e+001
1.702884e+003,1.241877e+001
1.703849e+003,1.354949e+001
1.704813e+003,1.441478e+001
1.705777e+003,1.392941e+001
1.706741e+003,1.260974e+001
1.707706e+003,1.109532e+001
1.708670e+003,9.514468e+000
1.709634e+003,8.198486e+000
1.710598e+003,7.095001e+000
1.711563e+003,6.731409e+000
1.712527e+003,7.990750e+000
1.713491e+003,9.345523e+000
1.714455e+003,9.520966e+000
1.715419e+003,8.995633e+000
1.716384e+003,8.522665e+000
1.717348e+003,8.148068e+000
1.718312e+003,7.607297e+000
1.719276e+003,6.809115e+000
1.720241e+003,6.291110e+000
1.721205e+003,6.516574e+000
1.722169e+003,7.036874e+000
1.723133e+003,7.210999e+000
1.724098e+003,7.069644e+000
1.725062e+003,6.552646e+000
1.726026e+003,5.455545e+000
1.726990e+003,4.668463e+000
1.727954e+003,4.225845e+000
1.728919e+003,4.257989e+000
1.729883e+003,5.489166e+000
1.730847e+003,6.668134e+000
1.731811e+003,6.189789e+000
1.732776e+003,4.742670e+000
1.733740e+003,4.220609e+000
1.734704e+003,4.833560e+000
1.735668e+003,4.933670e+000
1.736633e+003,3.561899e+000
1.737597e+003,1.784515e+000
1.738561e+003,9.793793e-001
1.739525e+003,1.089404e+000
1.740490e+003,1.805707e+000
1.741454e+003,3.508170e+000
1.742418e+003,4.281317e+000
1.743382e+003,3.511606e+000
1.744346e+003,2.775424e+000
1.745311e+003,2.308395e+000
1.746275e+003,1.947153e+000
1.747239e+003,1.398077e+000
1.748203e+003,1.066434e+000
1.749168e+003,1.755600e+000
1.750132e+003,3.093640e+000
1.751096e+003,3.894897e+000
1.752060e+003,3.693149e+000
1.753025e+003,2.956442e+000
1.753989e+003,2.112466e+000
1.754953e+003,1.179776e+000
1.755917e+003,8.005066e-002
1.756881e+003,-1.210117e+000
1.757846e+003,-1.540543e+000
1.758810e+003,-4.730102e-001
1.759774e+003,4.186493e-001
1.760738e+003,9.456329e-001
1.761703e+003,1.107031e+000
1.762667e+003,6.323578e-001
1.763631e+003,7.424927e-002
1.764595e+003,8.416443e-002
1.765560e+003,2.819549e-001
1.766524e+003,-1.952087e-001
1.767488e+003,-1.389621e+000
1.768452e+003,-2.623459e+000
1.769417e+003,-3.607166e+000
1.770381e+003,-3.750037e+000
1.771345e+003,-1.555734e+000
1.772309e+003,1.563239e+000
1.773273e+003,1.614496e+000
1.774238e+003,-1.100479e+000
1.775202e+003,-2.851584e+000
1.776166e+003,-3.055933e+000
1.777130e+003,-2.813968e+000
1.778095e+003,-2.455051e+000
1.779059e+003,-1.926489e+000
1.780023e+003,-9.171631e-001
1.780987e+003,7.601623e-002
1.781952e+003,1.713440e-001
1.782916e+003,-5.328308e-001
1.783880e+003,-1.463422e+000
1.784844e+003,-2.680191e+000
1.785808e+003,-3.215118e+000
1.786773e+003,-2.153610e+000
1.787737e+003,-8.567444e-001
1.788701e+003,-3.496002e-001
1.789665e+003,-3.034943e-001
1.790630e+003,-1.640259e-001
1.791594e+003,-7.205200e-003
1.792558e+003,-3.834198e-001
1.793522e+003,-1.378622e+000
1.794487e+003,-2.342597e+000
1.795451e+003,-2.880057e+000
1.796415e+003,-2.778592e+000
1.797379e+003,-1.619568e+000
1.798344e+003,1.960510e-001
1.799308e+003,7.650726e-001
1.800272e+003,-3.872589e-001
1.801236e+003,-1.071149e+000
1.802201e+003,-6.705658e-001
1.803165e+003,-6.860687e-001
1.804129e+003,-1.753986e+000
1.805093e+003,-2.789651e+000
1.806057e+003,-3.366486e+000
1.807022e+003,-3.508536e+000
1.807986e+003,-3.171277e+000
1.808950e+003,-2.481876e+000
1.809914e+003,-1.456851e+000
1.810879e+003,-2.980835e-001
1.811843e+003,9.643555e-002
1.812807e+003,-9.789978e-001
1.813771e+003,-2.507761e+000
1.814736e+003,-2.821677e+000
1.815700e+003,-2.122595e+000
1.816664e+003,-1.577017e+000
1.817628e+003,-1.170209e+000
1.818593e+003,-1.238586e+000
1.819557e+003,-2.097501e+000
1.820521e+003,-2.485748e+000
1.821485e+003,-1.520538e+000
1.822449e+003,-5.409546e-001
1.823414e+003,-5.905640e-001
1.824378e+003,-1.219186e+000
1.825342e+003,-2.070908e+000
1.826306e+003,-2.936362e+000
1.827271e+003,-3.257809e+000
1.828235e+003,-2.904809e+000
1.829199e+003,-2.144428e+000
1.830163e+003,-7.138336e-001
1.831128e+003,6.080017e-001
1.832092e+003,1.206982e+000
1.833056e+003,1.219482e+000
1.834020e+003,6.108826e-001
1.834984e+003,-3.805267e-001
1.835949e+003,-1.031421e+000
1.836913e+003,-1.162268e+000
1.837877e+003,-9.844635e-001
1.838841e+003,-6.088959e-001
1.839806e+003,-3.346924e-001
1.840770e+003,-5.243683e-001
1.841734e+003,-1.022903e+000
1.842698e+003,-1.359872e+000
1.843663e+003,-1.550015e+000
1.844627e+003,-1.083154e+000
1.845591e+003,1.009415e+000
1.846555e+003,2.177475e+000
1.847520e+003,2.186908e+000
1.848484e+003,1.404260e+000
1.849448e+003,-1.008713e+000
1.850412e+003,-3.143365e+000
1.851376e+003,-3.214865e+000
1.852341e+003,-2.035758e+000
1.853305e+003,-9.831451e-001
1.854269e+003,-3.898804e-001
1.855233e+003,2.864990e-002
1.856198e+003,4.234741e-001
1.857162e+003,5.803803e-001
1.858126e+003,1.355103e-001
1.859090e+003,-4.261871e-001
1.860055e+003,9.810486e-002
1.861019e+003,1.396695e+000
1.861983e+003,1.611761e+000
1.862947e+003,6.255585e-001
1.863911e+003,7.574463e-002
1.864876e+003,4.516693e-001
1.865840e+003,9.821533e-001
1.866804e+003,1.309988e+000
1.867768e+003,1.429364e+000
1.868733e+003,1.019760e+000
1.869697e+003,4.844666e-001
1.870661e+003,1.239948e+000
1.871625e+003,3.294342e+000
1.872590e+003,4.737509e+000
1.873554e+003,5.439676e+000
1.874518e+003,5.407758e+000
1.875482e+003,4.019141e+000
1.876447e+003,2.674170e+000
1.877411e+003,2.270807e+000
1.878375e+003,2.339652e+000
1.879339e+003,2.383261e+000
1.880303e+003,2.322257e+000
1.881268e+003,2.205142e+000
1.882232e+003,2.064389e+000
1.883196e+003,1.820041e+000
1.884160e+003,1.479813e+000
1.885125e+003,1.618454e+000
1.886089e+003,2.960577e+000
1.887053e+003,4.859384e+000
1.888017e+003,5.456351e+000
1.888982e+003,4.745496e+000
1.889946e+003,4.410925e+000
1.890910e+003,4.577194e+000
1.891874e+003,4.458167e+000
1.892839e+003,3.515430e+000
1.893803e+003,3.158585e+000
1.894767e+003,4.771161e+000
1.895731e+003,6.421720e+000
1.896695e+003,6.042099e+000
1.897660e+003,4.670611e+000
1.898624e+003,3.908908e+000
1.899588e+003,3.803317e+000
1.900552e+003,4.077988e+000
1.901517e+003,4.843338e+000
1.902481e+003,5.254443e+000
1.903445e+003,4.565948e+000
1.904409e+003,3.980478e+000
1.905374e+003,4.560400e+000
1.906338e+003,5.497534e+000
1.907302e+003,5.895959e+000
1.908266e+003,5.746445e+000
1.909230e+003,5.002048e+000
1.910195e+003,3.957785e+000
1.911159e+003,3.565509e+000
1.912123e+003,4.246167e+000
1.913087e+003,5.527237e+000
1.914052e+003,6.979215e+000
1.915016e+003,8.284686e+000
1.915980e+003,8.826947e+000
1.916944e+003,8.631012e+000
1.917909e+003,7.814981e+000
1.918873e+003,6.184918e+000
1.919837e+003,5.299960e+000
1.920801e+003,5.682184e+000
1.921766e+003,5.714365e+000
1.922730e+003,4.472470e+000
1.923694e+003,3.216428e+000
1.924658e+003,2.862256e+000
1.925622e+003,3.039728e+000
1.926587e+003,3.407407e+000
1.927551e+003,3.934268e+000
1.928515e+003,4.688974e+000
1.929479e+003,5.776315e+000
1.930444e+003,5.900174e+000
1.931408e+003,3.762552e+000
1.932372e+003,1.963001e+000
1.933336e+003,1.895364e+000
1.934301e+003,2.450998e+000
1.935265e+003,2.945935e+000
1.936229e+003,3.347815e+000
1.937193e+003,3.626660e+000
1.938157e+003,3.826639e+000
1.939122e+003,4.132443e+000
1.940086e+003,4.554297e+000
1.941050e+003,4.799936e+000
1.942014e+003,4.688025e+000
1.942979e+003,4.459754e+000
1.943943e+003,4.435935e+000
1.944907e+003,4.540408e+000
1.945871e+003,4.452456e+000
1.946836e+003,4.224576e+000
1.947800e+003,4.664160e+000
1.948764e+003,5.900070e+000
1.949728e+003,6.135999e+000
1.950693e+003,4.572391e+000
1.951657e+003,3.701984e+000
1.952621e+003,5.321149e+000
1.953585e+003,6.987830e+000
1.954549e+003,6.054288e+000
1.955514e+003,3.739914e+000
1.956478e+003,2.462729e+000
1.957442e+003,2.217316e+000
1.958406e+003,3.126834e+000
1.959371e+003,5.916748e+000
1.960335e+003,7.777036e+000
1.961299e+003,7.585666e+000
1.962263e+003,7.495346e+000
1.963228e+003,8.634952e+000
1.964192e+003,9.665121e+000
1.965156e+003,9.459491e+000
1.966120e+003,8.708796e+000
1.967084e+003,8.282031e+000
1.968049e+003,8.225659e+000
1.969013e+003,8.133441e+000
1.969977e+003,7.957031e+000
1.970941e+003,8.350125e+000
1.971906e+003,9.777212e+000
1.972870e+003,1.090133e+001
1.973834e+003,1.020301e+001
1.974798e+003,8.420889e+000
1.975763e+003,6.000531e+000
1.976727e+003,3.687335e+000
1.977691e+003,4.543152e+000
1.978655e+003,8.097000e+000
1.979620e+003,9.950317e+000
1.980584e+003,9.151346e+000
1.981548e+003,7.828921e+000
1.982512e+003,7.026544e+000
1.983476e+003,6.688019e+000
1.984441e+003,6.825311e+000
1.985405e+003,7.201758e+000
1.986369e+003,7.254782e+000
1.987333e+003,7.020111e+000
1.988298e+003,6.811087e+000
1.989262e+003,6.334244e+000
1.990226e+003,6.621280e+000
1.991190e+003,8.370163e+000
1.992155e+003,9.704706e+000
1.993119e+003,1.039294e+001
1.994083e+003,1.030901e+001
1.995047e+003,8.358423e+000
1.996011e+003,6.404974e+000
1.996976e+003,7.044473e+000
1.997940e+003,9.043979e+000
1.998904e+003,8.943857e+000
1.999868e+003,6.573443e+000
2.000833e+003,5.851953e+000
2.001797e+003,8.610059e+000
2.002761e+003,1.081052e+001
2.003725e+003,1.038909e+001
2.004690e+003,9.496610e+000
2.005654e+003,9.204523e+000
2.006618e+003,9.400263e+000
2.007582e+003,1.027002e+001
2.008547e+003,1.131830e+001
2.009511e+003,1.163755e+001
2.010475e+003,1.136104e+001
2.011439e+003,1.156450e+001
2.012403e+003,1.247615e+001
2.013368e+003,1.283896e+001
2.014332e+003,1.172657e+001
2.015296e+003,9.995117e+000
2.016260e+003,8.492905e+000
2.017225e+003,7.416327e+000
2.018189e+003,7.339322e+000
2.019153e+003,8.056356e+000
2.020117e+003,8.798078e+000
2.021082e+003,9.500177e+000
2.022046e+003,1.054657e+001
2.023010e+003,1.203341e+001
2.023974e+003,1.281155e+001
2.024938e+003,1.218390e+001
2.025903e+003,1.105907e+001
2.026867e+003,1.036459e+001
2.027831e+003,9.987470e+000
2.028795e+003,9.686975e+000
2.029760e+003,9.497500e+000
2.030724e+003,9.367178e+000
2.031688e+003,9.254541e+000
2.032652e+003,9.119064e+000
2.033617e+003,9.067535e+000
2.034581e+003,8.767492e+000
2.035545e+003,7.713660e+000
2.036509e+003,7.183618e+000
2.037474e+003,8.174789e+000
2.038438e+003,9.598795e+000
2.039402e+003,1.060833e+001
2.040366e+003,1.115858e+001
2.041330e+003,1.096280e+001
2.042295e+003,1.007634e+001
2.043259e+003,9.541098e+000
2.044223e+003,9.541052e+000
2.045187e+003,9.696902e+000
2.046152e+003,1.033213e+001
2.047116e+003,1.052991e+001
2.048080e+003,9.537622e+000
2.049044e+003,8.385757e+000
2.050009e+003,7.754529e+000
2.050973e+003,7.483362e+000
2.051937e+003,7.422284e+000
2.052901e+003,7.465460e+000
2.053865e+003,7.541565e+000
2.054830e+003,7.543088e+000
2.055794e+003,7.016144e+000
2.056758e+003,5.660150e+000
2.057722e+003,4.851547e+000
2.058687e+003,6.115939e+000
2.059651e+003,7.818067e+000
2.060615e+003,8.364209e+000
2.061579e+003,8.304443e+000
2.062544e+003,8.344156e+000
2.063508e+003,8.502933e+000
2.064472e+003,8.539291e+000
2.065436e+003,8.509165e+000
2.066401e+003,8.971079e+000
2.067365e+003,9.903116e+000
2.068329e+003,1.002035e+001
2.069293e+003,8.549258e+000
2.070258e+003,7.069684e+000
2.071222e+003,7.544717e+000
2.072186e+003,9.076197e+000
2.073150e+003,9.723251e+000
2.074115e+003,9.689548e+000
2.075079e+003,9.804749e+000
2.076043e+003,1.005521e+001
2.077007e+003,1.045248e+001
2.077971e+003,1.100209e+001
2.078936e+003,1.102987e+001
2.079900e+003,1.026021e+001
2.080864e+003,9.284246e+000
2.081828e+003,8.480176e+000
2.082792e+003,8.164801e+000
2.083757e+003,8.863223e+000
2.084721e+003,1.019571e+001
2.085685e+003,1.083228e+001
2.086649e+003,1.076090e+001
2.087614e+003,1.078766e+001
2.088578e+003,1.097498e+001
2.089542e+003,1.100685e+001
2.090506e+003,1.090177e+001
2.091471e+003,1.017910e+001
2.092435e+003,8.220118e+000
2.093399e+003,6.819891e+000
2.094363e+003,7.383197e+000
2.095328e+003,8.795154e+000
2.096292e+003,9.729263e+000
2.097256e+003,1.022471e+001
2.098220e+003,1.049203e+001
2.099185e+003,1.056526e+001
2.100149e+003,1.060725e+001
2.101113e+003,1.054471e+001
2.102077e+003,1.049431e+001
2.103042e+003,1.074376e+001
2.104006e+003,1.058682e+001
2.104970e+003,9.084928e+000
2.105934e+003,8.097717e+000
2.106898e+003,9.192019e+000
2.107863e+003,1.076945e+001
2.108827e+003,1.112989e+001
2.109791e+003,1.076271e+001
2.110755e+003,1.079964e+001
2.111719e+003,1.127697e+001
2.112684e+003,1.177471e+001
2.113648e+003,1.239998e+001
2.114612e+003,1.263906e+001
2.115576e+003,1.245485e+001
2.116541e+003,1.168610e+001
2.117505e+003,9.198975e+000
2.118469e+003,7.418298e+000
2.119433e+003,8.721021e+000
2.120398e+003,1.076129e+001
2.121362e+003,1.096738e+001
2.122326e+003,9.991397e+000
2.123290e+003,9.256113e+000
2.124255e+003,9.095358e+000
2.125219e+003,9.752390e+000
2.126183e+003,1.135891e+001
2.127147e+003,1.272086e+001
2.128112e+003,1.347941e+001
2.129076e+003,1.363345e+001
2.130040e+003,1.252695e+001
2.131004e+003,1.149831e+001
2.131969e+003,1.215861e+001
2.132933e+003,1.297668e+001
2.133897e+003,1.155889e+001
2.134861e+003,9.308322e+000
2.135825e+003,9.349243e+000
2.136790e+003,1.132213e+001
2.137754e+003,1.220226e+001
2.138718e+003,1.111735e+001
2.139682e+003,9.928113e+000
2.140646e+003,9.628357e+000
2.141611e+003,9.777441e+000
2.142575e+003,1.009599e+001
2.143539e+003,1.052991e+001
2.144503e+003,1.140171e+001
2.145468e+003,1.215447e+001
2.146432e+003,1.150157e+001
2.147396e+003,1.033177e+001
2.148360e+003,1.091103e+001
2.149325e+003,1.274511e+001
2.150289e+003,1.292106e+001
2.151253e+003,1.096958e+001
2.152217e+003,9.998154e+000
2.153182e+003,1.181674e+001
2.154146e+003,1.414991e+001
2.155110e+003,1.526490e+001
2.156074e+003,1.512733e+001
2.157039e+003,1.258906e+001
2.158003e+003,9.476913e+000
2.158967e+003,8.953302e+000
2.159931e+003,1.029326e+001
2.160896e+003,1.209234e+001
2.161860e+003,1.370089e+001
2.162824e+003,1.383267e+001
2.163788e+003,1.254835e+001
2.164752e+003,1.178329e+001
2.165717e+003,1.247105e+001
2.166681e+003,1.342844e+001
2.167645e+003,1.357442e+001
2.168609e+003,1.370105e+001
2.169573e+003,1.563672e+001
2.170538e+003,1.788295e+001
2.171502e+003,1.693116e+001
2.172466e+003,1.411343e+001
2.173430e+003,1.264512e+001
2.174395e+003,1.252191e+001
2.175359e+003,1.271509e+001
2.176323e+003,1.289683e+001
2.177287e+003,1.288250e+001
2.178252e+003,1.260665e+001
2.179216e+003,1.215696e+001
2.180180e+003,1.160673e+001
2.181144e+003,1.145185e+001
2.182109e+003,1.241749e+001
2.183073e+003,1.387599e+001
2.184037e+003,1.487678e+001
2.185001e+003,1.532590e+001
2.185966e+003,1.474962e+001
2.186930e+003,1.351667e+001
2.187894e+003,1.261195e+001
2.188858e+003,1.217536e+001
2.189823e+003,1.205120e+001
2.190787e+003,1.212731e+001
2.191751e+003,1.243185e+001
2.192715e+003,1.298058e+001
2.193679e+003,1.305514e+001
2.194644e+003,1.178329e+001
2.195608e+003,1.050567e+001
2.196572e+003,1.209197e+001
2.197536e+003,1.494890e+001
2.198500e+003,1.488069e+001
2.199465e+003,1.288536e+001
2.200429e+003,1.168084e+001
2.201393e+003,1.141398e+001
2.202357e+003,1.166120e+001
2.203322e+003,1.226298e+001
2.204286e+003,1.338409e+001
2.205250e+003,1.485802e+001
2.206214e+003,1.472913e+001
2.207179e+003,1.165618e+001
2.208143e+003,8.737964e+000
2.209107e+003,9.935559e+000
2.210071e+003,1.294745e+001
2.211036e+003,1.332654e+001
2.212000e+003,1.237474e+001
2.212964e+003,1.383548e+001
2.213928e+003,1.655827e+001
2.214893e+003,1.627874e+001
2.215857e+003,1.361577e+001
2.216821e+003,1.303541e+001
2.217785e+003,1.520380e+001
2.218750e+003,1.665656e+001
2.219714e+003,1.590602e+001
2.220678e+003,1.553567e+001
2.221642e+003,1.774556e+001
2.222606e+003,2.053907e+001
2.223571e+003,2.120508e+001
2.224535e+003,2.071088e+001
2.225499e+003,2.044215e+001
2.226463e+003,2.055319e+001
2.227427e+003,2.150165e+001
2.228392e+003,2.306703e+001
2.229356e+003,2.496650e+001
2.230320e+003,2.683890e+001
2.231284e+003,2.748253e+001
2.232249e+003,2.689384e+001
2.233213e+003,2.695385e+001
2.234177e+003,2.864526e+001
2.235141e+003,3.116467e+001
2.236106e+003,3.394533e+001
2.237070e+003,3.682488e+001
2.238034e+003,3.988797e+001
2.238998e+003,4.257731e+001
2.239963e+003,4.365543e+001
2.240927e+003,4.421169e+001
2.241891e+003,4.659126e+001
2.242855e+003,4.985703e+001
2.243820e+003,5.087867e+001
2.244784e+003,5.031089e+001
2.245748e+003,5.227687e+001
2.246712e+003,5.749058e+001
2.247677e+003,6.213624e+001
2.248641e+003,6.427556e+001
2.249605e+003,6.502599e+001
2.250569e+003,6.457524e+001
2.251533e+003,6.407538e+001
2.252498e+003,6.472935e+001
2.253462e+003,6.569371e+001
2.254426e+003,6.656162e+001
2.255390e+003,6.684184e+001
2.256354e+003,6.575488e+001
2.257319e+003,6.367942e+001
2.258283e+003,6.126279e+001
2.259247e+003,5.875590e+001
2.260211e+003,5.643898e+001
2.261176e+003,5.429605e+001
2.262140e+003,5.139162e+001
2.263104e+003,4.692228e+001
2.264068e+003,4.311262e+001
2.265033e+003,4.158684e+001
2.265997e+003,4.059616e+001
2.266961e+003,3.971022e+001
2.267925e+003,3.823724e+001
2.268890e+003,3.517713e+001
2.269854e+003,3.167427e+001
2.270818e+003,2.856094e+001
2.271782e+003,2.622617e+001
2.272747e+003,2.560623e+001
2.273711e+003,2.611987e+001
2.274675e+003,2.534835e+001
2.275639e+003,2.280399e+001
2.276604e+003,2.101085e+001
2.277568e+003,2.143027e+001
2.278532e+003,2.092005e+001
2.279496e+003,1.696080e+001
2.280460e+003,1.429576e+001
2.281425e+003,1.622503e+001
2.282389e+003,1.800072e+001
2.283353e+003,1.656982e+001
2.284317e+003,1.409688e+001
2.285281e+003,1.233121e+001
2.286246e+003,1.115000e+001
2.287210e+003,1.018969e+001
2.288174e+003,9.459778e+000
2.289138e+003,9.314410e+000
2.290103e+003,1.005411e+001
2.291067e+003,9.802485e+000
2.292031e+003,7.709455e+000
2.292995e+003,6.274878e+000
2.293960e+003,5.508942e+000
2.294924e+003,5.528961e+000
2.295888e+003,6.801389e+000
2.296852e+003,8.095398e+000
2.297817e+003,8.975711e+000
2.298781e+003,9.387049e+000
2.299745e+003,9.248209e+000
2.300709e+003,8.690683e+000
2.301674e+003,7.784708e+000
2.302638e+003,6.652231e+000
2.303602e+003,6.038940e+000
2.304566e+003,5.979745e+000
2.305531e+003,5.356537e+000
2.306495e+003,4.023200e+000
2.307459e+003,3.863617e+000
2.308423e+003,5.238907e+000
2.309387e+003,5.613370e+000
2.310352e+003,4.254596e+000
2.311316e+003,2.725623e+000
2.312280e+003,1.760748e+000
2.313244e+003,1.769876e+000
2.314208e+003,3.139557e+000
2.315173e+003,4.841214e+000
2.316137e+003,5.475589e+000
2.317101e+003,5.155398e+000
2.318065e+003,3.599396e+000
2.319030e+003,1.477780e+000
2.319994e+003,1.989600e+000
2.320958e+003,4.333585e+000
2.321922e+003,4.960861e+000
2.322887e+003,3.973886e+000
2.323851e+003,3.739554e+000
2.324815e+003,4.499042e+000
2.325779e+003,4.552530e+000
2.326744e+003,3.328412e+000
2.327708e+003,1.831216e+000
2.328672e+003,6.744049e-001
2.329636e+003,-3.765259e-002
2.330601e+003,2.551880e-002
2.331565e+003,2.168518e-001
2.332529e+003,-3.092316e-001
2.333493e+003,-9.957184e-001
2.334458e+003,-1.194211e+000
2.335422e+003,-1.135040e+000
2.336386e+003,-1.190961e+000
2.337350e+003,-1.214572e+000
2.338314e+003,-6.666046e-001
2.339279e+003,1.400330e-001
2.340243e+003,9.591980e-002
2.341207e+003,-9.079498e-001
2.342171e+003,-1.669720e+000
2.343135e+003,-1.768988e+000
2.344100e+003,-1.774170e+000
2.345064e+003,-1.612747e+000
2.346028e+003,-1.843674e+000
2.346992e+003,-3.148370e+000
2.347957e+003,-4.187631e+000
2.348921e+003,-4.255771e+000
2.349885e+003,-3.899948e+000
2.350849e+003,-3.419989e+000
2.351814e+003,-2.880823e+000
2.352778e+003,-2.202405e+000
2.353742e+003,-1.529483e+000
2.354706e+003,-1.160266e+000
2.355671e+003,-1.071036e+000
2.356635e+003,-1.339233e+000
2.357599e+003,-2.108353e+000
2.358563e+003,-2.699954e+000
2.359528e+003,-3.090225e+000
2.360492e+003,-3.455707e+000
2.361456e+003,-3.863580e+000
2.362420e+003,-3.876483e+000
2.363385e+003,-3.223767e+000
2.364349e+003,-3.029794e+000
2.365313e+003,-4.003961e+000
2.366277e+003,-4.795129e+000
2.367241e+003,-4.105414e+000
2.368206e+003,-2.882556e+000
2.369170e+003,-2.643570e+000
2.370134e+003,-3.121487e+000
2.371098e+003,-3.602737e+000
2.372063e+003,-4.102228e+000
2.373027e+003,-4.856692e+000
2.373991e+003,-5.605927e+000
2.374955e+003,-5.243036e+000
2.375919e+003,-4.031579e+000
2.376884e+003,-3.256335e+000
2.377848e+003,-3.111118e+000
2.378812e+003,-2.918216e+000
2.379776e+003,-2.505289e+000
2.380741e+003,-2.653049e+000
2.381705e+003,-3.823849e+000
2.382669e+003,-4.580490e+000
2.383633e+003,-3.640463e+000
2.384598e+003,-2.246194e+000
2.385562e+003,-7.490600e-001
2.386526e+003,-1.910095e-002
2.387490e+003,-1.484921e+000
2.388455e+003,-3.244244e+000
2.389419e+003,-3.089636e+000
2.390383e+003,-2.368262e+000
2.391347e+003,-3.325555e+000
2.392312e+003,-5.213376e+000
2.393276e+003,-5.857425e+000
2.394240e+003,-5.243009e+000
2.395204e+003,-5.093585e+000
2.396168e+003,-5.808939e+000
2.397133e+003,-5.849500e+000
2.398097e+003,-4.572009e+000
2.399061e+003,-3.738437e+000
2.400025e+003,-3.456122e+000
2.400990e+003,-3.643375e+000
2.401954e+003,-4.673017e+000
2.402918e+003,-5.125250e+000
2.403882e+003,-4.166089e+000
2.404846e+003,-3.038217e+000
2.405811e+003,-2.803565e+000
2.406775e+003,-2.587451e+000
2.407739e+003,-1.032230e+000
2.408703e+003,9.376556e-001
2.409668e+003,4.868347e-001
2.410632e+003,-1.673730e+000
2.411596e+003,-1.661392e+000
2.412560e+003,-6.711121e-002
2.413525e+003,6.696380e-001
2.414489e+003,5.345672e-001
2.415453e+003,2.002380e-001
2.416417e+003,-1.694305e-001
2.417382e+003,-6.793121e-001
2.418346e+003,-1.299185e+000
2.419310e+003,-1.743896e+000
2.420274e+003,-1.877151e+000
2.421239e+003,-1.598337e+000
2.422203e+003,-5.911865e-001
2.423167e+003,-1.953430e-002
2.424131e+003,-1.381284e+000
2.425095e+003,-2.554199e+000
2.426060e+003,-1.637717e+000
2.427024e+003,-6.041778e-001
2.427988e+003,-1.504010e+000
2.428952e+003,-2.506564e+000
2.429917e+003,-1.268228e+000
2.430881e+003,8.183472e-001
2.431845e+003,1.342358e+000
2.432809e+003,6.876160e-001
2.433773e+003,7.912537e-001
2.434738e+003,1.677942e+000
2.435702e+003,1.912973e+000
2.436666e+003,1.249960e+000
2.437630e+003,8.078644e-001
2.438595e+003,4.716522e-001
2.439559e+003,8.701996e-001
2.440523e+003,2.238635e+000
2.441487e+003,3.461890e+000
2.442452e+003,4.187879e+000
2.443416e+003,4.625687e+000
2.444380e+003,4.892459e+000
2.445344e+003,4.684570e+000
2.446309e+003,3.718378e+000
2.447273e+003,2.768323e+000
2.448237e+003,2.634955e+000
2.449201e+003,3.556201e+000
2.450166e+003,7.432944e+000
2.451130e+003,1.143906e+001
2.452094e+003,9.836847e+000
2.453058e+003,6.009192e+000
2.454022e+003,5.506256e+000
2.454987e+003,6.918878e+000
2.455951e+003,7.012820e+000
2.456915e+003,5.824188e+000
2.457879e+003,4.493430e+000
2.458844e+003,3.438879e+000
2.459808e+003,3.264774e+000
2.460772e+003,4.163556e+000
2.461736e+003,5.298276e+000
2.462700e+003,6.590057e+000
2.463665e+003,7.853436e+000
2.464629e+003,9.961752e+000
2.465593e+003,1.060636e+001
2.466557e+003,8.357577e+000
2.467522e+003,6.601737e+000
2.468486e+003,6.983420e+000
2.469450e+003,7.430862e+000
2.470414e+003,6.382358e+000
2.471379e+003,5.191123e+000
2.472343e+003,5.447098e+000
2.473307e+003,6.621362e+000
2.474271e+003,7.794565e+000
2.475236e+003,8.838175e+000
2.476200e+003,9.195639e+000
2.477164e+003,9.125336e+000
2.478128e+003,9.566345e+000
2.479093e+003,1.018483e+001
2.480057e+003,9.611011e+000
2.481021e+003,8.411657e+000
2.481985e+003,8.554672e+000
2.482949e+003,1.000451e+001
2.483914e+003,1.142122e+001
2.484878e+003,1.229224e+001
2.485842e+003,1.208433e+001
2.486806e+003,1.032917e+001
2.487771e+003,9.126782e+000
2.488735e+003,9.493805e+000
2.489699e+003,1.011790e+001
2.490663e+003,1.060961e+001
2.491627e+003,1.131124e+001
2.492592e+003,1.266817e+001
2.493556e+003,1.387143e+001
2.494520e+003,1.473561e+001
2.495484e+003,1.485146e+001
2.496449e+003,1.350131e+001
2.497413e+003,1.211360e+001
2.498377e+003,1.295668e+001
2.499341e+003,1.486017e+001
2.500306e+003,1.448011e+001
2.501270e+003,1.256980e+001
2.502234e+003,1.282269e+001
2.503198e+003,1.448899e+001
2.504163e+003,1.479125e+001
2.505127e+003,1.407307e+001
2.506091e+003,1.388040e+001
2.507055e+003,1.423519e+001
2.508020e+003,1.436278e+001
2.508984e+003,1.429163e+001
2.509948e+003,1.491816e+001
2.510912e+003,1.637816e+001
2.511876e+003,1.711481e+001
2.512841e+003,1.621868e+001
2.513805e+003,1.592704e+001
2.514769e+003,1.708992e+001
2.515733e+003,1.873596e+001
2.516698e+003,2.169950e+001
2.517662e+003,2.336480e+001
2.518626e+003,2.199620e+001
2.519590e+003,2.113094e+001
2.520554e+003,2.267836e+001
2.521519e+003,2.501754e+001
2.522483e+003,2.687789e+001
2.523447e+003,2.823489e+001
2.524411e+003,2.899479e+001
2.525376e+003,2.966162e+001
2.526340e+003,3.169631e+001
2.527304e+003,3.439611e+001
2.528268e+003,3.551516e+001
2.529233e+003,3.562458e+001
2.530197e+003,3.551655e+001
2.531161e+003,3.581609e+001
2.532125e+003,3.817933e+001
2.533090e+003,4.162415e+001
2.534054e+003,4.368416e+001
2.535018e+003,4.417092e+001
2.535982e+003,4.389359e+001
2.536947e+003,4.315733e+001
2.537911e+003,4.377933e+001
2.538875e+003,4.686347e+001
2.539839e+003,4.926688e+001
2.540803e+003,5.008855e+001
2.541768e+003,5.100758e+001
2.542732e+003,5.219464e+001
2.543696e+003,5.316041e+001
2.544660e+003,5.350060e+001
2.545625e+003,5.556760e+001
2.546589e+003,6.076931e+001
2.547553e+003,6.463565e+001
2.548517e+003,6.359932e+001
2.549482e+003,6.113738e+001
2.550446e+003,6.140287e+001
2.551410e+003,6.244696e+001
2.552374e+003,6.082450e+001
2.553339e+003,5.835972e+001
2.554303e+003,5.800355e+001
2.555267e+003,5.825587e+001
2.556231e+003,5.687100e+001
2.557196e+003,5.505192e+001
2.558160e+003,5.519520e+001
2.559124e+003,5.579412e+001
2.560088e+003,5.354057e+001
2.561052e+003,4.936894e+001
2.562017e+003,4.707903e+001
2.562981e+003,4.678664e+001
2.563945e+003,4.658775e+001
2.564909e+003,4.671293e+001
2.565874e+003,4.547679e+001
2.566838e+003,4.273233e+001
2.567802e+003,3.989475e+001
2.568766e+003,3.710433e+001
2.569730e+003,3.574102e+001
2.570695e+003,3.591418e+001
2.571659e+003,3.576056e+001
2.572623e+003,3.472016e+001
2.573587e+003,3.433863e+001
2.574552e+003,3.536801e+001
2.575516e+003,3.538787e+001
2.576480e+003,3.247400e+001
2.577444e+003,2.908273e+001
2.578409e+003,2.612038e+001
2.579373e+003,2.398013e+001
2.580337e+003,2.378605e+001
2.581301e+003,2.347715e+001
2.582266e+003,2.136728e+001
2.583230e+003,1.941954e+001
2.584194e+003,1.902575e+001
2.585158e+003,1.922979e+001
2.586123e+003,1.935810e+001
2.587087e+003,1.900021e+001
2.588051e+003,1.724634e+001
2.589015e+003,1.485267e+001
2.589979e+003,1.440864e+001
2.590944e+003,1.525001e+001
2.591908e+003,1.470958e+001
2.592872e+003,1.331829e+001
2.593836e+003,1.220009e+001
2.594801e+003,1.153877e+001
2.595765e+003,1.195402e+001
2.596729e+003,1.268855e+001
2.597693e+003,1.160686e+001
2.598657e+003,9.131619e+000
2.599622e+003,8.117068e+000
2.600586e+003,9.047510e+000
2.601550e+003,9.266012e+000
2.602514e+003,7.866446e+000
2.603479e+003,7.292600e+000
2.604443e+003,7.964078e+000
2.605407e+003,8.209341e+000
2.606371e+003,7.927603e+000
2.607336e+003,7.027579e+000
2.608300e+003,5.464041e+000
2.609264e+003,4.814215e+000
2.610228e+003,5.566354e+000
2.611193e+003,5.990952e+000
2.612157e+003,5.133695e+000
2.613121e+003,4.500268e+000
2.614085e+003,5.390185e+000
2.615050e+003,6.295819e+000
2.616014e+003,5.796219e+000
2.616978e+003,5.056760e+000
2.617942e+003,4.995941e+000
2.618906e+003,4.795035e+000
2.619871e+003,3.815155e+000
2.620835e+003,2.620212e+000
2.621799e+003,1.433719e+000
2.622763e+003,4.510620e-001
2.623728e+003,-1.561798e-001
2.624692e+003,-3.569244e-001
2.625656e+003,-8.216552e-002
2.626620e+003,5.499115e-001
2.627584e+003,1.311578e+000
2.628549e+003,2.127170e+000
2.629513e+003,2.904449e+000
2.630477e+003,3.440506e+000
2.631441e+003,2.989459e+000
2.632406e+003,2.118018e+000
2.633370e+003,2.117822e+000
2.634334e+003,2.542264e+000
2.635298e+003,1.981223e+000
2.636263e+003,7.484589e-001
2.637227e+003,4.445129e-001
2.638191e+003,1.236047e+000
2.639155e+003,1.981531e+000
2.640120e+003,2.702872e+000
2.641084e+003,2.856210e+000
2.642048e+003,2.149570e+000
2.643012e+003,2.753607e+000
2.643977e+003,4.829733e+000
2.644941e+003,5.439578e+000
2.645905e+003,4.238013e+000
2.646869e+003,2.512882e+000
2.647833e+003,8.539490e-001
2.648798e+003,1.343689e-001
2.649762e+003,6.208954e-001
2.650726e+003,1.255252e+000
2.651690e+003,1.596017e+000
2.652655e+003,1.395886e+000
2.653619e+003,-5.561981e-001
2.654583e+003,-1.236435e+000
2.655547e+003,1.577353e+000
2.656511e+003,3.599136e+000
2.657476e+003,3.421011e+000
2.658440e+003,3.071936e+000
2.659404e+003,3.542306e+000
2.660368e+003,3.043414e+000
2.661333e+003,3.056030e-001
2.662297e+003,-1.967929e+000
2.663261e+003,-1.068991e+000
2.664225e+003,8.368378e-001
2.665190e+003,1.210202e+000
2.666154e+003,7.486206e-001
2.667118e+003,-4.671722e-001
2.668082e+003,-1.225488e+000
2.669047e+003,3.527985e-001
2.670011e+003,1.998007e+000
2.670975e+003,1.180713e+000
2.671939e+003,-2.766693e-001
2.672904e+003,-3.583283e-001
2.673868e+003,4.661682e-001
2.674832e+003,1.751465e+000
2.675796e+003,2.955322e+000
2.676760e+003,2.594308e+000
2.677725e+003,1.051685e+000
2.678689e+003,-4.696747e-001
2.679653e+003,-1.625018e+000
2.680617e+003,-1.040466e+000
2.681582e+003,4.024139e-001
2.682546e+003,9.837189e-001
2.683510e+003,9.449646e-001
2.684474e+003,1.087567e+000
2.685438e+003,1.298883e+000
2.686403e+003,8.184112e-001
2.687367e+003,-1.796784e-001
2.688331e+003,-6.327210e-002
2.689295e+003,1.265387e+000
2.690260e+003,2.226828e+000
2.691224e+003,2.805447e+000
2.692188e+003,3.057767e+000
2.693152e+003,2.951617e+000
2.694117e+003,2.193079e+000
2.695081e+003,1.035046e+000
2.696045e+003,1.106165e+000
2.697009e+003,2.139252e+000
2.697974e+003,1.411621e+000
2.698938e+003,-1.263730e+000
2.699902e+003,-2.360577e+000
2.700866e+003,-6.266449e-001
2.701831e+003,9.622101e-001
2.702795e+003,1.818478e+000
2.703759e+003,1.899234e+000
2.704723e+003,7.366608e-001
2.705688e+003,4.359955e-001
2.706652e+003,1.469647e+000
2.707616e+003,1.404886e+000
2.708580e+003,-3.070557e-001
2.709544e+003,-1.247546e+000
2.710509e+003,-5.260040e-001
2.711473e+003,2.383759e-001
2.712437e+003,1.281952e-001
2.713401e+003,-3.751831e-002
2.714365e+003,3.335480e-001
2.715330e+003,7.277771e-001
2.716294e+003,1.102994e+000
2.717258e+003,1.098300e+000
2.718222e+003,5.164520e-001
2.719187e+003,-5.188507e-001
2.720151e+003,-2.600503e+000
2.721115e+003,-3.076718e+000
2.722079e+003,-3.968323e-001
2.723044e+003,1.942361e+000
2.724008e+003,1.308987e+000
2.724972e+003,-1.395569e-001
2.725936e+003,-2.195648e-001
2.726901e+003,5.356751e-002
2.727865e+003,-5.163910e-001
2.728829e+003,-1.124094e+000
2.729793e+003,-1.467716e+000
2.730758e+003,-1.175342e+000
2.731722e+003,1.051327e+000
2.732686e+003,2.648233e+000
2.733650e+003,1.395343e+000
2.734615e+003,-2.670502e-001
2.735579e+003,-2.404083e-001
2.736543e+003,2.025574e-001
2.737507e+003,-7.092621e-001
2.738471e+003,-1.971783e+000
2.739436e+003,-1.824423e+000
2.740400e+003,-6.398163e-001
2.741364e+003,2.110816e+000
2.742328e+003,4.311490e+000
2.743292e+003,2.434622e+000
2.744257e+003,-3.118958e-001
2.745221e+003,-3.649200e-001
2.746185e+003,8.452454e-001
2.747149e+003,1.553854e+000
2.748114e+003,1.689719e+000
2.749078e+003,1.069095e+000
2.750042e+003,1.560699e-001
2.751006e+003,2.820068e-001
2.751971e+003,9.567230e-001
2.752935e+003,5.159729e-001
2.753899e+003,-6.751801e-001
2.754863e+003,-2.506885e+000
2.755828e+003,-3.906131e+000
2.756792e+003,-2.478650e+000
2.757756e+003,-8.413391e-002
2.758720e+003,-2.019836e-001
2.759685e+003,-1.573047e+000
2.760649e+003,-1.776062e-001
2.761613e+003,2.617117e+000
2.762577e+003,2.069241e+000
2.763542e+003,-1.174844e+000
2.764506e+003,-1.997586e+000
2.765470e+003,-8.667816e-001
2.766434e+003,5.521546e-002
2.767398e+003,6.166016e-001
2.768363e+003,3.067474e-001
2.769327e+003,-4.197876e-001
2.770291e+003,-6.215637e-001
2.771255e+003,-3.103088e-001
2.772219e+003,2.781555e-001
2.773184e+003,9.360046e-001
2.774148e+003,1.019086e+000
2.775112e+003,5.493469e-001
2.776076e+003,-1.045288e-001
2.777041e+003,-9.415161e-001
2.778005e+003,-6.424744e-001
2.778969e+003,5.073212e-001
2.779933e+003,1.007019e+000
2.780898e+003,8.883789e-001
2.781862e+003,5.896209e-001
2.782826e+003,1.900757e-001
2.783790e+003,-5.833191e-001
2.784755e+003,-1.472141e+000
2.785719e+003,-1.166910e+000
2.786683e+003,4.780701e-001
2.787647e+003,7.845978e-001
2.788612e+003,-4.616150e-001
2.789576e+003,-1.586618e+000
2.790540e+003,-2.542310e+000
2.791504e+003,-2.007041e+000
2.792469e+003,-3.501709e-001
2.793433e+003,3.905090e-001
2.794397e+003,1.536346e-001
2.795361e+003,-3.103485e-001
2.796325e+003,-7.025635e-001
2.797290e+003,-7.036041e-001
2.798254e+003,-2.567139e-001
2.799218e+003,2.113190e-001
2.800182e+003,6.288483e-001
2.801146e+003,1.185489e+000
2.802111e+003,1.959317e+000
2.803075e+003,2.484848e+000
2.804039e+003,2.689377e+000
2.805003e+003,2.468088e+000
2.805968e+003,1.847378e+000
2.806932e+003,9.709778e-001
2.807896e+003,1.210144e-001
2.808860e+003,-7.627258e-002
2.809825e+003,3.825714e-001
2.810789e+003,4.672852e-001
2.811753e+003,-1.496551e-001
2.812717e+003,-3.627594e-001
2.813682e+003,-1.739197e-001
2.814646e+003,6.052002e-001
2.815610e+003,1.957672e+000
2.816574e+003,2.839597e+000
2.817539e+003,3.110968e+000
2.818503e+003,2.594434e+000
2.819467e+003,1.536215e+000
2.820431e+003,9.117187e-001
2.821396e+003,8.493469e-001
2.822360e+003,2.543640e-001
2.823324e+003,-1.272540e+000
2.824288e+003,-8.986786e-001
2.825252e+003,2.439221e+000
2.826217e+003,3.444467e+000
2.827181e+003,2.049524e+000
2.828145e+003,2.002801e+000
2.829109e+003,3.220447e+000
2.830073e+003,3.026208e+000
2.831038e+003,1.487836e+000
2.832002e+003,4.856476e-001
2.832966e+003,4.355835e-001
2.833930e+003,1.088992e+000
2.834895e+003,2.359186e+000
2.835859e+003,2.374945e+000
2.836823e+003,6.093963e-001
2.837787e+003,-7.892151e-002
2.838752e+003,3.954224e-001
2.839716e+003,4.857208e-001
2.840680e+003,1.539032e-001
2.841644e+003,-1.759277e-001
2.842609e+003,-4.046356e-001
2.843573e+003,-3.422729e-001
2.844537e+003,-7.167969e-002
2.845501e+003,-1.128967e-001
2.846466e+003,-5.396210e-001
2.847430e+003,-5.648316e-001
2.848394e+003,-3.531189e-002
2.849358e+003,8.576660e-002
2.850323e+003,-2.101013e-001
2.851287e+003,-4.729981e-001
2.852251e+003,-6.732758e-001
2.853215e+003,-9.083710e-001
2.854179e+003,-9.281799e-001
2.855144e+003,6.234711e-001
2.856108e+003,2.907581e+000
2.857072e+003,2.597003e+000
2.858036e+003,-3.091827e-001
2.859000e+003,-1.782315e+000
2.859965e+003,-1.561496e+000
2.860929e+003,-4.036560e-001
2.861893e+003,1.723093e+000
2.862857e+003,1.317270e+000
2.863822e+003,-9.306549e-001
2.864786e+003,-1.795447e+000
2.865750e+003,-1.252106e+000
2.866714e+003,5.443786e-001
2.867679e+003,2.533087e+000
2.868643e+003,2.209192e+000
2.869607e+003,3.532105e-002
2.870571e+003,-6.208221e-001
2.871536e+003,1.762665e-001
2.872500e+003,1.016116e+000
2.873464e+003,1.832614e+000
2.874428e+003,1.751413e+000
2.875393e+003,9.381287e-001
2.876357e+003,-7.321717e-001
2.877321e+003,-2.262643e+000
2.878285e+003,-1.267819e+000
2.879250e+003,1.150479e+000
2.880214e+003,2.879282e+000
2.881178e+003,3.536526e+000
2.882142e+003,2.999759e+000
2.883106e+003,1.502921e+000
2.884071e+003,-5.457123e-001
2.885035e+003,-2.624615e+000
2.885999e+003,-1.008530e+000
2.886963e+003,2.292304e+000
2.887927e+003,1.976648e+000
2.888892e+003,2.037994e-001
2.889856e+003,8.300629e-001
2.890820e+003,2.530353e+000
2.891784e+003,2.901575e+000
2.892749e+003,2.353329e+000
2.893713e+003,1.728973e+000
2.894677e+003,1.323956e+000
2.895641e+003,1.947137e+000
2.896606e+003,3.026605e+000
2.897570e+003,2.910346e+000
2.898534e+003,2.276987e+000
2.899498e+003,2.002725e+000
2.900463e+003,2.058182e+000
2.901427e+003,2.982678e+000
2.902391e+003,3.575568e+000
2.903355e+003,2.282663e+000
2.904320e+003,3.196503e-001
2.905284e+003,-1.274643e+000
2.906248e+003,-2.130887e+000
2.907212e+003,-1.567072e+000
2.908177e+003,-2.493683e-001
2.909141e+003,1.116409e+000
2.910105e+003,2.095959e+000
2.911069e+003,2.039188e+000
2.912033e+003,1.636716e+000
2.912998e+003,1.366492e+000
2.913962e+003,1.011359e+000
2.914926e+003,2.160889e-001
2.915890e+003,-9.612427e-002
2.916854e+003,8.005890e-001
2.917819e+003,1.953082e+000
2.918783e+003,2.407019e+000
2.919747e+003,2.627463e+000
2.920711e+003,3.211133e+000
2.921676e+003,3.614368e+000
2.922640e+003,3.665680e+000
2.923604e+003,3.096280e+000
2.924568e+003,1.015176e+000
2.925533e+003,4.814087e-001
2.926497e+003,2.777554e+000
2.927461e+003,4.267380e+000
2.928425e+003,3.352008e+000
2.929390e+003,4.161407e-001
2.930354e+003,-5.221133e+000
2.931318e+003,-7.968205e+000
2.932282e+003,-1.088605e+000
2.933247e+003,3.336560e+000
2.934211e+003,9.634155e-001
2.935175e+003,-4.140320e-001
2.936139e+003,-3.109955e-001
2.937104e+003,4.278046e-001
2.938068e+003,1.531818e+000
2.939032e+003,1.366110e+000
2.939996e+003,-2.850983e-001
2.940960e+003,-1.067807e+000
2.941925e+003,-9.042358e-002
2.942889e+003,1.019586e+000
2.943853e+003,2.128436e+000
2.944817e+003,2.039328e+000
2.945781e+003,3.723114e-001
2.946746e+003,-3.205963e-001
2.947710e+003,4.008789e-002
2.948674e+003,7.920624e-001
2.949638e+003,1.609058e+000
2.950603e+003,1.701685e+000
2.951567e+003,1.172302e+000
2.952531e+003,8.989929e-001
2.953495e+003,1.025403e+000
2.954460e+003,1.251477e+000
2.955424e+003,1.569345e+000
2.956388e+003,8.842956e-001
2.957352e+003,-5.665405e-001
2.958317e+003,-2.633972e-002
2.959281e+003,1.726465e+000
2.960245e+003,2.528635e+000
2.961209e+003,2.555356e+000
2.962174e+003,2.421256e+000
2.963138e+003,2.265012e+000
2.964102e+003,2.250784e+000
2.965066e+003,2.225638e+000
2.966031e+003,1.765295e+000
2.966995e+003,1.107547e+000
2.967959e+003,1.079181e+000
2.968923e+003,1.351730e+000
2.969887e+003,1.213644e+000
2.970852e+003,9.995758e-001
2.971816e+003,1.149619e+000
2.972780e+003,1.446924e+000
2.973744e+003,1.767874e+000
2.974708e+003,1.909976e+000
2.975673e+003,1.638303e+000
2.976637e+003,1.453537e+000
2.977601e+003,2.035571e+000
2.978565e+003,2.484399e+000
2.979530e+003,1.334253e+000
2.980494e+003,-7.661743e-002
2.981458e+003,-9.893188e-001
2.982422e+003,-1.307111e+000
2.983387e+003,-4.993347e-001
2.984351e+003,-1.946503e-001
2.985315e+003,-1.052045e+000
2.986279e+003,-1.434982e+000
2.987244e+003,-5.486450e-001
2.988208e+003,2.191193e-001
2.989172e+003,-2.370605e-002
2.990136e+003,-4.357178e-001
2.991101e+003,-7.986328e-001
2.992065e+003,-5.362671e-001
2.993029e+003,9.258515e-001
2.993993e+003,1.573416e+000
2.994958e+003,1.131403e+000
2.995922e+003,1.018289e+000
2.996886e+003,1.409525e+000
2.997850e+003,1.256207e+000
2.998814e+003,4.311371e-001
2.999779e+003,-2.824280e-001
3.000743e+003,-6.523315e-001
3.001707e+003,6.904602e-002
3.002671e+003,2.182239e+000
3.003635e+003,2.945526e+000
3.004600e+003,2.408734e+000
3.005564e+003,1.269626e+000
3.006528e+003,-5.535584e-002
3.007492e+003,-4.269379e-001
3.008457e+003,-1.272125e-001
3.009421e+003,-1.315582e-001
3.010385e+003,-1.822937e-001
3.011349e+003,1.054810e+000
3.012314e+003,2.612314e+000
3.013278e+003,1.521323e+000
3.014242e+003,-1.059757e+000
3.015206e+003,-1.156476e+000
3.016171e+003,-2.043488e-001
3.017135e+003,-7.437836e-001
3.018099e+003,-1.505396e+000
3.019063e+003,-1.009796e+000
3.020028e+003,-2.044678e-004
3.020992e+003,1.064575e+000
3.021956e+003,1.576889e+000
3.022920e+003,9.459106e-001
3.023885e+003,-2.371826e-002
3.024849e+003,-4.530975e-001
3.025813e+003,-7.110199e-001
3.026777e+003,-1.126736e+000
3.027741e+003,-1.538318e+000
3.028706e+003,-2.153137e+000
3.029670e+003,-2.108371e+000
3.030634e+003,-9.990937e-001
3.031598e+003,-4.828339e-001
3.032563e+003,-1.050861e+000
3.033527e+003,-1.085858e+000
3.034491e+003,4.582825e-002
3.035455e+003,1.113339e+000
3.036420e+003,1.715741e+000
3.037384e+003,1.173611e+000
3.038348e+003,-1.390652e+000
3.039312e+003,-2.625613e+000
3.040277e+003,-2.462067e+000
3.041241e+003,-1.780295e+000
3.042205e+003,-8.734558e-001
3.043169e+003,-4.386902e-001
3.044134e+003,-3.461304e-001
3.045098e+003,2.272827e-001
3.046062e+003,1.096890e+000
3.047026e+003,1.093759e+000
3.047990e+003,3.578949e-001
3.048955e+003,-5.736206e-001
3.049919e+003,-1.583929e+000
3.050883e+003,-2.219415e+000
3.051847e+003,-2.480643e+000
3.052812e+003,-2.323102e+000
3.053776e+003,-1.814874e+000
3.054740e+003,-6.486725e-001
3.055704e+003,2.803436e-001
3.056668e+003,1.781311e-001
3.057633e+003,-3.756195e-001
3.058597e+003,-8.461731e-001
3.059561e+003,-8.579620e-001
3.060525e+003,7.737427e-001
3.061490e+003,1.808044e+000
3.062454e+003,-5.931122e-001
3.063418e+003,-2.218143e+000
3.064382e+003,-1.218777e+000
3.065347e+003,7.113648e-003
3.066311e+003,8.405151e-001
3.067275e+003,9.647552e-001
3.068239e+003,4.021759e-001
3.069204e+003,3.755951e-001
3.070168e+003,1.400052e+000
3.071132e+003,1.917151e+000
3.072096e+003,1.156174e+000
3.073061e+003,6.864624e-001
3.074025e+003,5.659851e-001
3.074989e+003,6.176636e-001
3.075953e+003,6.828827e-001
3.076917e+003,3.006287e-002
3.077882e+003,-1.024341e+000
3.078846e+003,-1.455356e+000
3.079810e+003,-1.290619e+000
3.080774e+003,-1.160773e+000
3.081739e+003,-1.055719e+000
3.082703e+003,-7.994202e-001
3.083667e+003,-4.455109e-001
3.084631e+003,1.380005e-002
3.085595e+003,3.367401e-001
3.086560e+003,-1.342865e-001
3.087524e+003,-6.101654e-001
3.088488e+003,1.812164e-001
3.089452e+003,5.370423e-001
3.090417e+003,-7.772919e-001
3.091381e+003,-2.356848e+000
3.092345e+003,-3.126022e+000
3.093309e+003,-3.403967e+000
3.094274e+003,-3.440182e+000
3.095238e+003,-3.237907e+000
3.096202e+003,-2.693979e+000
3.097166e+003,-2.029958e+000
3.098131e+003,-1.311136e+000
3.099095e+003,-1.898865e-001
3.100059e+003,1.252625e+000
3.101023e+003,4.237732e-001
3.101988e+003,-2.460545e+000
3.102952e+003,-2.941121e+000
3.103916e+003,-2.275848e-001
3.104880e+003,6.997925e-001
3.105844e+003,-7.955017e-001
3.106809e+003,-1.657530e+000
3.107773e+003,-1.919395e+000
3.108737e+003,-1.750072e+000
3.109701e+003,-1.507748e+000
3.110666e+003,-2.266748e+000
3.111630e+003,-3.238595e+000
3.112594e+003,-3.012056e+000
3.113558e+003,-2.180240e+000
3.114522e+003,-1.570329e+000
3.115487e+003,-1.340475e+000
3.116451e+003,-1.849100e+000
3.117415e+003,-2.220460e+000
3.118379e+003,-6.033570e-001
3.119344e+003,8.725891e-001
3.120308e+003,6.284271e-001
3.121272e+003,-6.043518e-001
3.122236e+003,-2.996266e+000
3.123201e+003,-3.914893e+000
3.124165e+003,-2.593317e+000
3.125129e+003,-2.268626e+000
3.126093e+003,-4.074031e+000
3.127058e+003,-4.921045e+000
3.128022e+003,-3.382121e+000
3.128986e+003,-1.865865e+000
3.129950e+003,-5.246063e-001
3.130915e+003,-3.739533e-001
3.131879e+003,-1.240846e+000
3.132843e+003,-1.356787e+000
3.133807e+003,-9.335815e-001
3.134771e+003,-9.627563e-001
3.135736e+003,-1.268044e+000
3.136700e+003,-9.805847e-001
3.137664e+003,-5.867310e-001
3.138628e+003,-1.218338e+000
3.139593e+003,-2.239270e+000
3.140557e+003,-2.331967e+000
3.141521e+003,-1.666132e+000
3.142485e+003,8.880005e-002
3.143449e+003,1.717093e+000
3.144414e+003,2.831549e+000
3.145378e+003,2.286475e+000
3.146342e+003,-7.414886e-001
3.147306e+003,-2.935770e+000
3.148271e+003,-2.746642e+000
3.149235e+003,-1.635997e+000
3.150199e+003,-3.601685e-001
3.151163e+003,2.346893e-001
3.152128e+003,-6.207367e-001
3.153092e+003,-1.144415e+000
3.154056e+003,-1.314575e+000
3.155020e+003,-7.788315e-001
3.155985e+003,2.858826e-001
3.156949e+003,1.491751e+000
3.157913e+003,2.326773e+000
3.158877e+003,1.342667e+000
3.159842e+003,-7.675568e-001
3.160806e+003,-1.730009e+000
3.161770e+003,-1.670808e+000
3.162734e+003,-5.860092e-001
3.163698e+003,5.517914e-001
3.164663e+003,-9.343201e-001
3.165627e+003,-2.877831e+000
3.166591e+003,-3.278743e+000
3.167555e+003,-2.735121e+000
3.168520e+003,-1.277228e+000
3.169484e+003,-7.481918e-001
3.170448e+003,-2.000320e+000
3.171412e+003,-2.831364e+000
3.172376e+003,-1.954129e+000
3.173341e+003,-6.370133e-001
3.174305e+003,9.297638e-001
3.175269e+003,1.314108e+000
3.176233e+003,3.183502e-001
3.177198e+003,-1.294279e+000
3.178162e+003,-3.166625e+000
3.179126e+003,-2.943477e+000
3.180090e+003,-1.386075e+000
3.181055e+003,-1.279582e+000
3.182019e+003,-2.370212e+000
3.182983e+003,-2.875310e+000
3.183947e+003,-2.879250e+000
3.184912e+003,-2.699078e+000
3.185876e+003,-2.376138e+000
3.186840e+003,-1.991382e+000
3.187804e+003,-1.549030e+000
3.188769e+003,-7.505738e-001
3.189733e+003,-3.307648e-001
3.190697e+003,-7.833099e-001
3.191661e+003,-1.437947e+000
3.192625e+003,-2.006380e+000
3.193590e+003,-2.197836e+000
3.194554e+003,-1.888078e+000
3.195518e+003,-1.818571e+000
3.196482e+003,-2.641374e+000
3.197447e+003,-2.167194e+000
3.198411e+003,1.025558e-001
3.199375e+003,6.435455e-001
3.200339e+003,-2.689652e-001
3.201303e+003,-3.258758e-001
3.202268e+003,1.729248e-001
3.203232e+003,-1.928833e-001
3.204196e+003,-1.045033e+000
3.205160e+003,-1.337022e+000
3.206125e+003,-1.069421e+000
3.207089e+003,-5.958557e-002
3.208053e+003,8.896973e-001
3.209017e+003,1.106659e-001
3.209982e+003,-1.033348e+000
3.210946e+003,-1.893072e+000
3.211910e+003,-1.799940e+000
3.212874e+003,-3.803543e-001
3.213839e+003,1.076398e+000
3.214803e+003,2.013452e+000
3.215767e+003,1.019232e+000
3.216731e+003,-2.134529e+000
3.217696e+003,-3.737143e+000
3.218660e+003,-2.259393e+000
3.219624e+003,-1.152147e+000
3.220588e+003,-4.613129e-001
3.221552e+003,-3.302780e-001
3.222517e+003,-5.132263e-001
3.223481e+003,-2.483673e-001
3.224445e+003,1.001907e-001
3.225409e+003,-2.962143e-001
3.226374e+003,-7.757675e-001
3.227338e+003,-5.176544e-001
3.228302e+003,-1.171158e-001
3.229266e+003,-2.915726e-001
3.230230e+003,-7.309799e-001
3.231195e+003,-1.425333e+000
3.232159e+003,-1.651979e+000
3.233123e+003,-7.185990e-001
3.234087e+003,-4.391937e-002
3.235052e+003,1.671982e-001
3.236016e+003,-5.964920e-001
3.236980e+003,-2.087326e+000
3.237944e+003,-2.559534e+000
3.238909e+003,-1.756198e+000
3.239873e+003,-1.159206e+000
3.240837e+003,-9.341843e-001
3.241801e+003,-1.382977e+000
3.242766e+003,-2.160681e+000
3.243730e+003,-1.617142e+000
3.244694e+003,-7.006882e-001
3.245658e+003,-8.419952e-001
3.246623e+003,-1.271268e+000
3.247587e+003,-1.217676e+000
3.248551e+003,-1.326270e+000
3.249515e+003,-2.033843e+000
3.250479e+003,-2.309613e+000
3.251444e+003,-1.272870e+000
3.252408e+003,-5.304505e-001
3.253372e+003,-1.180600e+000
3.254336e+003,-1.856816e+000
3.255301e+003,-2.495891e+000
3.256265e+003,-2.639932e+000
3.257229e+003,-2.322301e+000
3.258193e+003,-1.733514e+000
3.259157e+003,-1.101950e+000
3.260122e+003,-9.353043e-001
3.261086e+003,-9.359482e-001
3.262050e+003,-3.584946e-001
3.263014e+003,4.195434e-001
3.263979e+003,8.396469e-001
3.264943e+003,5.760330e-001
3.265907e+003,-1.561658e+000
3.266871e+003,-3.343524e+000
3.267836e+003,-3.719624e+000
3.268800e+003,-2.911438e+000
3.269764e+003,-1.002715e+000
3.270728e+003,-2.667969e-001
3.271693e+003,-1.315092e+000
3.272657e+003,-1.735242e+000
3.273621e+003,-6.627060e-001
3.274585e+003,-1.969910e-001
3.275550e+003,-4.671249e-001
3.276514e+003,4.665146e-001
3.277478e+003,1.707394e+000
3.278442e+003,8.085632e-002
3.279406e+003,-2.494699e+000
3.280371e+003,-3.198862e+000
3.281335e+003,-2.814145e+000
3.282299e+003,-2.091295e+000
3.283263e+003,-1.403835e+000
3.284228e+003,-1.131789e+000
3.285192e+003,-8.313767e-001
3.286156e+003,-6.230163e-003
3.287120e+003,6.979523e-001
3.288084e+003,1.137318e+000
3.289049e+003,1.383314e+000
3.290013e+003,1.455379e+000
3.290977e+003,1.442909e+000
3.291941e+003,1.322061e+000
3.292906e+003,6.763245e-001
3.293870e+003,1.974487e-003
3.294834e+003,9.738083e-001
3.295798e+003,2.651511e+000
3.296763e+003,2.534006e+000
3.297727e+003,1.308910e+000
3.298691e+003,-7.105652e-001
3.299655e+003,-2.081467e+000
3.300620e+003,-1.358333e+000
3.301584e+003,-7.626343e-002
3.302548e+003,1.412074e+000
3.303512e+003,1.457672e+000
3.304477e+003,-2.159500e-001
3.305441e+003,-6.911911e-001
3.306405e+003,1.107187e+000
3.307369e+003,1.850420e+000
3.308333e+003,1.279613e+000
3.309298e+003,1.281477e+000
3.310262e+003,1.753792e+000
3.311226e+003,2.633646e+000
3.312190e+003,3.488257e+000
3.313155e+003,4.050919e+000
3.314119e+003,3.568442e+000
3.315083e+003,1.216904e+000
3.316047e+003,-1.298889e-001
3.317011e+003,2.024225e+000
3.317976e+003,4.185983e+000
3.318940e+003,3.871613e+000
3.319904e+003,2.395215e+000
3.320868e+003,-5.265304e-001
3.321833e+003,-7.429321e-001
3.322797e+003,1.473595e+000
3.323761e+003,3.089722e+000
3.324725e+003,3.664267e+000
3.325690e+003,3.081494e+000
3.326654e+003,2.056494e+000
3.327618e+003,1.891933e+000
3.328582e+003,2.329330e+000
3.329547e+003,3.199313e+000
3.330511e+003,3.836093e+000
3.331475e+003,3.155158e+000
3.332439e+003,2.412579e+000
3.333404e+003,2.012834e+000
3.334368e+003,2.316217e+000
3.335332e+003,3.271030e+000
3.336296e+003,2.999847e+000
3.337260e+003,1.309186e+000
3.338225e+003,3.065476e-001
3.339189e+003,4.131012e-001
3.340153e+003,4.530807e-001
3.341117e+003,3.436401e-001
3.342082e+003,-1.043358e+000
3.343046e+003,-2.294778e+000
3.344010e+003,-2.853394e-004
3.344974e+003,1.873085e+000
3.345938e+003,-2.686310e-001
3.346903e+003,-1.841376e+000
3.347867e+003,-6.993256e-001
3.348831e+003,4.870636e-001
3.349795e+003,2.551956e-001
3.350760e+003,-4.041931e-001
3.351724e+003,-1.567502e+000
3.352688e+003,-1.095009e+000
3.353652e+003,7.886353e-001
3.354617e+003,1.646707e+000
3.355581e+003,1.707234e+000
3.356545e+003,1.566144e+000
3.357509e+003,1.387643e+000
3.358474e+003,1.428784e+000
3.359438e+003,1.038487e+000
3.360402e+003,-5.054337e-001
3.361366e+003,-1.677280e+000
3.362331e+003,-5.765793e-001
3.363295e+003,8.134460e-002
3.364259e+003,-1.008334e+000
3.365223e+003,-1.806273e+000
3.366188e+003,-2.083607e+000
3.367152e+003,-9.049088e-001
3.368116e+003,9.446793e-001
3.369080e+003,8.661820e-001
3.370044e+003,-6.310806e-001
3.371009e+003,-1.270581e+000
3.371973e+003,-1.333225e+000
3.372937e+003,-1.322992e+000
3.373901e+003,-1.221182e+000
3.374865e+003,-9.140488e-001
3.375830e+003,-6.930466e-001
3.376794e+003,-7.667130e-001
3.377758e+003,-5.078186e-001
3.378722e+003,1.678436e-001
3.379687e+003,7.958496e-001
3.380651e+003,1.283748e+000
3.381615e+003,1.942267e+000
3.382579e+003,2.654614e+000
3.383544e+003,2.489804e+000
3.384508e+003,1.839270e+000
3.385472e+003,2.247056e+000
3.386436e+003,2.877356e+000
3.387401e+003,2.706070e+000
3.388365e+003,2.229186e+000
3.389329e+003,1.685230e+000
3.390293e+003,1.229648e+000
3.391258e+003,9.704239e-001
3.392222e+003,1.528633e+000
3.393186e+003,3.164450e+000
3.394150e+003,3.346280e+000
3.395115e+003,1.746297e+000
3.396079e+003,2.573325e+000
3.397043e+003,4.704541e+000
3.398007e+003,4.435596e+000
3.398971e+003,3.360205e+000
3.399936e+003,3.726694e+000
3.400900e+003,4.463364e+000
3.401864e+003,4.853006e+000
3.402828e+003,5.464273e+000
3.403792e+003,6.720297e+000
3.404757e+003,7.608584e+000
3.405721e+003,7.235825e+000
3.406685e+003,7.490918e+000
3.407649e+003,8.417539e+000
3.408614e+003,9.751498e+000
3.409578e+003,1.114546e+001
3.410542e+003,1.144228e+001
3.411506e+003,1.149607e+001
3.412471e+003,1.252154e+001
3.413435e+003,1.454887e+001
3.414399e+003,1.780031e+001
3.415363e+003,2.043360e+001
3.416328e+003,2.025228e+001
3.417292e+003,1.984343e+001
3.418256e+003,2.008213e+001
3.419220e+003,1.998484e+001
3.420185e+003,1.967426e+001
3.421149e+003,2.061106e+001
3.422113e+003,2.230554e+001
3.423077e+003,2.337083e+001
3.424042e+003,2.338600e+001
3.425006e+003,2.200141e+001
3.425970e+003,2.024619e+001
3.426934e+003,1.979555e+001
