7.140112e+001,1.579155e+002
7.236536e+001,1.520950e+002
7.332959e+001,1.595743e+002
7.429382e+001,1.686932e+002
7.525806e+001,1.813816e+002
7.622229e+001,1.848988e+002
7.718652e+001,1.688845e+002
7.815076e+001,1.218171e+002
7.911499e+001,9.170966e+001
8.007922e+001,7.523590e+001
8.104346e+001,7.136040e+001
8.200769e+001,8.045119e+001
8.297192e+001,1.109218e+002
8.393616e+001,1.440831e+002
8.490039e+001,1.858368e+002
8.586462e+001,2.265043e+002
8.682886e+001,2.502034e+002
8.779310e+001,2.209925e+002
8.875733e+001,1.756345e+002
8.972157e+001,1.335448e+002
9.068580e+001,1.019398e+002
9.165003e+001,8.011430e+001
9.261427e+001,7.027622e+001
9.357850e+001,6.850877e+001
9.454273e+001,6.871075e+001
9.550697e+001,6.684717e+001
9.647120e+001,6.258203e+001
9.743543e+001,5.819767e+001
9.839967e+001,5.270977e+001
9.936390e+001,4.730139e+001
1.003281e+002,4.343921e+001
1.012924e+002,4.213898e+001
1.022566e+002,4.125278e+001
1.032208e+002,4.008060e+001
1.041851e+002,3.920586e+001
1.051493e+002,3.993036e+001
1.061135e+002,4.807333e+001
1.070778e+002,5.466885e+001
1.080420e+002,5.490833e+001
1.090062e+002,4.774602e+001
1.099705e+002,3.625068e+001
1.109347e+002,2.495576e+001
1.118989e+002,1.532544e+001
1.128632e+002,1.261268e+001
1.138274e+002,2.082803e+001
1.147916e+002,4.253689e+001
1.157559e+002,5.288371e+001
1.167201e+002,4.896598e+001
1.176843e+002,3.965209e+001
1.186486e+002,3.571145e+001
1.196128e+002,4.169237e+001
1.205770e+002,4.758993e+001
1.215413e+002,5.611858e+001
1.225055e+002,6.417975e+001
1.234697e+002,6.543311e+001
1.244340e+002,4.576589e+001
1.253982e+002,2.571811e+001
1.263624e+002,8.372412e+000
1.273267e+002,-3.597156e+000
1.282909e+002,-7.012439e+000
1.292551e+002,1.765866e+001
1.302194e+002,5.021973e+001
1.311836e+002,7.196764e+001
1.321478e+002,7.116841e+001
1.331121e+002,4.780645e+001
1.340763e+002,2.934696e+001
1.350405e+002,1.412479e+001
1.360048e+002,5.172241e+000
1.369690e+002,7.189013e+000
1.379332e+002,3.351217e+001
1.388975e+002,4.851006e+001
1.398617e+002,4.769573e+001
1.408259e+002,3.738486e+001
1.417902e+002,2.757488e+001
1.427544e+002,2.227832e+001
1.437186e+002,1.807733e+001
1.446829e+002,1.393887e+001
1.456471e+002,9.935473e+000
1.466113e+002,6.760925e+000
1.475756e+002,4.640649e+000
1.485398e+002,4.428101e+000
1.495040e+002,8.692505e+000
1.504683e+002,1.778337e+001
1.514325e+002,2.972319e+001
1.523967e+002,3.223486e+001
1.533610e+002,2.751207e+001
1.543252e+002,2.109101e+001
1.552894e+002,1.679271e+001
1.562537e+002,1.534938e+001
1.572179e+002,1.428773e+001
1.581821e+002,1.182992e+001
1.591464e+002,1.066038e+001
1.601106e+002,1.452539e+001
1.610748e+002,3.081137e+001
1.620391e+002,4.038655e+001
1.630033e+002,3.573623e+001
1.639676e+002,2.287580e+001
1.649318e+002,1.126891e+001
1.658960e+002,1.181077e+001
1.668603e+002,1.494946e+001
1.678245e+002,1.325674e+001
1.687887e+002,7.068799e+000
1.697530e+002,3.455566e-001
1.707172e+002,6.490527e+000
1.716814e+002,2.021931e+001
1.726457e+002,2.824263e+001
1.736099e+002,2.517900e+001
1.745741e+002,1.047306e+001
1.755384e+002,6.596192e-001
1.765026e+002,-4.350513e+000
1.774668e+002,-6.507788e+000
1.784311e+002,-5.717322e+000
1.793953e+002,-2.748047e-001
1.803595e+002,3.070093e+000
1.813238e+002,2.700562e+000
1.822880e+002,6.449707e-001
1.832522e+002,-1.668237e+000
1.842165e+002,-3.470313e+000
1.851807e+002,-4.965625e+000
1.861449e+002,-6.517127e+000
1.871092e+002,-8.002844e+000
1.880734e+002,-9.558777e+000
1.890376e+002,-1.184158e+001
1.900019e+002,-1.333243e+001
1.909661e+002,-9.557129e+000
1.919303e+002,-4.229492e-001
1.928946e+002,1.100920e+001
1.938588e+002,1.432598e+001
1.948230e+002,3.461731e+000
1.957873e+002,-2.019409e+000
1.967515e+002,4.115125e+000
1.977157e+002,2.142555e+001
1.986800e+002,3.312681e+001
1.996442e+002,3.041506e+001
2.006084e+002,2.876666e+001
2.015727e+002,3.612693e+001
2.025369e+002,5.461495e+001
2.035011e+002,6.724471e+001
2.044654e+002,5.774981e+001
2.054296e+002,4.121035e+001
2.063938e+002,2.531668e+001
2.073581e+002,1.525723e+001
2.083223e+002,9.970495e+000
2.092865e+002,4.501599e+000
2.102508e+002,-1.429810e-001
2.112150e+002,-5.099121e-001
2.121792e+002,7.130456e+000
2.131435e+002,2.562827e+001
2.141077e+002,3.787645e+001
2.150719e+002,4.242858e+001
2.160362e+002,4.259902e+001
2.170004e+002,4.320570e+001
2.179646e+002,4.567047e+001
2.189289e+002,4.612301e+001
2.198931e+002,4.063701e+001
2.208573e+002,3.314447e+001
2.218216e+002,3.096130e+001
2.227858e+002,4.260011e+001
2.237500e+002,5.772162e+001
2.247143e+002,7.796761e+001
2.256785e+002,9.919336e+001
2.266427e+002,1.134241e+002
2.276070e+002,9.904126e+001
2.285712e+002,7.018996e+001
2.295354e+002,4.372086e+001
2.304997e+002,2.471348e+001
2.314639e+002,1.266426e+001
2.324281e+002,5.778381e+000
2.333924e+002,4.685449e+000
2.343566e+002,4.660315e+000
2.353208e+002,4.067261e+000
2.362851e+002,2.724109e+000
2.372493e+002,1.877478e+000
2.382135e+002,1.185046e+000
2.391778e+002,1.103540e+000
2.401420e+002,2.708618e+000
2.411062e+002,6.878808e+000
2.420705e+002,8.803906e+000
2.430347e+002,4.120691e+000
2.439989e+002,-2.609204e+000
2.449632e+002,-8.134997e+000
2.459274e+002,-9.972107e+000
2.468916e+002,-9.244410e+000
2.478559e+002,-8.913050e+000
2.488201e+002,-8.830688e+000
2.497843e+002,-8.843262e+000
2.507486e+002,-8.797022e+000
2.517128e+002,-8.718359e+000
2.526770e+002,-6.329688e+000
2.536413e+002,1.141479e-001
2.546055e+002,7.351709e+000
2.555697e+002,1.003342e+001
2.565340e+002,2.630835e+000
2.574982e+002,-1.794800e+000
2.584625e+002,-1.839233e-001
2.594267e+002,4.775659e+000
2.603909e+002,8.289734e+000
2.613552e+002,6.518445e+000
2.623194e+002,3.424182e+000
2.632836e+002,-1.052246e-001
2.642479e+002,-3.376892e+000
2.652121e+002,-5.509351e+000
2.661763e+002,-4.146350e+000
2.671406e+002,-1.343762e+000
2.681048e+002,-7.692505e-001
2.690690e+002,-2.938892e+000
2.700333e+002,-6.562768e+000
2.709975e+002,-6.030786e+000
2.719617e+002,6.232666e-001
2.729260e+002,4.902161e+000
2.738902e+002,3.732690e+000
2.748544e+002,-2.801697e+000
2.758187e+002,-7.349023e+000
2.767829e+002,-9.040540e+000
2.777471e+002,-9.520947e+000
2.787114e+002,-8.628222e+000
2.796756e+002,-6.430359e+000
2.806398e+002,-4.160840e+000
2.816041e+002,-3.414160e+000
2.825683e+002,-2.585974e+000
2.835325e+002,-3.680054e-001
2.844968e+002,3.636243e+000
2.854610e+002,8.088305e+000
2.864252e+002,1.036976e+001
2.873895e+002,1.085587e+001
2.883537e+002,9.090027e+000
2.893179e+002,4.756457e+000
2.902822e+002,-2.326721e+000
2.912464e+002,-6.605017e+000
2.922106e+002,-7.568665e+000
2.931749e+002,-7.866345e+000
2.941391e+002,-9.344714e+000
2.951033e+002,-1.270939e+001
2.960676e+002,-1.527079e+001
2.970318e+002,-1.790906e+001
2.979960e+002,-1.899426e+001
2.989603e+002,-1.687087e+001
2.999245e+002,-1.020251e+001
3.008887e+002,-3.057776e+000
3.018530e+002,2.825220e+000
3.028172e+002,7.110583e+000
3.037814e+002,8.988525e+000
3.047457e+002,7.696362e+000
3.057099e+002,4.368299e+000
3.066741e+002,2.853345e+000
3.076384e+002,2.740491e+000
3.086026e+002,3.000146e+000
3.095668e+002,2.537244e+000
3.105311e+002,1.379834e+000
3.114953e+002,-7.125366e-001
3.124595e+002,-5.546204e+000
3.134238e+002,-1.040676e+001
3.143880e+002,-1.180116e+001
3.153522e+002,-6.839294e+000
3.163165e+002,-3.231421e+000
3.172807e+002,-2.674487e+000
3.182449e+002,-3.546582e+000
3.192092e+002,-4.189453e+000
3.201734e+002,-3.885034e+000
3.211376e+002,-2.514832e+000
3.221019e+002,2.527344e-001
3.230661e+002,3.900562e+000
3.240303e+002,7.911560e+000
3.249946e+002,1.187360e+001
3.259588e+002,1.500167e+001
3.269230e+002,1.502257e+001
3.278873e+002,1.181458e+001
3.288515e+002,7.222229e+000
3.298157e+002,4.528625e+000
3.307800e+002,5.617334e+000
3.317442e+002,5.829236e+000
3.327084e+002,3.537683e+000
3.336727e+002,6.190063e-001
3.346369e+002,6.698486e-001
3.356011e+002,8.218664e+000
3.365654e+002,1.354462e+001
3.375296e+002,1.306351e+001
3.384938e+002,9.227442e+000
3.394581e+002,6.020227e+000
3.404223e+002,7.163452e+000
3.413865e+002,9.796778e+000
3.423508e+002,1.123832e+001
3.433150e+002,1.166554e+001
3.442792e+002,1.182523e+001
3.452435e+002,1.283578e+001
3.462077e+002,1.478666e+001
3.471719e+002,1.643146e+001
3.481362e+002,1.697135e+001
3.491004e+002,1.819426e+001
3.500646e+002,2.400460e+001
3.510289e+002,3.283428e+001
3.519931e+002,5.089089e+001
3.529573e+002,7.971443e+001
3.539216e+002,1.172136e+002
3.548858e+002,1.623977e+002
3.558500e+002,2.355979e+002
3.568143e+002,2.856563e+002
3.577785e+002,2.913445e+002
3.587427e+002,2.630311e+002
3.597070e+002,2.183867e+002
3.606712e+002,1.682399e+002
3.616354e+002,1.200498e+002
3.625997e+002,8.126511e+001
3.635639e+002,5.242029e+001
3.645281e+002,3.308514e+001
3.654924e+002,2.252147e+001
3.664566e+002,2.369608e+001
3.674208e+002,2.352310e+001
3.683851e+002,2.181527e+001
3.693493e+002,1.868610e+001
3.703135e+002,1.424160e+001
3.712778e+002,5.617871e+000
3.722420e+002,1.989258e-001
3.732062e+002,-3.134643e-001
3.741705e+002,2.259973e+000
3.751347e+002,5.247888e+000
3.760989e+002,7.782886e+000
3.770632e+002,9.697070e+000
3.780274e+002,1.095850e+001
3.789916e+002,1.151095e+001
3.799559e+002,1.122197e+001
3.809201e+002,9.789587e+000
3.818844e+002,7.765259e+000
3.828486e+002,6.580408e+000
3.838128e+002,6.214539e+000
3.847771e+002,6.378638e+000
3.857413e+002,6.652466e+000
3.867055e+002,7.290881e+000
3.876698e+002,7.251538e+000
3.886340e+002,4.290271e+000
3.895982e+002,1.504907e+000
3.905625e+002,3.933777e+000
3.915267e+002,1.751555e+001
3.924909e+002,2.623491e+001
3.934552e+002,2.587332e+001
3.944194e+002,2.068170e+001
3.953836e+002,1.467361e+001
3.963479e+002,9.308118e+000
3.973121e+002,6.287634e+000
3.982763e+002,7.962671e+000
3.992406e+002,1.196261e+001
4.002048e+002,1.478176e+001
4.011690e+002,1.297061e+001
4.021333e+002,7.486194e+000
4.030975e+002,6.518054e+000
4.040617e+002,1.006852e+001
4.050260e+002,1.439238e+001
4.059902e+002,1.547527e+001
4.069544e+002,1.134452e+001
4.079187e+002,9.409033e+000
4.088829e+002,1.056853e+001
4.098471e+002,1.255039e+001
4.108114e+002,1.364186e+001
4.117756e+002,1.326611e+001
4.127398e+002,1.317925e+001
4.137041e+002,1.487526e+001
4.146683e+002,1.661685e+001
4.156325e+002,1.686658e+001
4.165968e+002,1.481832e+001
4.175610e+002,1.202353e+001
4.185252e+002,1.062747e+001
4.194895e+002,1.040936e+001
4.204537e+002,1.153702e+001
4.214179e+002,1.410051e+001
4.223822e+002,1.801715e+001
4.233464e+002,2.155222e+001
4.243106e+002,2.524615e+001
4.252749e+002,2.722251e+001
4.262391e+002,2.509233e+001
4.272033e+002,1.813012e+001
4.281676e+002,1.628721e+001
4.291318e+002,2.388770e+001
4.300960e+002,3.242457e+001
4.310603e+002,3.800748e+001
4.320245e+002,4.053534e+001
4.329887e+002,4.509764e+001
4.339530e+002,5.337605e+001
4.349172e+002,6.757912e+001
4.358814e+002,9.219041e+001
4.368457e+002,1.263440e+002
4.378099e+002,1.653419e+002
4.387741e+002,2.051437e+002
4.397384e+002,2.409216e+002
4.407026e+002,2.560361e+002
4.416668e+002,2.457631e+002
4.426311e+002,2.154421e+002
4.435953e+002,1.826266e+002
4.445595e+002,1.391301e+002
4.455238e+002,1.044688e+002
4.464880e+002,8.211649e+001
4.474522e+002,6.886753e+001
4.484165e+002,5.822738e+001
4.493807e+002,4.958201e+001
4.503449e+002,4.300500e+001
4.513092e+002,3.930320e+001
4.522734e+002,3.718276e+001
4.532376e+002,3.485707e+001
4.542019e+002,3.075872e+001
4.551661e+002,2.619458e+001
4.561303e+002,2.283391e+001
4.570946e+002,2.053278e+001
4.580588e+002,1.895690e+001
4.590230e+002,1.774670e+001
4.599873e+002,1.696467e+001
4.609515e+002,1.612521e+001
4.619157e+002,1.497430e+001
4.628800e+002,1.407228e+001
4.638442e+002,1.388687e+001
4.648084e+002,1.446951e+001
4.657727e+002,1.578246e+001
4.667369e+002,1.931588e+001
4.677011e+002,2.229327e+001
4.686654e+002,2.256821e+001
4.696296e+002,1.939596e+001
4.705938e+002,1.587245e+001
4.715581e+002,1.395547e+001
4.725223e+002,1.292037e+001
4.734865e+002,1.263185e+001
4.744508e+002,1.293258e+001
4.754150e+002,1.354592e+001
4.763792e+002,1.377054e+001
4.773435e+002,1.369845e+001
4.783077e+002,1.358069e+001
4.792719e+002,1.358337e+001
4.802362e+002,1.356328e+001
4.812004e+002,1.256615e+001
4.821646e+002,8.473493e+000
4.831289e+002,5.911377e+000
4.840931e+002,5.767774e+000
4.850573e+002,7.399805e+000
4.860216e+002,9.293585e+000
4.869858e+002,1.240165e+001
4.879500e+002,1.409795e+001
4.889143e+002,1.276879e+001
4.898785e+002,9.635907e+000
4.908427e+002,6.534729e+000
4.918070e+002,4.865198e+000
4.927712e+002,4.241876e+000
4.937354e+002,3.851367e+000
4.946997e+002,3.663062e+000
4.956639e+002,3.626678e+000
4.966281e+002,3.700958e+000
4.975924e+002,3.911145e+000
4.985566e+002,3.339288e+000
4.995208e+002,1.183954e+000
5.004851e+002,-4.617127e-001
5.014493e+002,3.641724e-001
5.024135e+002,4.489783e+000
5.033778e+002,7.139624e+000
5.043420e+002,7.145074e+000
5.053063e+002,6.634686e+000
5.062705e+002,6.698565e+000
5.072347e+002,7.406415e+000
5.081990e+002,7.413501e+000
5.091632e+002,3.680737e+000
5.101274e+002,-1.650635e-001
5.110917e+002,-1.620538e+000
5.120559e+002,-3.577637e-001
5.130201e+002,2.372290e+000
5.139844e+002,4.379114e+000
5.149486e+002,5.502319e+000
5.159128e+002,5.363116e+000
5.168771e+002,3.622748e+000
5.178413e+002,1.095532e+000
5.188055e+002,-4.460388e-001
5.197698e+002,-2.345337e-001
5.207340e+002,-1.045044e-001
5.216982e+002,-1.578064e-001
5.226625e+002,-3.044495e-001
5.236267e+002,-4.724304e-001
5.245909e+002,-7.021607e-001
5.255552e+002,-7.991028e-001
5.265194e+002,-3.763672e-001
5.274836e+002,5.525513e-002
5.284479e+002,-6.127319e-002
5.294121e+002,-9.923889e-001
5.303763e+002,-2.188422e+000
5.313406e+002,-2.876563e+000
5.323048e+002,-3.016864e+000
5.332690e+002,-1.757764e+000
5.342333e+002,1.455365e+000
5.351975e+002,6.125140e+000
5.361617e+002,8.102533e+000
5.371260e+002,5.371869e+000
5.380902e+002,3.199378e+000
5.390544e+002,2.649719e+000
5.400187e+002,3.269293e+000
5.409829e+002,3.738605e+000
5.419471e+002,3.944952e+000
5.429114e+002,3.863837e+000
5.438756e+002,3.319696e+000
5.448398e+002,2.493866e+000
5.458041e+002,1.652228e+000
5.467683e+002,1.001855e+000
5.477325e+002,4.407043e-001
5.486968e+002,-3.467163e-001
5.496610e+002,-1.214716e+000
5.506252e+002,-1.764563e+000
5.515895e+002,-1.663031e+000
5.525537e+002,-9.522034e-001
5.535179e+002,-1.684326e+000
5.544822e+002,-4.429980e+000
5.554464e+002,-6.477899e+000
5.564106e+002,-6.045868e+000
5.573749e+002,-3.132416e+000
5.583391e+002,-1.233685e+000
5.593033e+002,-1.753485e+000
5.602676e+002,-2.180115e+000
5.612318e+002,-1.551502e+000
5.621960e+002,-2.118469e-001
5.631603e+002,5.542542e-001
5.641245e+002,-7.084228e-001
5.650887e+002,-2.263330e+000
5.660530e+002,-2.697888e+000
5.670172e+002,-2.213715e+000
5.679814e+002,-1.367670e+000
5.689457e+002,-7.328979e-001
5.699099e+002,-3.990662e-001
5.708741e+002,-7.048401e-001
5.718384e+002,-1.664600e+000
5.728026e+002,-2.754120e+000
5.737668e+002,-3.833008e+000
5.747311e+002,-5.197656e+000
5.756953e+002,-5.025946e+000
5.766595e+002,-1.562048e+000
5.776238e+002,1.372101e+000
5.785880e+002,2.039063e+000
5.795522e+002,5.318664e-001
5.805165e+002,-1.220752e+000
5.814807e+002,-2.231958e+000
5.824449e+002,-2.777338e+000
5.834092e+002,-2.817004e+000
5.843734e+002,-2.533398e+000
5.853376e+002,-2.299933e+000
5.863019e+002,-2.614239e+000
5.872661e+002,-3.208514e+000
5.882303e+002,-2.724847e+000
5.891946e+002,-1.117834e+000
5.901588e+002,6.154785e-001
5.911230e+002,1.395868e+000
5.920873e+002,8.758118e-001
5.930515e+002,6.511170e-001
5.940157e+002,1.317145e+000
5.949800e+002,1.644879e+000
5.959442e+002,5.554016e-001
5.969084e+002,-1.912616e+000
5.978727e+002,-3.571875e+000
5.988369e+002,-1.611133e+000
5.998011e+002,1.701843e-001
6.007654e+002,-8.088379e-002
6.017296e+002,-2.075641e+000
6.026938e+002,-4.450305e+000
6.036581e+002,-5.925153e+000
6.046223e+002,-6.249433e+000
6.055865e+002,-4.919989e+000
6.065508e+002,-2.075470e+000
6.075150e+002,5.601867e-001
6.084792e+002,1.020605e+000
6.094435e+002,-1.350366e+000
6.104077e+002,-2.474939e+000
6.113719e+002,-1.919708e+000
6.123362e+002,-1.093317e+000
6.133004e+002,-5.040100e-001
6.142646e+002,-1.995361e-001
6.152289e+002,-4.111816e-001
6.161931e+002,-2.345313e+000
6.171573e+002,-3.862891e+000
6.181216e+002,-3.747845e+000
6.190858e+002,-2.393945e+000
6.200500e+002,-1.075488e+000
6.210143e+002,-1.089923e+000
6.219785e+002,-1.930652e+000
6.229427e+002,-2.450275e+000
6.239070e+002,-2.649634e+000
6.248712e+002,-2.500116e+000
6.258354e+002,-1.920807e+000
6.267997e+002,-7.693542e-001
6.277639e+002,5.277099e-002
6.287281e+002,5.046021e-001
6.296924e+002,6.367370e-001
6.306566e+002,1.242554e-001
6.316208e+002,-9.165955e-001
6.325851e+002,-1.197815e+000
6.335493e+002,6.950867e-001
6.345135e+002,2.571124e+000
6.354778e+002,4.227124e+000
6.364420e+002,5.301392e+000
6.374063e+002,5.236115e+000
6.383705e+002,3.315161e+000
6.393347e+002,6.211426e-001
6.402990e+002,-1.283948e+000
6.412632e+002,-2.379089e+000
6.422274e+002,-2.454437e+000
6.431917e+002,-1.331244e+000
6.441559e+002,8.859192e-001
6.451201e+002,1.893262e+000
6.460844e+002,1.087927e+000
6.470486e+002,4.912537e-001
6.480128e+002,1.163342e+000
6.489771e+002,2.662433e+000
6.499413e+002,2.993127e+000
6.509055e+002,4.863525e-001
6.518698e+002,-1.583795e+000
6.528340e+002,-2.234015e+000
6.537982e+002,-1.991339e+000
6.547625e+002,-1.608966e+000
6.557267e+002,-1.532294e+000
6.566909e+002,-1.443005e+000
6.576552e+002,-6.512756e-001
6.586194e+002,4.000427e-001
6.595836e+002,1.061627e+000
6.605479e+002,1.039514e+000
6.615121e+002,5.077454e-001
6.624763e+002,2.598267e-002
6.634406e+002,-6.583740e-001
6.644048e+002,-6.438476e-001
6.653690e+002,7.772766e-001
6.663333e+002,2.713275e+000
6.672975e+002,3.389319e+000
6.682617e+002,1.778442e+000
6.692260e+002,1.037354e+000
6.701902e+002,2.990356e+000
6.711544e+002,5.193176e+000
6.721187e+002,5.245843e+000
6.730829e+002,2.418878e+000
6.740471e+002,-9.195557e-001
6.750114e+002,-1.206006e+000
6.759756e+002,-1.372742e-001
6.769398e+002,8.168274e-001
6.779041e+002,1.279034e+000
6.788683e+002,1.466907e+000
6.798325e+002,1.781494e+000
6.807968e+002,2.292920e+000
6.817610e+002,2.663391e+000
6.827252e+002,2.705298e+000
6.836895e+002,2.767859e+000
6.846537e+002,3.381042e+000
6.856179e+002,4.783399e+000
6.865822e+002,5.176496e+000
6.875464e+002,2.887592e+000
6.885106e+002,8.133240e-001
6.894749e+002,3.656311e-001
6.904391e+002,1.423816e+000
6.914034e+002,2.888165e+000
6.923676e+002,4.126257e+000
6.933318e+002,4.773529e+000
6.942961e+002,4.201288e+000
6.952603e+002,2.689941e+000
6.962245e+002,1.070575e+000
6.971888e+002,7.968140e-002
6.981530e+002,-2.983460e-001
6.991172e+002,-4.993652e-001
7.000815e+002,-8.103333e-001
7.010457e+002,-6.160644e-001
7.020099e+002,9.047546e-001
7.029742e+002,3.353589e+000
7.039384e+002,4.634021e+000
7.049026e+002,3.274036e+000
7.058669e+002,1.978412e+000
7.068311e+002,1.327106e+000
7.077953e+002,1.202588e+000
7.087596e+002,1.626904e+000
7.097238e+002,2.681415e+000
7.106880e+002,3.681433e+000
7.116523e+002,2.956342e+000
7.126165e+002,1.485071e+000
7.135807e+002,9.387329e-001
7.145450e+002,1.943195e+000
7.155092e+002,3.723120e+000
7.164734e+002,4.112201e+000
7.174377e+002,2.259143e+000
7.184019e+002,5.905151e-001
7.193661e+002,-1.247669e+000
7.203304e+002,-2.760828e+000
7.212946e+002,-3.262445e+000
7.222589e+002,-2.442395e+000
7.232231e+002,-1.617969e+000
7.241873e+002,-1.500238e+000
7.251516e+002,-1.278973e+000
7.261158e+002,-3.218445e-001
7.270800e+002,1.211450e+000
7.280443e+002,2.522937e+000
7.290085e+002,2.746875e+000
7.299727e+002,2.273193e+000
7.309370e+002,2.014184e+000
7.319012e+002,1.956189e+000
7.328654e+002,1.850763e+000
7.338297e+002,1.451593e+000
7.347939e+002,7.273132e-001
7.357581e+002,2.034119e-001
7.367224e+002,-1.831482e-001
7.376866e+002,-3.476563e-001
7.386508e+002,-2.909241e-001
7.396151e+002,4.736328e-003
7.405793e+002,7.132751e-001
7.415435e+002,2.527905e+000
7.425078e+002,3.643805e+000
7.434720e+002,2.874390e+000
7.444362e+002,1.287384e+000
7.454005e+002,-1.987732e-001
7.463647e+002,-1.091083e+000
7.473289e+002,-1.282043e+000
7.482932e+002,2.325989e-001
7.492574e+002,2.616241e+000
7.502216e+002,3.384662e+000
7.511859e+002,1.817334e+000
7.521501e+002,-7.809265e-001
7.531143e+002,-1.927094e+000
7.540786e+002,-5.175842e-001
7.550428e+002,-2.153748e-001
7.560070e+002,-2.398584e+000
7.569713e+002,-4.169848e+000
7.579355e+002,-3.203650e+000
7.588997e+002,3.651367e-001
7.598640e+002,3.115051e+000
7.608282e+002,2.157654e+000
7.617924e+002,9.118775e-001
7.627567e+002,1.332214e+000
7.637209e+002,2.866266e+000
7.646851e+002,3.905005e+000
7.656494e+002,3.097662e+000
7.666136e+002,1.479358e+000
7.675778e+002,4.211999e+000
7.685421e+002,1.059413e+001
7.695063e+002,1.522940e+001
7.704705e+002,1.554329e+001
7.714348e+002,1.236370e+001
7.723990e+002,8.895465e+000
7.733632e+002,4.298090e+000
7.743275e+002,7.562439e-001
7.752917e+002,-1.484125e+000
7.762559e+002,-2.732812e+000
7.772202e+002,-3.030633e+000
7.781844e+002,-2.400159e+000
7.791486e+002,-1.657434e+000
7.801129e+002,-1.621869e+000
7.810771e+002,-1.713727e+000
7.820413e+002,-1.282983e+000
7.830056e+002,-4.755005e-001
7.839698e+002,-1.093506e-001
7.849340e+002,-1.196686e+000
7.858983e+002,-3.632062e+000
7.868625e+002,-4.714972e+000
7.878267e+002,-4.486981e+000
7.887910e+002,-3.421582e+000
7.897552e+002,-1.020062e+000
7.907194e+002,2.398010e+000
7.916837e+002,4.005511e+000
7.926479e+002,1.514105e+000
7.936121e+002,-2.486084e-001
7.945764e+002,1.326843e-001
7.955406e+002,1.411334e+000
7.965048e+002,2.302203e+000
7.974691e+002,2.326331e+000
7.984333e+002,1.827606e+000
7.993975e+002,6.687927e-001
8.003618e+002,-6.567932e-001
8.013260e+002,-1.462213e+000
8.022902e+002,-1.672595e+000
8.032545e+002,-1.800775e+000
8.042187e+002,-2.659033e+000
8.051829e+002,-4.521460e+000
8.061472e+002,-5.200849e+000
8.071114e+002,-4.233521e+000
8.080756e+002,-2.937927e+000
8.090399e+002,-1.683575e+000
8.100041e+002,-5.298340e-001
8.109683e+002,-9.661865e-003
8.119326e+002,-1.137488e+000
8.128968e+002,-1.823688e+000
8.138610e+002,-9.735107e-001
8.148253e+002,5.785828e-001
8.157895e+002,1.785486e+000
8.167537e+002,2.142108e+000
8.177180e+002,2.103552e+000
8.186822e+002,2.576941e+000
8.196464e+002,3.317444e+000
8.206107e+002,3.669568e+000
8.215749e+002,3.446985e+000
8.225391e+002,2.963507e+000
8.235034e+002,2.680359e+000
8.244676e+002,2.501202e+000
8.254318e+002,2.842889e+000
8.263961e+002,4.565997e+000
8.273603e+002,5.853674e+000
8.283245e+002,5.717298e+000
8.292888e+002,4.338489e+000
8.302530e+002,2.561816e+000
8.312172e+002,1.267456e-001
8.321815e+002,-1.464154e+000
8.331457e+002,-6.918579e-001
8.341099e+002,1.213544e+000
8.350742e+002,2.646185e+000
8.360384e+002,2.794537e+000
8.370026e+002,2.166565e+000
8.379669e+002,1.913605e+000
8.389311e+002,2.039429e+000
8.398953e+002,2.031531e+000
8.408596e+002,1.910803e+000
8.418238e+002,1.551459e+000
8.427880e+002,5.785400e-001
8.437523e+002,-1.303888e+000
8.447165e+002,-2.166608e+000
8.456807e+002,-3.442261e-001
8.466450e+002,9.531555e-001
8.476092e+002,-3.019409e-002
8.485734e+002,-2.399268e+000
8.495377e+002,-4.049884e+000
8.505019e+002,-3.673413e+000
8.514661e+002,-2.374957e+000
8.524304e+002,-1.317615e+000
8.533946e+002,-5.687134e-001
8.543588e+002,-4.298950e-001
8.553231e+002,-9.899109e-001
8.562873e+002,-1.920142e+000
8.572515e+002,-2.487909e+000
8.582158e+002,-2.491864e+000
8.591800e+002,-2.772064e+000
8.601442e+002,-3.887848e+000
8.611085e+002,-4.776410e+000
8.620727e+002,-4.405609e+000
8.630369e+002,-2.871210e+000
8.640012e+002,-1.918945e+000
8.649654e+002,-2.948663e+000
8.659296e+002,-3.732501e+000
8.668939e+002,-2.940833e+000
8.678581e+002,-1.430005e+000
8.688223e+002,-3.697815e-001
8.697866e+002,-3.710999e-001
8.707508e+002,-1.067828e+000
8.717150e+002,-1.982044e+000
8.726793e+002,-2.985974e+000
8.736435e+002,-3.291022e+000
8.746077e+002,-2.622021e+000
8.755720e+002,-1.659992e+000
8.765362e+002,-1.293573e+000
8.775004e+002,-1.661133e+000
8.784647e+002,-2.023932e+000
8.794289e+002,-2.258246e+000
8.803931e+002,-2.646094e+000
8.813574e+002,-3.444592e+000
8.823216e+002,-4.447021e+000
8.832858e+002,-5.260406e+000
8.842501e+002,-5.695892e+000
8.852143e+002,-5.786395e+000
8.861785e+002,-5.583636e+000
8.871428e+002,-5.183075e+000
8.881070e+002,-4.446393e+000
8.890712e+002,-3.452893e+000
8.900355e+002,-2.730597e+000
8.909997e+002,-3.168854e+000
8.919639e+002,-5.006085e+000
8.929282e+002,-6.058368e+000
8.938924e+002,-6.098932e+000
8.948566e+002,-5.827118e+000
8.958209e+002,-5.293732e+000
8.967851e+002,-4.659863e+000
8.977493e+002,-4.717859e+000
8.987136e+002,-6.261542e+000
8.996778e+002,-7.525714e+000
9.006420e+002,-7.729846e+000
9.016063e+002,-7.443469e+000
9.025705e+002,-7.104108e+000
9.035347e+002,-6.879181e+000
9.044990e+002,-6.751269e+000
9.054632e+002,-6.808624e+000
9.064274e+002,-6.960773e+000
9.073917e+002,-6.680762e+000
9.083559e+002,-5.917181e+000
9.093201e+002,-5.072571e+000
9.102844e+002,-4.423676e+000
9.112486e+002,-3.979120e+000
9.122128e+002,-3.737695e+000
9.131771e+002,-3.794086e+000
9.141413e+002,-3.961975e+000
9.151055e+002,-4.354913e+000
9.160698e+002,-4.743872e+000
9.170340e+002,-4.954028e+000
9.179982e+002,-4.957397e+000
9.189625e+002,-4.778772e+000
9.199267e+002,-4.150159e+000
9.208909e+002,-3.564520e+000
9.218552e+002,-3.640710e+000
9.228194e+002,-4.206988e+000
9.237836e+002,-4.722443e+000
9.247479e+002,-4.765155e+000
9.257121e+002,-4.360944e+000
9.266763e+002,-3.605841e+000
9.276406e+002,-2.170514e+000
9.286048e+002,-1.178534e+000
9.295690e+002,-7.817810e-001
9.305333e+002,-8.355652e-001
9.314975e+002,-1.313239e+000
9.324617e+002,-2.271222e+000
9.334260e+002,-3.090839e+000
9.343902e+002,-3.352893e+000
9.353545e+002,-3.551862e+000
9.363187e+002,-4.190131e+000
9.372830e+002,-4.874530e+000
9.382472e+002,-4.713501e+000
9.392114e+002,-3.160346e+000
9.401757e+002,-9.449463e-001
9.411399e+002,2.246094e-002
9.421041e+002,-1.007629e-001
9.430684e+002,-1.684937e-001
9.440326e+002,1.544189e-003
9.449968e+002,2.283203e-001
9.459611e+002,3.930542e-001
9.469253e+002,5.979309e-001
9.478895e+002,5.054260e-001
9.488538e+002,-6.027039e-001
9.498180e+002,-1.280774e+000
9.507822e+002,-8.978760e-001
9.517465e+002,4.155273e-002
9.527107e+002,9.007996e-001
9.536749e+002,1.454639e+000
9.546392e+002,1.665985e+000
9.556034e+002,1.001959e+000
9.565676e+002,1.055908e-001
9.575319e+002,-5.882568e-002
9.584961e+002,5.957276e-001
9.594603e+002,1.495136e+000
9.604246e+002,2.026764e+000
9.613888e+002,2.163184e+000
9.623530e+002,2.176202e+000
9.633173e+002,1.189221e+000
9.642815e+002,1.256769e+000
9.652457e+002,3.417169e+000
9.662100e+002,6.440271e+000
9.671742e+002,8.449597e+000
9.681384e+002,8.961823e+000
9.691027e+002,1.038668e+001
9.700669e+002,1.068646e+001
9.710311e+002,1.588086e+001
9.719954e+002,3.386588e+001
9.729596e+002,6.019862e+001
9.739238e+002,8.669431e+001
9.748881e+002,1.074305e+002
9.758523e+002,1.195355e+002
9.768165e+002,1.108196e+002
9.777808e+002,7.590862e+001
9.787450e+002,4.867451e+001
9.797092e+002,3.471617e+001
9.806735e+002,2.771081e+001
9.816377e+002,2.259711e+001
9.826019e+002,1.941976e+001
9.835662e+002,1.691554e+001
9.845304e+002,1.516599e+001
9.854946e+002,1.371346e+001
9.864589e+002,1.194049e+001
9.874231e+002,1.058716e+001
9.883873e+002,1.086736e+001
9.893516e+002,1.302184e+001
9.903158e+002,1.558221e+001
9.912800e+002,1.649481e+001
9.922443e+002,1.623617e+001
9.932085e+002,1.653831e+001
9.941727e+002,1.739756e+001
9.951370e+002,1.959427e+001
9.961012e+002,2.351982e+001
9.970654e+002,2.905213e+001
9.980297e+002,3.543580e+001
9.989939e+002,3.418554e+001
9.999581e+002,4.992357e+001
1.000922e+003,7.944234e+001
1.001887e+003,1.295897e+002
1.002851e+003,2.320253e+002
1.003815e+003,3.689022e+002
1.004779e+003,4.603914e+002
1.005744e+003,4.433333e+002
1.006708e+003,3.616568e+002
1.007672e+003,2.725828e+002
1.008636e+003,1.833728e+002
1.009600e+003,1.142535e+002
1.010565e+003,7.414142e+001
1.011529e+003,5.499897e+001
1.012493e+003,4.218339e+001
1.013457e+003,3.772845e+001
1.014422e+003,3.361179e+001
1.015386e+003,2.957639e+001
1.016350e+003,2.612246e+001
1.017314e+003,2.322562e+001
1.018279e+003,2.097344e+001
1.019243e+003,1.975403e+001
1.020207e+003,1.990355e+001
1.021171e+003,2.023909e+001
1.022135e+003,2.008609e+001
1.023100e+003,1.949177e+001
1.024064e+003,1.798773e+001
1.025028e+003,1.584556e+001
1.025992e+003,1.420312e+001
1.026957e+003,1.412231e+001
1.027921e+003,1.535549e+001
1.028885e+003,1.599030e+001
1.029849e+003,1.582563e+001
1.030814e+003,1.552249e+001
1.031778e+003,1.465277e+001
1.032742e+003,1.386280e+001
1.033706e+003,1.397853e+001
1.034671e+003,1.506346e+001
1.035635e+003,1.612986e+001
1.036599e+003,1.697281e+001
1.037563e+003,1.745333e+001
1.038527e+003,1.743989e+001
1.039492e+003,1.704905e+001
1.040456e+003,1.629556e+001
1.041420e+003,1.528491e+001
1.042384e+003,1.432564e+001
1.043349e+003,1.384812e+001
1.044313e+003,1.387856e+001
1.045277e+003,1.438685e+001
1.046241e+003,1.555587e+001
1.047206e+003,1.657672e+001
1.048170e+003,1.681857e+001
1.049134e+003,1.669311e+001
1.050098e+003,1.742037e+001
1.051063e+003,1.966079e+001
1.052027e+003,2.108633e+001
1.052991e+003,1.968845e+001
1.053955e+003,1.833497e+001
1.054919e+003,1.930768e+001
1.055884e+003,2.158709e+001
1.056848e+003,2.253292e+001
1.057812e+003,2.059089e+001
1.058776e+003,1.731244e+001
1.059741e+003,1.563675e+001
1.060705e+003,1.540177e+001
1.061669e+003,1.591619e+001
1.062633e+003,1.739651e+001
1.063598e+003,1.873195e+001
1.064562e+003,1.860004e+001
1.065526e+003,1.721432e+001
1.066490e+003,1.706906e+001
1.067454e+003,1.915356e+001
1.068419e+003,2.119567e+001
1.069383e+003,2.295549e+001
1.070347e+003,2.413273e+001
1.071311e+003,2.442065e+001
1.072276e+003,2.393723e+001
1.073240e+003,2.305969e+001
1.074204e+003,2.195019e+001
1.075168e+003,2.092723e+001
1.076133e+003,2.070387e+001
1.077097e+003,2.113853e+001
1.078061e+003,2.206830e+001
1.079025e+003,2.365384e+001
1.079990e+003,2.508936e+001
1.080954e+003,2.497443e+001
1.081918e+003,2.296189e+001
1.082882e+003,2.183676e+001
1.083846e+003,2.219635e+001
1.084811e+003,2.289929e+001
1.085775e+003,2.444488e+001
1.086739e+003,2.579879e+001
1.087703e+003,2.544387e+001
1.088668e+003,2.340110e+001
1.089632e+003,2.206210e+001
1.090596e+003,2.386345e+001
1.091560e+003,2.700573e+001
1.092525e+003,2.779120e+001
1.093489e+003,2.668256e+001
1.094453e+003,2.556221e+001
1.095417e+003,2.525367e+001
1.096381e+003,2.557633e+001
1.097346e+003,2.619545e+001
1.098310e+003,2.721371e+001
1.099274e+003,2.816891e+001
1.100238e+003,2.964892e+001
1.101203e+003,3.044841e+001
1.102167e+003,2.959240e+001
1.103131e+003,2.806810e+001
1.104095e+003,2.720057e+001
1.105060e+003,2.732672e+001
1.106024e+003,2.769191e+001
1.106988e+003,2.761005e+001
1.107952e+003,2.759305e+001
1.108917e+003,2.853237e+001
1.109881e+003,3.015762e+001
1.110845e+003,3.136556e+001
1.111809e+003,3.150689e+001
1.112773e+003,3.102863e+001
1.113738e+003,3.113391e+001
1.114702e+003,3.243809e+001
1.115666e+003,3.276366e+001
1.116630e+003,3.140328e+001
1.117595e+003,2.996720e+001
1.118559e+003,2.824048e+001
1.119523e+003,2.710360e+001
1.120487e+003,2.831471e+001
1.121452e+003,3.230547e+001
1.122416e+003,3.618621e+001
1.123380e+003,3.756553e+001
1.124344e+003,3.700999e+001
1.125308e+003,3.470903e+001
1.126273e+003,3.138189e+001
1.127237e+003,2.937245e+001
1.128201e+003,3.000495e+001
1.129165e+003,3.228457e+001
1.130130e+003,3.393244e+001
1.131094e+003,3.480060e+001
1.132058e+003,3.521072e+001
1.133022e+003,3.512865e+001
1.133987e+003,3.478743e+001
1.134951e+003,3.394832e+001
1.135915e+003,3.313060e+001
1.136879e+003,3.319389e+001
1.137844e+003,3.430772e+001
1.138808e+003,3.532113e+001
1.139772e+003,3.499614e+001
1.140736e+003,3.417426e+001
1.141700e+003,3.412914e+001
1.142665e+003,3.477569e+001
1.143629e+003,3.571402e+001
1.144593e+003,3.679266e+001
1.145557e+003,3.785496e+001
1.146522e+003,3.842104e+001
1.147486e+003,3.803607e+001
1.148450e+003,3.851236e+001
1.149414e+003,4.178633e+001
1.150379e+003,4.361345e+001
1.151343e+003,4.163695e+001
1.152307e+003,3.840929e+001
1.153271e+003,3.706188e+001
1.154235e+003,3.805096e+001
1.155200e+003,3.925766e+001
1.156164e+003,3.921287e+001
1.157128e+003,3.877782e+001
1.158092e+003,3.950254e+001
1.159057e+003,4.076489e+001
1.160021e+003,4.063061e+001
1.160985e+003,3.830048e+001
1.161949e+003,3.572643e+001
1.162914e+003,3.605946e+001
1.163878e+003,3.974134e+001
1.164842e+003,4.246111e+001
1.165806e+003,4.340782e+001
1.166771e+003,4.427233e+001
1.167735e+003,4.555012e+001
1.168699e+003,4.662286e+001
1.169663e+003,4.661428e+001
1.170627e+003,4.572004e+001
1.171592e+003,4.532211e+001
1.172556e+003,4.645729e+001
1.173520e+003,4.799957e+001
1.174484e+003,4.817104e+001
1.175449e+003,4.745799e+001
1.176413e+003,4.654802e+001
1.177377e+003,4.558374e+001
1.178341e+003,4.507464e+001
1.179306e+003,4.574903e+001
1.180270e+003,4.749973e+001
1.181234e+003,4.849971e+001
1.182198e+003,4.768132e+001
1.183162e+003,4.790623e+001
1.184127e+003,5.044336e+001
1.185091e+003,5.295460e+001
1.186055e+003,5.398292e+001
1.187019e+003,5.392247e+001
1.187984e+003,5.409785e+001
1.188948e+003,5.509319e+001
1.189912e+003,5.551165e+001
1.190876e+003,5.270840e+001
1.191841e+003,4.844841e+001
1.192805e+003,4.733030e+001
1.193769e+003,4.957359e+001
1.194733e+003,5.219753e+001
1.195698e+003,5.338820e+001
1.196662e+003,5.365250e+001
1.197626e+003,5.441560e+001
1.198590e+003,5.596537e+001
1.199554e+003,5.687746e+001
1.200519e+003,5.652242e+001
1.201483e+003,5.621804e+001
1.202447e+003,5.655779e+001
1.203411e+003,5.708049e+001
1.204376e+003,5.679448e+001
1.205340e+003,5.563330e+001
1.206304e+003,5.511707e+001
1.207268e+003,5.704812e+001
1.208233e+003,6.028060e+001
1.209197e+003,6.036183e+001
1.210161e+003,5.767962e+001
1.211125e+003,5.613529e+001
1.212089e+003,5.705691e+001
1.213054e+003,5.876343e+001
1.214018e+003,5.966097e+001
1.214982e+003,5.991175e+001
1.215946e+003,5.990842e+001
1.216911e+003,5.901875e+001
1.217875e+003,5.895794e+001
1.218839e+003,6.081710e+001
1.219803e+003,6.285194e+001
1.220768e+003,6.396816e+001
1.221732e+003,6.427330e+001
1.222696e+003,6.426459e+001
1.223660e+003,6.421787e+001
1.224625e+003,6.423881e+001
1.225589e+003,6.453273e+001
1.226553e+003,6.504298e+001
1.227517e+003,6.547852e+001
1.228481e+003,6.572866e+001
1.229446e+003,6.636092e+001
1.230410e+003,6.831201e+001
1.231374e+003,7.043229e+001
1.232338e+003,7.053149e+001
1.233303e+003,6.840440e+001
1.234267e+003,6.674695e+001
1.235231e+003,6.672032e+001
1.236195e+003,6.697337e+001
1.237160e+003,6.643062e+001
1.238124e+003,6.578024e+001
1.239088e+003,6.635271e+001
1.240052e+003,6.809773e+001
1.241016e+003,6.926477e+001
1.241981e+003,6.811428e+001
1.242945e+003,6.537106e+001
1.243909e+003,6.447591e+001
1.244873e+003,6.667722e+001
1.245838e+003,6.793471e+001
1.246802e+003,6.719304e+001
1.247766e+003,6.659570e+001
1.248730e+003,6.761983e+001
1.249695e+003,6.959922e+001
1.250659e+003,7.107417e+001
1.251623e+003,7.171873e+001
1.252587e+003,7.189311e+001
1.253552e+003,7.130776e+001
1.254516e+003,7.082066e+001
1.255480e+003,7.173202e+001
1.256444e+003,7.336543e+001
1.257408e+003,7.397768e+001
1.258373e+003,7.293833e+001
1.259337e+003,7.143520e+001
1.260301e+003,7.111636e+001
1.261265e+003,7.203530e+001
1.262230e+003,7.313409e+001
1.263194e+003,7.496248e+001
1.264158e+003,7.573154e+001
1.265122e+003,7.446621e+001
1.266087e+003,7.304002e+001
1.267051e+003,7.250466e+001
1.268015e+003,7.295973e+001
1.268979e+003,7.453951e+001
1.269943e+003,7.730723e+001
1.270908e+003,7.961757e+001
1.271872e+003,7.935991e+001
1.272836e+003,7.757688e+001
1.273800e+003,7.677102e+001
1.274765e+003,7.695119e+001
1.275729e+003,7.765279e+001
1.276693e+003,7.889906e+001
1.277657e+003,8.010439e+001
1.278622e+003,7.998326e+001
1.279586e+003,7.834640e+001
1.280550e+003,7.814287e+001
1.281514e+003,8.124159e+001
1.282479e+003,8.359465e+001
1.283443e+003,8.342230e+001
1.284407e+003,8.273606e+001
1.285371e+003,8.315471e+001
1.286335e+003,8.436488e+001
1.287300e+003,8.504374e+001
1.288264e+003,8.458559e+001
1.289228e+003,8.389258e+001
1.290192e+003,8.434084e+001
1.291157e+003,8.585618e+001
1.292121e+003,8.676207e+001
1.293085e+003,8.678503e+001
1.294049e+003,8.662964e+001
1.295014e+003,8.672561e+001
1.295978e+003,8.686251e+001
1.296942e+003,8.651674e+001
1.297906e+003,8.582755e+001
1.298870e+003,8.598717e+001
1.299835e+003,8.751778e+001
1.300799e+003,8.916587e+001
1.301763e+003,9.066398e+001
1.302727e+003,9.148558e+001
1.303692e+003,9.072691e+001
1.304656e+003,8.897471e+001
1.305620e+003,8.776381e+001
1.306584e+003,8.793355e+001
1.307549e+003,8.917661e+001
1.308513e+003,9.114540e+001
1.309477e+003,9.416205e+001
1.310441e+003,9.484257e+001
1.311406e+003,9.028401e+001
1.312370e+003,8.776801e+001
1.313334e+003,9.009141e+001
1.314298e+003,9.334938e+001
1.315263e+003,9.423332e+001
1.316227e+003,9.303789e+001
1.317191e+003,9.164510e+001
1.318155e+003,9.074772e+001
1.319120e+003,9.074834e+001
1.320084e+003,9.272064e+001
1.321048e+003,9.552493e+001
1.322012e+003,9.646610e+001
1.322976e+003,9.564836e+001
1.323941e+003,9.524329e+001
1.324905e+003,9.648579e+001
1.325869e+003,9.831838e+001
1.326833e+003,9.902148e+001
1.327798e+003,9.856702e+001
1.328762e+003,9.843968e+001
1.329726e+003,9.880910e+001
1.330690e+003,9.930489e+001
1.331655e+003,9.963811e+001
1.332619e+003,1.002520e+002
1.333583e+003,1.021069e+002
1.334547e+003,1.042874e+002
1.335511e+003,1.047673e+002
1.336476e+003,1.029135e+002
1.337440e+003,1.007412e+002
1.338404e+003,1.008721e+002
1.339368e+003,1.029371e+002
1.340333e+003,1.032648e+002
1.341297e+003,1.008174e+002
1.342261e+003,9.963428e+001
1.343225e+003,1.012432e+002
1.344190e+003,1.031764e+002
1.345154e+003,1.035348e+002
1.346118e+003,1.029777e+002
1.347082e+003,1.033305e+002
1.348047e+003,1.050232e+002
1.349011e+003,1.063393e+002
1.349975e+003,1.059416e+002
1.350939e+003,1.051604e+002
1.351903e+003,1.055158e+002
1.352868e+003,1.065140e+002
1.353832e+003,1.071623e+002
1.354796e+003,1.072041e+002
1.355760e+003,1.070103e+002
1.356725e+003,1.068784e+002
1.357689e+003,1.068520e+002
1.358653e+003,1.071047e+002
1.359617e+003,1.076822e+002
1.360582e+003,1.084080e+002
1.361546e+003,1.091928e+002
1.362510e+003,1.101235e+002
1.363474e+003,1.121787e+002
1.364438e+003,1.140005e+002
1.365403e+003,1.132609e+002
1.366367e+003,1.104133e+002
1.367331e+003,1.084760e+002
1.368295e+003,1.094435e+002
1.369260e+003,1.121385e+002
1.370224e+003,1.148599e+002
1.371188e+003,1.176754e+002
1.372152e+003,1.186369e+002
1.373117e+003,1.166615e+002
1.374081e+003,1.152126e+002
1.375045e+003,1.161631e+002
1.376009e+003,1.177564e+002
1.376974e+003,1.181366e+002
1.377938e+003,1.174267e+002
1.378902e+003,1.162004e+002
1.379866e+003,1.140876e+002
1.380830e+003,1.129460e+002
1.381795e+003,1.153116e+002
1.382759e+003,1.183472e+002
1.383723e+003,1.197731e+002
1.384687e+003,1.197602e+002
1.385652e+003,1.187207e+002
1.386616e+003,1.168641e+002
1.387580e+003,1.155672e+002
1.388544e+003,1.167332e+002
1.389509e+003,1.199430e+002
1.390473e+003,1.216802e+002
1.391437e+003,1.213273e+002
1.392401e+003,1.212483e+002
1.393365e+003,1.214958e+002
1.394330e+003,1.219884e+002
1.395294e+003,1.229961e+002
1.396258e+003,1.239076e+002
1.397222e+003,1.239842e+002
1.398187e+003,1.234385e+002
1.399151e+003,1.233373e+002
1.400115e+003,1.243154e+002
1.401079e+003,1.254359e+002
1.402044e+003,1.249962e+002
1.403008e+003,1.229849e+002
1.403972e+003,1.216561e+002
1.404936e+003,1.211200e+002
1.405901e+003,1.212055e+002
1.406865e+003,1.215975e+002
1.407829e+003,1.226915e+002
1.408793e+003,1.254747e+002
1.409757e+003,1.295205e+002
1.410722e+003,1.327517e+002
1.411686e+003,1.345119e+002
1.412650e+003,1.352126e+002
1.413614e+003,1.346435e+002
1.414579e+003,1.338841e+002
1.415543e+003,1.345185e+002
1.416507e+003,1.359286e+002
1.417471e+003,1.360673e+002
1.418436e+003,1.342417e+002
1.419400e+003,1.322622e+002
1.420364e+003,1.321174e+002
1.421328e+003,1.334552e+002
1.422292e+003,1.342329e+002
1.423257e+003,1.339980e+002
1.424221e+003,1.343586e+002
1.425185e+003,1.362868e+002
1.426149e+003,1.377456e+002
1.427114e+003,1.383562e+002
1.428078e+003,1.385525e+002
1.429042e+003,1.381709e+002
1.430006e+003,1.375343e+002
1.430971e+003,1.376382e+002
1.431935e+003,1.389617e+002
1.432899e+003,1.406046e+002
1.433863e+003,1.412843e+002
1.434828e+003,1.411779e+002
1.435792e+003,1.413987e+002
1.436756e+003,1.419654e+002
1.437720e+003,1.420514e+002
1.438684e+003,1.404421e+002
1.439649e+003,1.400537e+002
1.440613e+003,1.440769e+002
1.441577e+003,1.497524e+002
1.442541e+003,1.520408e+002
1.443506e+003,1.502954e+002
1.444470e+003,1.481178e+002
1.445434e+003,1.475708e+002
1.446398e+003,1.479337e+002
1.447363e+003,1.478896e+002
1.448327e+003,1.479003e+002
1.449291e+003,1.499539e+002
1.450255e+003,1.543338e+002
1.451219e+003,1.571949e+002
1.452184e+003,1.559480e+002
1.453148e+003,1.530439e+002
1.454112e+003,1.513885e+002
1.455076e+003,1.508370e+002
1.456041e+003,1.506391e+002
1.457005e+003,1.508200e+002
1.457969e+003,1.514078e+002
1.458933e+003,1.527243e+002
1.459898e+003,1.540729e+002
1.460862e+003,1.549688e+002
1.461826e+003,1.555096e+002
1.462790e+003,1.558397e+002
1.463755e+003,1.560663e+002
1.464719e+003,1.563499e+002
1.465683e+003,1.567993e+002
1.466647e+003,1.576762e+002
1.467611e+003,1.598818e+002
1.468576e+003,1.639137e+002
1.469540e+003,1.650031e+002
1.470504e+003,1.598719e+002
1.471468e+003,1.570335e+002
1.472433e+003,1.592114e+002
1.473397e+003,1.621863e+002
1.474361e+003,1.638435e+002
1.475325e+003,1.643213e+002
1.476290e+003,1.639727e+002
1.477254e+003,1.630657e+002
1.478218e+003,1.620777e+002
1.479182e+003,1.614300e+002
1.480146e+003,1.614976e+002
1.481111e+003,1.632397e+002
1.482075e+003,1.669362e+002
1.483039e+003,1.681488e+002
1.484003e+003,1.647407e+002
1.484968e+003,1.626140e+002
1.485932e+003,1.639945e+002
1.486896e+003,1.665374e+002
1.487860e+003,1.686365e+002
1.488825e+003,1.699971e+002
1.489789e+003,1.704461e+002
1.490753e+003,1.700304e+002
1.491717e+003,1.693330e+002
1.492682e+003,1.686685e+002
1.493646e+003,1.679583e+002
1.494610e+003,1.668168e+002
1.495574e+003,1.654988e+002
1.496538e+003,1.648733e+002
1.497503e+003,1.650353e+002
1.498467e+003,1.661668e+002
1.499431e+003,1.692562e+002
1.500395e+003,1.724942e+002
1.501360e+003,1.735691e+002
1.502324e+003,1.729514e+002
1.503288e+003,1.723239e+002
1.504252e+003,1.717963e+002
1.505217e+003,1.712224e+002
1.506181e+003,1.707308e+002
1.507145e+003,1.700419e+002
1.508109e+003,1.681786e+002
1.509073e+003,1.663598e+002
1.510038e+003,1.672805e+002
1.511002e+003,1.707705e+002
1.511966e+003,1.728300e+002
1.512930e+003,1.707915e+002
1.513895e+003,1.670829e+002
1.514859e+003,1.658563e+002
1.515823e+003,1.669339e+002
1.516787e+003,1.670017e+002
1.517752e+003,1.654678e+002
1.518716e+003,1.648648e+002
1.519680e+003,1.666848e+002
1.520644e+003,1.682610e+002
1.521609e+003,1.684226e+002
1.522573e+003,1.676803e+002
1.523537e+003,1.664600e+002
1.524501e+003,1.652481e+002
1.525465e+003,1.648595e+002
1.526430e+003,1.656046e+002
1.527394e+003,1.664276e+002
1.528358e+003,1.658182e+002
1.529322e+003,1.638799e+002
1.530287e+003,1.619617e+002
1.531251e+003,1.593061e+002
1.532215e+003,1.584895e+002
1.533179e+003,1.613470e+002
1.534144e+003,1.634357e+002
1.535108e+003,1.623590e+002
1.536072e+003,1.601206e+002
1.537036e+003,1.586113e+002
1.538000e+003,1.581472e+002
1.538965e+003,1.587662e+002
1.539929e+003,1.602654e+002
1.540893e+003,1.611183e+002
1.541857e+003,1.595934e+002
1.542822e+003,1.564398e+002
1.543786e+003,1.541388e+002
1.544750e+003,1.525864e+002
1.545714e+003,1.520042e+002
1.546679e+003,1.529146e+002
1.547643e+003,1.538927e+002
1.548607e+003,1.553843e+002
1.549571e+003,1.562280e+002
1.550536e+003,1.541543e+002
1.551500e+003,1.503839e+002
1.552464e+003,1.488694e+002
1.553428e+003,1.507624e+002
1.554392e+003,1.529250e+002
1.555357e+003,1.527758e+002
1.556321e+003,1.510822e+002
1.557285e+003,1.492428e+002
1.558249e+003,1.474338e+002
1.559214e+003,1.467089e+002
1.560178e+003,1.475869e+002
1.561142e+003,1.482267e+002
1.562106e+003,1.480411e+002
1.563071e+003,1.470479e+002
1.564035e+003,1.449939e+002
1.564999e+003,1.425130e+002
1.565963e+003,1.408668e+002
1.566927e+003,1.401607e+002
1.567892e+003,1.392675e+002
1.568856e+003,1.374711e+002
1.569820e+003,1.358354e+002
1.570784e+003,1.360000e+002
1.571749e+003,1.370415e+002
1.572713e+003,1.367063e+002
1.573677e+003,1.350712e+002
1.574641e+003,1.333772e+002
1.575606e+003,1.314668e+002
1.576570e+003,1.303531e+002
1.577534e+003,1.321816e+002
1.578498e+003,1.348943e+002
1.579463e+003,1.339519e+002
1.580427e+003,1.294226e+002
1.581391e+003,1.254414e+002
1.582355e+003,1.230665e+002
1.583319e+003,1.218577e+002
1.584284e+003,1.222632e+002
1.585248e+003,1.231946e+002
1.586212e+003,1.233059e+002
1.587176e+003,1.224448e+002
1.588141e+003,1.205043e+002
1.589105e+003,1.175951e+002
1.590069e+003,1.148110e+002
1.591033e+003,1.125990e+002
1.591998e+003,1.109782e+002
1.592962e+003,1.101552e+002
1.593926e+003,1.099922e+002
1.594890e+003,1.097869e+002
1.595854e+003,1.094955e+002
1.596819e+003,1.096572e+002
1.597783e+003,1.111027e+002
1.598747e+003,1.117995e+002
1.599711e+003,1.096653e+002
1.600676e+003,1.063366e+002
1.601640e+003,1.031962e+002
1.602604e+003,1.008277e+002
1.603568e+003,1.010248e+002
1.604533e+003,1.046940e+002
1.605497e+003,1.074158e+002
1.606461e+003,1.037420e+002
1.607425e+003,9.637367e+001
1.608390e+003,9.295048e+001
1.609354e+003,9.366743e+001
1.610318e+003,9.444267e+001
1.611282e+003,9.473586e+001
1.612246e+003,9.437498e+001
1.613211e+003,9.294032e+001
1.614175e+003,9.113837e+001
1.615139e+003,8.956332e+001
1.616103e+003,8.806633e+001
1.617068e+003,8.597859e+001
1.618032e+003,8.343339e+001
1.618996e+003,8.188219e+001
1.619960e+003,8.219873e+001
1.620925e+003,8.312469e+001
1.621889e+003,8.314339e+001
1.622853e+003,8.235307e+001
1.623817e+003,8.105464e+001
1.624781e+003,7.924548e+001
1.625746e+003,7.749388e+001
1.626710e+003,7.583065e+001
1.627674e+003,7.412901e+001
1.628638e+003,7.196283e+001
1.629603e+003,6.986963e+001
1.630567e+003,6.812209e+001
1.631531e+003,6.697948e+001
1.632495e+003,6.733369e+001
1.633460e+003,6.914923e+001
1.634424e+003,7.016377e+001
1.635388e+003,6.850667e+001
1.636352e+003,6.567509e+001
1.637317e+003,6.470601e+001
1.638281e+003,6.537807e+001
1.639245e+003,6.412653e+001
1.640209e+003,6.003511e+001
1.641173e+003,5.724180e+001
1.642138e+003,5.798773e+001
1.643102e+003,5.863624e+001
1.644066e+003,5.669495e+001
1.645030e+003,5.430604e+001
1.645995e+003,5.380441e+001
1.646959e+003,5.462999e+001
1.647923e+003,5.486897e+001
1.648887e+003,5.394788e+001
1.649852e+003,5.279766e+001
1.650816e+003,5.221806e+001
1.651780e+003,5.179638e+001
1.652744e+003,5.048973e+001
1.653708e+003,4.834284e+001
1.654673e+003,4.713420e+001
1.655637e+003,4.739660e+001
1.656601e+003,4.692770e+001
1.657565e+003,4.428692e+001
1.658530e+003,4.190910e+001
1.659494e+003,4.156844e+001
1.660458e+003,4.178992e+001
1.661422e+003,4.089054e+001
1.662387e+003,3.911484e+001
1.663351e+003,3.770698e+001
1.664315e+003,3.708837e+001
1.665279e+003,3.652443e+001
1.666244e+003,3.525048e+001
1.667208e+003,3.389125e+001
1.668172e+003,3.397838e+001
1.669136e+003,3.533458e+001
1.670100e+003,3.559625e+001
1.671065e+003,3.427745e+001
1.672029e+003,3.314438e+001
1.672993e+003,3.321932e+001
1.673957e+003,3.311651e+001
1.674922e+003,3.176089e+001
1.675886e+003,2.981434e+001
1.676850e+003,2.750950e+001
1.677814e+003,2.530455e+001
1.678779e+003,2.469673e+001
1.679743e+003,2.617112e+001
1.680707e+003,2.743975e+001
1.681671e+003,2.625778e+001
1.682635e+003,2.426729e+001
1.683600e+003,2.473630e+001
1.684564e+003,2.720608e+001
1.685528e+003,2.849937e+001
1.686492e+003,2.813849e+001
1.687457e+003,2.735496e+001
1.688421e+003,2.649435e+001
1.689385e+003,2.560217e+001
1.690349e+003,2.463380e+001
1.691314e+003,2.379639e+001
1.692278e+003,2.349366e+001
1.693242e+003,2.344833e+001
1.694206e+003,2.269780e+001
1.695171e+003,2.096837e+001
1.696135e+003,1.904957e+001
1.697099e+003,1.716182e+001
1.698063e+003,1.561210e+001
1.699027e+003,1.488533e+001
1.699992e+003,1.483217e+001
1.700956e+003,1.490030e+001
1.701920e+003,1.501803e+001
1.702884e+003,1.570135e+001
1.703849e+003,1.752742e+001
1.704813e+003,1.824380e+001
1.705777e+003,1.510494e+001
1.706741e+003,1.084849e+001
1.707706e+003,1.025474e+001
1.708670e+003,1.246942e+001
1.709634e+003,1.436783e+001
1.710598e+003,1.567249e+001
1.711563e+003,1.602724e+001
1.712527e+003,1.513940e+001
1.713491e+003,1.336661e+001
1.714455e+003,9.973340e+000
1.715419e+003,6.461725e+000
1.716384e+003,5.756384e+000
1.717348e+003,7.536908e+000
1.718312e+003,9.139612e+000
1.719276e+003,9.727307e+000
1.720241e+003,9.655157e+000
1.721205e+003,9.009473e+000
1.722169e+003,8.357758e+000
1.723133e+003,8.834412e+000
1.724098e+003,1.023976e+001
1.725062e+003,1.053712e+001
1.726026e+003,9.370184e+000
1.726990e+003,8.451569e+000
1.727954e+003,8.064398e+000
1.728919e+003,7.949152e+000
1.729883e+003,8.275152e+000
1.730847e+003,8.597387e+000
1.731811e+003,8.420886e+000
1.732776e+003,7.887164e+000
1.733740e+003,7.366919e+000
1.734704e+003,6.956415e+000
1.735668e+003,6.562744e+000
1.736633e+003,6.123004e+000
1.737597e+003,5.684198e+000
1.738561e+003,5.354956e+000
1.739525e+003,5.091730e+000
1.740490e+003,4.519727e+000
1.741454e+003,3.421057e+000
1.742418e+003,2.697589e+000
1.743382e+003,2.278894e+000
1.744346e+003,2.297217e+000
1.745311e+003,3.591388e+000
1.746275e+003,4.410205e+000
1.747239e+003,3.088760e+000
1.748203e+003,1.185809e+000
1.749168e+003,6.648620e-001
1.750132e+003,1.473566e+000
1.751096e+003,2.612503e+000
1.752060e+003,3.579217e+000
1.753025e+003,4.292243e+000
1.753989e+003,4.694665e+000
1.754953e+003,4.745062e+000
1.755917e+003,4.227167e+000
1.756881e+003,3.116071e+000
1.757846e+003,2.608426e+000
1.758810e+003,3.215005e+000
1.759774e+003,3.067929e+000
1.760738e+003,5.660980e-001
1.761703e+003,-9.593628e-001
1.762667e+003,6.675720e-001
1.763631e+003,2.758954e+000
1.764595e+003,3.415555e+000
1.765560e+003,2.904624e+000
1.766524e+003,1.658984e+000
1.767488e+003,-2.956543e-002
1.768452e+003,-1.371774e+000
1.769417e+003,-1.944901e+000
1.770381e+003,-1.862198e+000
1.771345e+003,-7.293854e-001
1.772309e+003,6.860779e-001
1.773273e+003,9.609375e-002
1.774238e+003,-2.292264e+000
1.775202e+003,-3.806332e+000
1.776166e+003,-4.003510e+000
1.777130e+003,-3.824759e+000
1.778095e+003,-3.549737e+000
1.779059e+003,-3.130612e+000
1.780023e+003,-2.423352e+000
1.780987e+003,-1.648572e+000
1.781952e+003,-1.175214e+000
1.782916e+003,-1.012872e+000
1.783880e+003,-1.029614e+000
1.784844e+003,-1.205212e+000
1.785808e+003,-1.329605e+000
1.786773e+003,-1.055521e+000
1.787737e+003,-9.946899e-001
1.788701e+003,-2.111121e+000
1.789665e+003,-3.439008e+000
1.790630e+003,-3.140265e+000
1.791594e+003,-1.730084e+000
1.792558e+003,-1.473489e+000
1.793522e+003,-2.870862e+000
1.794487e+003,-4.368188e+000
1.795451e+003,-5.008395e+000
1.796415e+003,-4.870883e+000
1.797379e+003,-3.964005e+000
1.798344e+003,-2.573883e+000
1.799308e+003,-1.979233e+000
1.800272e+003,-2.359174e+000
1.801236e+003,-3.002368e+000
1.802201e+003,-4.680978e+000
1.803165e+003,-5.299624e+000
1.804129e+003,-3.535931e+000
1.805093e+003,-1.830341e+000
1.806057e+003,-1.378146e+000
1.807022e+003,-1.804279e+000
1.807986e+003,-3.177002e+000
1.808950e+003,-4.786481e+000
1.809914e+003,-5.218124e+000
1.810879e+003,-4.182385e+000
1.811843e+003,-2.592926e+000
1.812807e+003,-1.101688e+000
1.813771e+003,-2.404877e-001
1.814736e+003,-1.169382e+000
1.815700e+003,-3.346436e+000
1.816664e+003,-3.549393e+000
1.817628e+003,-1.539621e+000
1.818593e+003,-1.173523e-001
1.819557e+003,4.740814e-001
1.820521e+003,4.179993e-001
1.821485e+003,-5.682526e-001
1.822449e+003,-1.775101e+000
1.823414e+003,-3.130988e+000
1.824378e+003,-4.190238e+000
1.825342e+003,-3.996402e+000
1.826306e+003,-2.875497e+000
1.827271e+003,-2.276263e+000
1.828235e+003,-2.549240e+000
1.829199e+003,-3.009164e+000
1.830163e+003,-3.453918e+000
1.831128e+003,-3.739276e+000
1.832092e+003,-3.764404e+000
1.833056e+003,-3.563632e+000
1.834020e+003,-2.985910e+000
1.834984e+003,-2.270398e+000
1.835949e+003,-2.313419e+000
1.836913e+003,-3.143582e+000
1.837877e+003,-3.392172e+000
1.838841e+003,-2.319070e+000
1.839806e+003,-7.984802e-001
1.840770e+003,2.887085e-001
1.841734e+003,8.435333e-001
1.842698e+003,5.768036e-001
1.843663e+003,-5.429901e-001
1.844627e+003,-1.742151e+000
1.845591e+003,-3.637295e+000
1.846555e+003,-4.669302e+000
1.847520e+003,-4.630868e+000
1.848484e+003,-4.035422e+000
1.849448e+003,-2.466089e+000
1.850412e+003,-8.993683e-001
1.851376e+003,-7.524109e-002
1.852341e+003,1.231964e-001
1.853305e+003,-2.666443e-001
1.854269e+003,-9.766846e-001
1.855233e+003,-1.117883e+000
1.856198e+003,-2.836182e-001
1.857162e+003,6.249664e-001
1.858126e+003,7.600830e-001
1.859090e+003,2.951446e-001
1.860055e+003,-6.547272e-001
1.861019e+003,-2.011517e+000
1.861983e+003,-3.199219e+000
1.862947e+003,-4.198031e+000
1.863911e+003,-3.879190e+000
1.864876e+003,-1.497989e+000
1.865840e+003,1.276306e-001
1.866804e+003,-9.072968e-001
1.867768e+003,-2.868179e+000
1.868733e+003,-4.240710e+000
1.869697e+003,-4.864130e+000
1.870661e+003,-3.755786e+000
1.871625e+003,-8.955323e-001
1.872590e+003,1.427582e-001
1.873554e+003,-2.346051e+000
1.874518e+003,-3.908585e+000
1.875482e+003,-2.583050e+000
1.876447e+003,-8.452179e-001
1.877411e+003,1.537018e-001
1.878375e+003,5.235596e-001
1.879339e+003,-4.025879e-002
1.880303e+003,-9.564667e-001
1.881268e+003,-7.278931e-001
1.882232e+003,5.699860e-001
1.883196e+003,8.169556e-001
1.884160e+003,-1.015021e+000
1.885125e+003,-2.867355e+000
1.886089e+003,-2.380798e+000
1.887053e+003,-4.532654e-001
1.888017e+003,5.535919e-001
1.888982e+003,6.460449e-001
1.889946e+003,4.940796e-001
1.890910e+003,6.564941e-002
1.891874e+003,-4.071899e-001
1.892839e+003,-9.165069e-001
1.893803e+003,-1.479877e+000
1.894767e+003,-2.331668e+000
1.895731e+003,-2.913318e+000
1.896695e+003,-2.367709e+000
1.897660e+003,-1.422238e+000
1.898624e+003,-1.532379e+000
1.899588e+003,-2.541373e+000
1.900552e+003,-2.631912e+000
1.901517e+003,-1.139072e+000
1.902481e+003,-7.261352e-002
1.903445e+003,-3.984192e-001
1.904409e+003,-1.130450e+000
1.905374e+003,-1.797852e+000
1.906338e+003,-2.325339e+000
1.907302e+003,-2.723099e+000
1.908266e+003,-2.987766e+000
1.909230e+003,-3.016281e+000
1.910195e+003,-2.837894e+000
1.911159e+003,-2.651257e+000
1.912123e+003,-2.519647e+000
1.913087e+003,-2.214532e+000
1.914052e+003,-1.518295e+000
1.915016e+003,-7.827362e-001
1.915980e+003,-7.396606e-001
1.916944e+003,-1.331888e+000
1.917909e+003,-1.878348e+000
1.918873e+003,-2.373236e+000
1.919837e+003,-2.757822e+000
1.920801e+003,-3.148209e+000
1.921766e+003,-3.132156e+000
1.922730e+003,-2.266376e+000
1.923694e+003,-1.465369e+000
1.924658e+003,-1.614365e+000
1.925622e+003,-1.972965e+000
1.926587e+003,-1.537280e+000
1.927551e+003,-5.299194e-001
1.928515e+003,2.823364e-001
1.929479e+003,8.562866e-001
1.930444e+003,7.874146e-001
1.931408e+003,-8.324310e-001
1.932372e+003,-1.957550e+000
1.933336e+003,-9.752594e-001
1.934301e+003,1.840301e-001
1.935265e+003,-5.182160e-001
1.936229e+003,-1.733154e+000
1.937193e+003,-1.201608e+000
1.938157e+003,5.761108e-001
1.939122e+003,1.625238e+000
1.940086e+003,1.480273e+000
1.941050e+003,1.090295e+000
1.942014e+003,1.018927e+000
1.942979e+003,9.196747e-001
1.943943e+003,3.833130e-001
1.944907e+003,-4.471619e-001
1.945871e+003,-1.460019e+000
1.946836e+003,-2.564740e+000
1.947800e+003,-2.029019e+000
1.948764e+003,3.968689e-001
1.949728e+003,1.964807e+000
1.950693e+003,1.921262e+000
1.951657e+003,1.748807e+000
1.952621e+003,2.449881e+000
1.953585e+003,2.788159e+000
1.954549e+003,9.530579e-001
1.955514e+003,-1.677628e+000
1.956478e+003,-1.775967e+000
1.957442e+003,4.555267e-001
1.958406e+003,1.797345e+000
1.959371e+003,1.983072e+000
1.960335e+003,1.785544e+000
1.961299e+003,6.989563e-001
1.962263e+003,1.441437e-001
1.963228e+003,1.318561e+000
1.964192e+003,2.381973e+000
1.965156e+003,1.668628e+000
1.966120e+003,3.499939e-001
1.967084e+003,-5.983581e-002
1.968049e+003,3.861938e-001
1.969013e+003,9.462982e-001
1.969977e+003,1.400345e+000
1.970941e+003,2.161862e+000
1.971906e+003,3.548996e+000
1.972870e+003,4.403427e+000
1.973834e+003,2.998932e+000
1.974798e+003,7.692383e-001
1.975763e+003,8.382569e-002
1.976727e+003,6.220490e-001
1.977691e+003,1.864532e+000
1.978655e+003,3.516074e+000
1.979620e+003,4.079324e+000
1.980584e+003,3.297122e+000
1.981548e+003,2.799728e+000
1.982512e+003,3.445724e+000
1.983476e+003,4.075714e+000
1.984441e+003,3.456207e+000
1.985405e+003,2.194107e+000
1.986369e+003,1.776309e+000
1.987333e+003,2.208759e+000
1.988298e+003,2.201117e+000
1.989262e+003,1.533115e+000
1.990226e+003,8.417541e-001
1.991190e+003,-4.691834e-001
1.992155e+003,-5.935761e-001
1.993119e+003,2.286600e+000
1.994083e+003,4.798978e+000
1.995047e+003,5.225784e+000
1.996011e+003,4.385904e+000
1.996976e+003,2.438510e+000
1.997940e+003,1.551544e-001
1.998904e+003,-7.767609e-001
1.999868e+003,-2.307709e-001
2.000833e+003,6.761932e-001
2.001797e+003,1.904932e+000
2.002761e+003,2.755829e+000
2.003725e+003,2.746677e+000
2.004690e+003,2.547681e+000
2.005654e+003,2.324414e+000
2.006618e+003,2.359729e+000
2.007582e+003,3.409400e+000
2.008547e+003,4.671442e+000
2.009511e+003,4.535028e+000
2.010475e+003,3.246414e+000
2.011439e+003,2.366184e+000
2.012403e+003,2.456757e+000
2.013368e+003,3.071945e+000
2.014332e+003,3.951148e+000
2.015296e+003,4.728995e+000
2.016260e+003,4.836383e+000
2.017225e+003,4.553604e+000
2.018189e+003,4.441586e+000
2.019153e+003,4.487113e+000
2.020117e+003,4.729077e+000
2.021082e+003,5.135226e+000
2.022046e+003,5.663519e+000
2.023010e+003,6.304120e+000
2.023974e+003,5.873962e+000
2.024938e+003,3.576746e+000
2.025903e+003,1.538055e+000
2.026867e+003,2.148129e+000
2.027831e+003,3.963483e+000
2.028795e+003,3.429239e+000
2.029760e+003,7.246552e-001
2.030724e+003,8.057556e-002
2.031688e+003,2.155450e+000
2.032652e+003,3.720114e+000
2.033617e+003,4.820951e+000
2.034581e+003,5.005624e+000
2.035545e+003,3.357535e+000
2.036509e+003,2.171884e+000
2.037474e+003,3.158624e+000
2.038438e+003,4.619775e+000
2.039402e+003,4.593924e+000
2.040366e+003,3.836288e+000
2.041330e+003,4.320230e+000
2.042295e+003,6.026618e+000
2.043259e+003,6.285352e+000
2.044223e+003,3.758048e+000
2.045187e+003,2.501648e+000
2.046152e+003,4.436652e+000
2.047116e+003,6.156354e+000
2.048080e+003,6.128070e+000
2.049044e+003,5.664508e+000
2.050009e+003,5.753607e+000
2.050973e+003,5.993842e+000
2.051937e+003,5.736536e+000
2.052901e+003,5.193265e+000
2.053865e+003,4.893112e+000
2.054830e+003,4.925436e+000
2.055794e+003,5.131842e+000
2.056758e+003,5.455435e+000
2.057722e+003,5.891736e+000
2.058687e+003,6.754254e+000
2.059651e+003,7.397705e+000
2.060615e+003,6.916894e+000
2.061579e+003,5.972730e+000
2.062544e+003,5.426697e+000
2.063508e+003,5.264243e+000
2.064472e+003,5.345084e+000
2.065436e+003,5.515558e+000
2.066401e+003,5.471570e+000
2.067365e+003,5.131335e+000
2.068329e+003,4.607169e+000
2.069293e+003,3.999078e+000
2.070258e+003,3.812988e+000
2.071222e+003,4.709704e+000
2.072186e+003,6.304144e+000
2.073150e+003,8.115961e+000
2.074115e+003,9.851575e+000
2.075079e+003,9.981067e+000
2.076043e+003,8.624860e+000
2.077007e+003,7.319922e+000
2.077971e+003,6.356421e+000
2.078936e+003,5.696979e+000
2.079900e+003,5.311377e+000
2.080864e+003,5.112357e+000
2.081828e+003,5.048819e+000
2.082792e+003,5.112314e+000
2.083757e+003,5.289762e+000
2.084721e+003,5.569067e+000
2.085685e+003,5.940076e+000
2.086649e+003,6.422101e+000
2.087614e+003,7.032654e+000
2.088578e+003,7.890887e+000
2.089542e+003,8.282245e+000
2.090506e+003,7.991425e+000
2.091471e+003,7.463214e+000
2.092435e+003,6.713147e+000
2.093399e+003,6.196350e+000
2.094363e+003,6.304968e+000
2.095328e+003,6.673316e+000
2.096292e+003,6.925555e+000
2.097256e+003,6.928576e+000
2.098220e+003,6.102557e+000
2.099185e+003,4.255035e+000
2.100149e+003,4.211279e+000
2.101113e+003,7.726318e+000
2.102077e+003,9.698230e+000
2.103042e+003,9.473615e+000
2.104006e+003,8.454962e+000
2.104970e+003,5.807874e+000
2.105934e+003,3.808600e+000
2.106898e+003,3.917459e+000
2.107863e+003,5.028872e+000
2.108827e+003,6.592413e+000
2.109791e+003,8.104327e+000
2.110755e+003,8.409131e+000
2.111719e+003,7.485986e+000
2.112684e+003,6.582910e+000
2.113648e+003,5.827551e+000
2.114612e+003,5.371015e+000
2.115576e+003,5.639136e+000
2.116541e+003,5.568054e+000
2.117505e+003,4.048178e+000
2.118469e+003,2.979355e+000
2.119433e+003,3.852124e+000
2.120398e+003,5.534051e+000
2.121362e+003,7.251636e+000
2.122326e+003,8.549017e+000
2.123290e+003,8.796362e+000
2.124255e+003,8.117584e+000
2.125219e+003,7.282861e+000
2.126183e+003,6.470660e+000
2.127147e+003,5.843600e+000
2.128112e+003,5.452408e+000
2.129076e+003,5.383337e+000
2.130040e+003,5.854251e+000
2.131004e+003,6.430243e+000
2.131969e+003,6.861487e+000
2.132933e+003,7.079980e+000
2.133897e+003,7.069067e+000
2.134861e+003,6.882025e+000
2.135825e+003,6.618299e+000
2.136790e+003,6.185523e+000
2.137754e+003,5.122046e+000
2.138718e+003,3.414569e+000
2.139682e+003,2.259497e+000
2.140646e+003,2.400220e+000
2.141611e+003,3.087933e+000
2.142575e+003,3.919748e+000
2.143539e+003,4.702725e+000
2.144503e+003,5.454785e+000
2.145468e+003,5.964948e+000
2.146432e+003,5.753586e+000
2.147396e+003,5.109854e+000
2.148360e+003,4.682761e+000
2.149325e+003,4.429715e+000
2.150289e+003,3.715457e+000
2.151253e+003,2.491263e+000
2.152217e+003,1.658069e+000
2.153182e+003,1.750015e+000
2.154146e+003,2.366562e+000
2.155110e+003,3.426938e+000
2.156074e+003,4.352548e+000
2.157039e+003,4.097327e+000
2.158003e+003,3.346936e+000
2.158967e+003,3.316949e+000
2.159931e+003,3.756683e+000
2.160896e+003,4.108060e+000
2.161860e+003,4.182184e+000
2.162824e+003,3.453763e+000
2.163788e+003,2.108981e+000
2.164752e+003,1.732925e+000
2.165717e+003,3.022644e+000
2.166681e+003,4.411719e+000
2.167645e+003,4.588309e+000
2.168609e+003,3.947092e+000
2.169573e+003,2.717108e+000
2.170538e+003,1.317529e+000
2.171502e+003,3.633423e-001
2.172466e+003,-1.036804e-001
2.173430e+003,4.286621e-001
2.174395e+003,1.561551e+000
2.175359e+003,1.802212e+000
2.176323e+003,1.051718e+000
2.177287e+003,3.967590e-001
2.178252e+003,2.804169e-001
2.179216e+003,4.584228e-001
2.180180e+003,7.776214e-001
2.181144e+003,1.032892e+000
2.182109e+003,7.804626e-001
2.183073e+003,5.235199e-001
2.184037e+003,1.888168e+000
2.185001e+003,3.773331e+000
2.185966e+003,2.840497e+000
2.186930e+003,6.470032e-002
2.187894e+003,-1.026798e+000
2.188858e+003,-3.020599e-001
2.189823e+003,3.889465e-001
2.190787e+003,3.642975e-001
2.191751e+003,-5.503204e-001
2.192715e+003,-2.320636e+000
2.193679e+003,-3.726401e+000
2.194644e+003,-3.603406e+000
2.195608e+003,-2.701993e+000
2.196572e+003,-2.112451e+000
2.197536e+003,-1.718146e+000
2.198500e+003,-1.077756e+000
2.199465e+003,-4.108368e-001
2.200429e+003,-6.091980e-001
2.201393e+003,-1.427554e+000
2.202357e+003,-1.639130e+000
2.203322e+003,-1.109799e+000
2.204286e+003,-4.756348e-001
2.205250e+003,-4.895935e-002
2.206214e+003,-1.661133e-001
2.207179e+003,-1.057059e+000
2.208143e+003,-1.879718e+000
2.209107e+003,-1.525677e+000
2.210071e+003,-7.359680e-001
2.211036e+003,-1.112921e+000
2.212000e+003,-1.986102e+000
2.212964e+003,-1.290744e+000
2.213928e+003,2.072205e-001
2.214893e+003,-1.455444e-001
2.215857e+003,-2.053656e+000
2.216821e+003,-3.267712e+000
2.217785e+003,-3.299554e+000
2.218750e+003,-3.092883e+000
2.219714e+003,-3.110721e+000
2.220678e+003,-3.137353e+000
2.221642e+003,-2.971991e+000
2.222606e+003,-2.794504e+000
2.223571e+003,-3.000690e+000
2.224535e+003,-3.259241e+000
2.225499e+003,-2.745017e+000
2.226463e+003,-1.934500e+000
2.227427e+003,-1.946429e+000
2.228392e+003,-2.499139e+000
2.229356e+003,-2.766516e+000
2.230320e+003,-2.610724e+000
2.231284e+003,-1.909436e+000
2.232249e+003,-8.824890e-001
2.233213e+003,-7.390350e-001
2.234177e+003,-2.036224e+000
2.235141e+003,-3.440283e+000
2.236106e+003,-3.917883e+000
2.237070e+003,-3.572641e+000
2.238034e+003,-1.743692e+000
2.238998e+003,8.267822e-002
2.239963e+003,-6.791137e-001
2.240927e+003,-2.564041e+000
2.241891e+003,-3.036841e+000
2.242855e+003,-2.419711e+000
2.243820e+003,-1.776392e+000
2.244784e+003,-1.434796e+000
2.245748e+003,-1.713718e+000
2.246712e+003,-2.528711e+000
2.247677e+003,-2.881610e+000
2.248641e+003,-2.221704e+000
2.249605e+003,-1.290698e+000
2.250569e+003,-4.931397e-001
2.251533e+003,1.123962e-002
2.252498e+003,-5.509949e-002
2.253462e+003,-3.727997e-001
2.254426e+003,-7.473572e-001
2.255390e+003,-1.021820e+000
2.256354e+003,-8.593323e-001
2.257319e+003,-5.633301e-001
2.258283e+003,-7.723694e-001
2.259247e+003,-1.387595e+000
2.260211e+003,-1.759485e+000
2.261176e+003,-1.739560e+000
2.262140e+003,-1.806354e+000
2.263104e+003,-2.213788e+000
2.264068e+003,-2.617993e+000
2.265033e+003,-2.840768e+000
2.265997e+003,-2.977533e+000
2.266961e+003,-3.082718e+000
2.267925e+003,-3.140933e+000
2.268890e+003,-3.098450e+000
2.269854e+003,-3.038721e+000
2.270818e+003,-2.915582e+000
2.271782e+003,-2.900702e+000
2.272747e+003,-3.463992e+000
2.273711e+003,-4.381235e+000
2.274675e+003,-4.630176e+000
2.275639e+003,-4.004895e+000
2.276604e+003,-3.822168e+000
2.277568e+003,-4.813354e+000
2.278532e+003,-5.408841e+000
2.279496e+003,-5.453299e+000
2.280460e+003,-4.769211e+000
2.281425e+003,-1.783447e+000
2.282389e+003,1.245728e-001
2.283353e+003,-2.077976e+000
2.284317e+003,-5.160483e+000
2.285281e+003,-6.244943e+000
2.286246e+003,-6.015167e+000
2.287210e+003,-5.644055e+000
2.288174e+003,-5.213443e+000
2.289138e+003,-4.836664e+000
2.290103e+003,-4.486084e+000
2.291067e+003,-4.352194e+000
2.292031e+003,-4.619034e+000
2.292995e+003,-4.698651e+000
2.293960e+003,-4.130545e+000
2.294924e+003,-4.321933e+000
2.295888e+003,-6.274264e+000
2.296852e+003,-7.774957e+000
2.297817e+003,-7.638003e+000
2.298781e+003,-6.741818e+000
2.299745e+003,-5.551776e+000
2.300709e+003,-4.566580e+000
2.301674e+003,-4.793503e+000
2.302638e+003,-5.954233e+000
2.303602e+003,-6.553030e+000
2.304566e+003,-6.568545e+000
2.305531e+003,-6.885169e+000
2.306495e+003,-7.711221e+000
2.307459e+003,-6.451614e+000
2.308423e+003,-2.504416e+000
2.309387e+003,-2.495636e-001
2.310352e+003,-8.889130e-001
2.311316e+003,-2.572000e+000
2.312280e+003,-4.457809e+000
2.313244e+003,-5.789060e+000
2.314208e+003,-5.937973e+000
2.315173e+003,-5.479703e+000
2.316137e+003,-5.092450e+000
2.317101e+003,-5.075693e+000
2.318065e+003,-6.865540e+000
2.319030e+003,-9.601794e+000
2.319994e+003,-9.465246e+000
2.320958e+003,-7.155862e+000
2.321922e+003,-5.569110e+000
2.322887e+003,-4.888687e+000
2.323851e+003,-4.355707e+000
2.324815e+003,-3.799310e+000
2.325779e+003,-3.221619e+000
2.326744e+003,-2.717953e+000
2.327708e+003,-2.998975e+000
2.328672e+003,-4.555457e+000
2.329636e+003,-6.369845e+000
2.330601e+003,-7.782190e+000
2.331565e+003,-8.410144e+000
2.332529e+003,-7.289004e+000
2.333493e+003,-5.682556e+000
2.334458e+003,-4.696646e+000
2.335422e+003,-4.519751e+000
2.336386e+003,-6.146255e+000
2.337350e+003,-8.148046e+000
2.338314e+003,-7.688474e+000
2.339279e+003,-5.436212e+000
2.340243e+003,-4.438327e+000
2.341207e+003,-5.189108e+000
2.342171e+003,-5.619977e+000
2.343135e+003,-4.936795e+000
2.344100e+003,-4.538583e+000
2.345064e+003,-5.345349e+000
2.346028e+003,-5.928439e+000
2.346992e+003,-5.663440e+000
2.347957e+003,-5.193048e+000
2.348921e+003,-4.288367e+000
2.349885e+003,-3.903802e+000
2.350849e+003,-5.374261e+000
2.351814e+003,-7.282083e+000
2.352778e+003,-7.884354e+000
2.353742e+003,-7.541605e+000
2.354706e+003,-7.045114e+000
2.355671e+003,-6.420767e+000
2.356635e+003,-6.465650e+000
2.357599e+003,-7.531650e+000
2.358563e+003,-7.788135e+000
2.359528e+003,-6.909952e+000
2.360492e+003,-6.331076e+000
2.361456e+003,-6.191861e+000
2.362420e+003,-6.392294e+000
2.363385e+003,-7.057938e+000
2.364349e+003,-7.253909e+000
2.365313e+003,-6.380301e+000
2.366277e+003,-5.635703e+000
2.367241e+003,-6.211606e+000
2.368206e+003,-6.958520e+000
2.369170e+003,-5.846802e+000
2.370134e+003,-3.835672e+000
2.371098e+003,-4.154260e+000
2.372063e+003,-5.954419e+000
2.373027e+003,-5.167740e+000
2.373991e+003,-2.680948e+000
2.374955e+003,-2.329706e+000
2.375919e+003,-3.933942e+000
2.376884e+003,-5.419711e+000
2.377848e+003,-6.235205e+000
2.378812e+003,-6.293607e+000
2.379776e+003,-5.696658e+000
2.380741e+003,-5.199881e+000
2.381705e+003,-5.214615e+000
2.382669e+003,-5.383749e+000
2.383633e+003,-5.794797e+000
2.384598e+003,-5.614862e+000
2.385562e+003,-2.922681e+000
2.386526e+003,-9.474670e-001
2.387490e+003,-3.762131e+000
2.388455e+003,-7.035254e+000
2.389419e+003,-5.807788e+000
2.390383e+003,-2.953506e+000
2.391347e+003,-2.587912e+000
2.392312e+003,-4.071002e+000
2.393276e+003,-5.291471e+000
2.394240e+003,-5.978650e+000
2.395204e+003,-6.044217e+000
2.396168e+003,-5.240323e+000
2.397133e+003,-4.782739e+000
2.398097e+003,-5.069058e+000
2.399061e+003,-5.063904e+000
2.400025e+003,-4.407248e+000
2.400990e+003,-4.171399e+000
2.401954e+003,-4.821335e+000
2.402918e+003,-5.385474e+000
2.403882e+003,-5.441632e+000
2.404846e+003,-5.144595e+000
2.405811e+003,-4.532257e+000
2.406775e+003,-3.878342e+000
2.407739e+003,-3.555603e+000
2.408703e+003,-3.705615e+000
2.409668e+003,-5.034454e+000
2.410632e+003,-7.021613e+000
2.411596e+003,-6.612659e+000
2.412560e+003,-4.479754e+000
2.413525e+003,-3.269669e+000
2.414489e+003,-3.139160e+000
2.415453e+003,-4.281744e+000
2.416417e+003,-6.131241e+000
2.417382e+003,-6.435144e+000
2.418346e+003,-5.036633e+000
2.419310e+003,-4.697186e+000
2.420274e+003,-6.535056e+000
2.421239e+003,-7.985721e+000
2.422203e+003,-7.351678e+000
2.423167e+003,-6.132135e+000
2.424131e+003,-5.007806e+000
2.425095e+003,-4.168283e+000
2.426060e+003,-3.669809e+000
2.427024e+003,-3.579953e+000
2.427988e+003,-4.429419e+000
2.428952e+003,-5.257428e+000
2.429917e+003,-4.762436e+000
2.430881e+003,-3.841476e+000
2.431845e+003,-4.058762e+000
2.432809e+003,-5.150918e+000
2.433773e+003,-6.021317e+000
2.434738e+003,-6.638956e+000
2.435702e+003,-6.046191e+000
2.436666e+003,-3.506503e+000
2.437630e+003,-2.445306e+000
2.438595e+003,-3.226495e+000
2.439559e+003,-4.070602e+000
2.440523e+003,-4.783560e+000
2.441487e+003,-5.127707e+000
2.442452e+003,-5.074237e+000
2.443416e+003,-4.120590e+000
2.444380e+003,-1.996906e+000
2.445344e+003,-6.984161e-001
2.446309e+003,-1.947662e+000
2.447273e+003,-3.279572e+000
2.448237e+003,-1.236383e+000
2.449201e+003,2.076334e+000
2.450166e+003,4.165301e+000
2.451130e+003,4.399039e+000
2.452094e+003,-6.796570e-002
2.453058e+003,-5.768365e+000
2.454022e+003,-6.914264e+000
2.454987e+003,-5.420053e+000
2.455951e+003,-5.662039e+000
2.456915e+003,-7.127847e+000
2.457879e+003,-6.595365e+000
2.458844e+003,-3.997491e+000
2.459808e+003,-2.423050e+000
2.460772e+003,-2.715222e+000
2.461736e+003,-2.923764e+000
2.462700e+003,-2.690561e+000
2.463665e+003,-2.347821e+000
2.464629e+003,-1.297583e+000
2.465593e+003,-1.098505e+000
2.466557e+003,-2.621326e+000
2.467522e+003,-3.945709e+000
2.468486e+003,-4.290497e+000
2.469450e+003,-4.145144e+000
2.470414e+003,-3.728723e+000
2.471379e+003,-3.471585e+000
2.472343e+003,-3.982452e+000
2.473307e+003,-4.700000e+000
2.474271e+003,-4.363559e+000
2.475236e+003,-3.345166e+000
2.476200e+003,-2.799094e+000
2.477164e+003,-2.619684e+000
2.478128e+003,-2.431866e+000
2.479093e+003,-2.357105e+000
2.480057e+003,-3.055020e+000
2.481021e+003,-4.136429e+000
2.481985e+003,-4.480527e+000
2.482949e+003,-3.982404e+000
2.483914e+003,-2.929263e+000
2.484878e+003,-1.613495e+000
2.485842e+003,-1.328705e+000
2.486806e+003,-2.758792e+000
2.487771e+003,-3.938739e+000
2.488735e+003,-4.110461e+000
2.489699e+003,-3.998514e+000
2.490663e+003,-3.553610e+000
2.491627e+003,-3.258588e+000
2.492592e+003,-3.125494e+000
2.493556e+003,-3.346820e+000
2.494520e+003,-4.168054e+000
2.495484e+003,-5.135526e+000
2.496449e+003,-6.098086e+000
2.497413e+003,-6.439691e+000
2.498377e+003,-5.028717e+000
2.499341e+003,-2.956744e+000
2.500306e+003,-3.373862e+000
2.501270e+003,-5.530780e+000
2.502234e+003,-6.067206e+000
2.503198e+003,-5.317548e+000
2.504163e+003,-4.064844e+000
2.505127e+003,-2.753595e+000
2.506091e+003,-2.525934e+000
2.507055e+003,-3.167392e+000
2.508020e+003,-3.836417e+000
2.508984e+003,-4.195779e+000
2.509948e+003,-3.918320e+000
2.510912e+003,-2.984961e+000
2.511876e+003,-2.118726e+000
2.512841e+003,-1.532346e+000
2.513805e+003,-1.223987e+000
2.514769e+003,-1.343185e+000
2.515733e+003,-1.535257e+000
2.516698e+003,-1.680539e+000
2.517662e+003,-1.988309e+000
2.518626e+003,-2.661493e+000
2.519590e+003,-3.102722e+000
2.520554e+003,-2.959534e+000
2.521519e+003,-2.706134e+000
2.522483e+003,-2.787582e+000
2.523447e+003,-2.847794e+000
2.524411e+003,-2.304108e+000
2.525376e+003,-1.447113e+000
2.526340e+003,-1.020654e+000
2.527304e+003,-9.746643e-001
2.528268e+003,-1.198853e+000
2.529233e+003,-1.526074e+000
2.530197e+003,-1.645340e+000
2.531161e+003,-1.512341e+000
2.532125e+003,-9.031830e-001
2.533090e+003,-1.444794e-001
2.534054e+003,5.730285e-002
2.535018e+003,-3.063782e-001
2.535982e+003,-8.766540e-001
2.536947e+003,-1.549503e+000
2.537911e+003,-2.112061e+000
2.538875e+003,-2.806616e+000
2.539839e+003,-2.515170e+000
2.540803e+003,-5.819092e-002
2.541768e+003,1.557672e+000
2.542732e+003,1.897153e+000
2.543696e+003,1.732770e+000
2.544660e+003,1.180881e+000
2.545625e+003,7.262146e-001
2.546589e+003,6.161804e-001
2.547553e+003,3.225220e-001
2.548517e+003,-5.972595e-001
2.549482e+003,-1.465280e+000
2.550446e+003,-1.450482e+000
2.551410e+003,-9.844208e-001
2.552374e+003,-7.383941e-001
2.553339e+003,-5.015900e-001
2.554303e+003,3.401550e-001
2.555267e+003,1.122354e+000
2.556231e+003,6.413239e-001
2.557196e+003,-1.820465e-001
2.558160e+003,-2.010498e-002
2.559124e+003,7.059357e-001
2.560088e+003,1.464877e+000
2.561052e+003,1.921787e+000
2.562017e+003,8.203491e-001
2.562981e+003,-1.776547e+000
2.563945e+003,-2.485345e+000
2.564909e+003,-9.200470e-001
2.565874e+003,5.528534e-001
2.566838e+003,2.085434e+000
2.567802e+003,2.111545e+000
2.568766e+003,5.128845e-001
2.569730e+003,1.429016e-001
2.570695e+003,1.368146e+000
2.571659e+003,1.278293e+000
2.572623e+003,-8.368195e-001
2.573587e+003,-1.994745e+000
2.574552e+003,-6.819611e-001
2.575516e+003,5.651825e-001
2.576480e+003,-7.083740e-002
2.577444e+003,-9.278961e-001
2.578409e+003,-1.078082e+000
2.579373e+003,-1.009732e+000
2.580337e+003,-7.118744e-001
2.581301e+003,-5.136139e-001
2.582266e+003,-7.931671e-001
2.583230e+003,-9.553680e-001
2.584194e+003,-6.450653e-001
2.585158e+003,-5.867920e-002
2.586123e+003,7.639008e-001
2.587087e+003,1.470276e+000
2.588051e+003,1.362064e+000
2.589015e+003,8.577973e-001
2.589979e+003,1.489764e+000
2.590944e+003,2.765366e+000
2.591908e+003,2.740649e+000
2.592872e+003,1.786533e+000
2.593836e+003,1.860260e-001
2.594801e+003,-1.149762e+000
2.595765e+003,3.669251e-001
2.596729e+003,3.260944e+000
2.597693e+003,3.438083e+000
2.598657e+003,1.067206e+000
2.599622e+003,-6.316589e-001
2.600586e+003,-1.044791e+000
2.601550e+003,-1.305627e+000
2.602514e+003,-1.650943e+000
2.603479e+003,-1.596863e+000
2.604443e+003,-9.173737e-001
2.605407e+003,-5.853211e-001
2.606371e+003,-6.994904e-001
2.607336e+003,-7.541870e-001
2.608300e+003,-6.357056e-001
2.609264e+003,-1.016370e+000
2.610228e+003,-2.084286e+000
2.611193e+003,-2.592349e+000
2.612157e+003,-1.822552e+000
2.613121e+003,-5.844879e-001
2.614085e+003,6.540130e-001
2.615050e+003,1.398370e+000
2.616014e+003,1.083017e+000
2.616978e+003,2.988190e-001
2.617942e+003,-1.306668e+000
2.618906e+003,-2.227045e+000
2.619871e+003,-3.640717e-001
2.620835e+003,1.085123e+000
2.621799e+003,-9.753418e-001
2.622763e+003,-3.452176e+000
2.623728e+003,-3.494653e+000
2.624692e+003,-2.142673e+000
2.625656e+003,-9.228485e-001
2.626620e+003,5.908508e-002
2.627584e+003,4.067596e-001
2.628549e+003,3.645142e-001
2.629513e+003,1.028613e+000
2.630477e+003,1.783234e+000
2.631441e+003,6.536347e-001
2.632406e+003,-1.073740e+000
2.633370e+003,-3.394501e-001
2.634334e+003,1.650803e+000
2.635298e+003,1.687802e+000
2.636263e+003,1.355316e-001
2.637227e+003,-3.326355e-001
2.638191e+003,5.474030e-001
2.639155e+003,5.884430e-001
2.640120e+003,-6.915222e-001
2.641084e+003,1.519043e-001
2.642048e+003,3.740024e+000
2.643012e+003,4.926587e+000
2.643977e+003,3.457507e+000
2.644941e+003,2.312024e+000
2.645905e+003,1.926141e+000
2.646869e+003,1.352808e+000
2.647833e+003,3.225098e-001
2.648798e+003,-9.844483e-001
2.649762e+003,-2.373111e+000
2.650726e+003,-2.808502e+000
2.651690e+003,-1.471637e+000
2.652655e+003,-7.719513e-001
2.653619e+003,-2.710092e+000
2.654583e+003,-3.954263e+000
2.655547e+003,-3.463840e+000
2.656511e+003,-2.144656e+000
2.657476e+003,5.511383e-001
2.658440e+003,1.756949e+000
2.659404e+003,-1.165100e-001
2.660368e+003,-1.444571e+000
2.661333e+003,2.522217e-001
2.662297e+003,2.087582e+000
2.663261e+003,1.135046e+000
2.664225e+003,-5.119964e-001
2.665190e+003,2.279358e-001
2.666154e+003,1.230081e+000
2.667118e+003,-7.377807e-001
2.668082e+003,-2.638238e+000
2.669047e+003,-1.140509e+000
2.670011e+003,1.029562e+000
2.670975e+003,1.393164e+000
2.671939e+003,9.280243e-001
2.672904e+003,5.272309e-001
2.673868e+003,6.593536e-001
2.674832e+003,2.263663e+000
2.675796e+003,4.231631e+000
2.676760e+003,3.501324e+000
2.677725e+003,9.088379e-001
2.678689e+003,-3.145355e-001
2.679653e+003,-3.685333e-001
2.680617e+003,5.588654e-001
2.681582e+003,1.820627e+000
2.682546e+003,2.321182e+000
2.683510e+003,2.188806e+000
2.684474e+003,1.392151e+000
2.685438e+003,5.094665e-001
2.686403e+003,1.368384e+000
2.687367e+003,3.528714e+000
2.688331e+003,2.770920e+000
2.689295e+003,-1.067798e+000
2.690260e+003,-1.794083e+000
2.691224e+003,9.840027e-001
2.692188e+003,3.525574e+000
2.693152e+003,5.630816e+000
2.694117e+003,5.424384e+000
2.695081e+003,3.349075e+000
2.696045e+003,2.530502e+000
2.697009e+003,3.214715e+000
2.697974e+003,3.500040e+000
2.698938e+003,2.929559e+000
2.699902e+003,2.405563e+000
2.700866e+003,2.224802e+000
2.701831e+003,2.154010e+000
2.702795e+003,2.328506e+000
2.703759e+003,2.128384e+000
2.704723e+003,1.481656e+000
2.705688e+003,5.774444e-001
2.706652e+003,-7.814972e-001
2.707616e+003,-9.544586e-001
2.708580e+003,4.498962e-001
2.709544e+003,1.715274e+000
2.710509e+003,2.121951e+000
2.711473e+003,1.953586e+000
2.712437e+003,1.363742e+000
2.713401e+003,1.018121e+000
2.714365e+003,1.544122e+000
2.715330e+003,2.016440e+000
2.716294e+003,2.051483e+000
2.717258e+003,1.787268e+000
2.718222e+003,1.101120e+000
2.719187e+003,3.246368e-001
2.720151e+003,-6.981781e-001
2.721115e+003,-1.002783e+000
2.722079e+003,-4.173584e-002
2.723044e+003,1.066217e+000
2.724008e+003,1.491629e+000
2.724972e+003,1.564691e+000
2.725936e+003,1.520056e+000
2.726901e+003,1.757819e+000
2.727865e+003,3.379810e+000
2.728829e+003,4.634759e+000
2.729793e+003,3.481622e+000
2.730758e+003,2.180429e+000
2.731722e+003,3.014420e+000
2.732686e+003,3.301465e+000
2.733650e+003,3.327393e-001
2.734615e+003,-2.370267e+000
2.735579e+003,-1.729452e+000
2.736543e+003,3.250122e-001
2.737507e+003,1.321158e+000
2.738471e+003,1.551486e+000
2.739436e+003,1.090988e+000
2.740400e+003,7.037293e-001
2.741364e+003,2.392853e+000
2.742328e+003,4.160342e+000
2.743292e+003,3.066513e+000
2.744257e+003,1.351346e+000
2.745221e+003,1.671497e+000
2.746185e+003,2.766202e+000
2.747149e+003,2.873770e+000
2.748114e+003,2.462012e+000
2.749078e+003,2.152438e+000
2.750042e+003,2.155383e+000
2.751006e+003,3.136606e+000
2.751971e+003,4.664777e+000
2.752935e+003,5.479242e+000
2.753899e+003,5.552338e+000
2.754863e+003,4.273721e+000
2.755828e+003,2.687927e+000
2.756792e+003,2.271744e+000
2.757756e+003,2.800858e+000
2.758720e+003,4.560730e+000
2.759685e+003,6.328589e+000
2.760649e+003,5.029535e+000
2.761613e+003,1.982297e+000
2.762577e+003,1.284360e+000
2.763542e+003,2.520340e+000
2.764506e+003,2.870804e+000
2.765470e+003,2.518485e+000
2.766434e+003,2.223544e+000
2.767398e+003,2.170099e+000
2.768363e+003,3.117206e+000
2.769327e+003,4.294665e+000
2.770291e+003,3.825919e+000
2.771255e+003,2.462146e+000
2.772219e+003,2.447430e+000
2.773184e+003,3.639087e+000
2.774148e+003,4.195929e+000
2.775112e+003,4.058844e+000
2.776076e+003,2.952676e+000
2.777041e+003,8.691223e-001
2.778005e+003,3.284668e-001
2.778969e+003,1.080890e+000
2.779933e+003,1.996561e+000
2.780898e+003,2.756100e+000
2.781862e+003,2.591592e+000
2.782826e+003,1.901633e+000
2.783790e+003,1.869696e+000
2.784755e+003,2.596509e+000
2.785719e+003,3.861411e+000
2.786683e+003,5.555163e+000
2.787647e+003,5.089648e+000
2.788612e+003,1.949194e+000
2.789576e+003,1.131305e+000
2.790540e+003,2.574509e+000
2.791504e+003,4.393497e+000
2.792469e+003,6.111615e+000
2.793433e+003,5.954968e+000
2.794397e+003,4.361026e+000
2.795361e+003,3.395511e+000
2.796325e+003,3.296948e+000
2.797290e+003,3.203433e+000
2.798254e+003,2.960019e+000
2.799218e+003,2.682889e+000
2.800182e+003,2.360760e+000
2.801146e+003,1.804782e+000
2.802111e+003,9.042786e-001
2.803075e+003,2.263831e+000
2.804039e+003,5.532843e+000
2.805003e+003,6.819067e+000
2.805968e+003,5.933905e+000
2.806932e+003,4.269507e+000
2.807896e+003,2.651163e+000
2.808860e+003,2.253470e+000
2.809825e+003,3.100488e+000
2.810789e+003,3.457709e+000
2.811753e+003,2.898306e+000
2.812717e+003,2.086148e+000
2.813682e+003,6.860718e-001
2.814646e+003,1.118896e+000
2.815610e+003,3.373264e+000
2.816574e+003,4.796887e+000
2.817539e+003,5.137652e+000
2.818503e+003,4.639746e+000
2.819467e+003,3.677551e+000
2.820431e+003,3.308087e+000
2.821396e+003,3.684775e+000
2.822360e+003,3.823996e+000
2.823324e+003,3.425845e+000
2.824288e+003,3.835254e+000
2.825252e+003,5.672284e+000
2.826217e+003,5.610712e+000
2.827181e+003,3.593564e+000
2.828145e+003,3.620019e+000
2.829109e+003,5.434021e+000
2.830073e+003,5.333344e+000
2.831038e+003,3.368991e+000
2.832002e+003,1.857327e+000
2.832966e+003,1.505359e+000
2.833930e+003,2.769257e+000
2.834895e+003,5.710815e+000
2.835859e+003,7.095697e+000
2.836823e+003,6.473407e+000
2.837787e+003,5.349872e+000
2.838752e+003,3.631567e+000
2.839716e+003,3.806283e+000
2.840680e+003,5.552484e+000
2.841644e+003,5.580444e+000
2.842609e+003,4.009656e+000
2.843573e+003,3.293423e+000
2.844537e+003,3.539911e+000
2.845501e+003,2.693378e+000
2.846466e+003,5.017487e-001
2.847430e+003,-2.810364e-002
2.848394e+003,1.589947e+000
2.849358e+003,2.787283e+000
2.850323e+003,3.620496e+000
2.851287e+003,3.044568e+000
2.852251e+003,1.390369e+000
2.853215e+003,1.002667e+000
2.854179e+003,1.791727e+000
2.855144e+003,2.733542e+000
2.856108e+003,3.400986e+000
2.857072e+003,3.243692e+000
2.858036e+003,2.373215e+000
2.859000e+003,1.836710e+000
2.859965e+003,1.690735e+000
2.860929e+003,3.291989e+000
2.861893e+003,6.693201e+000
2.862857e+003,6.633087e+000
2.863822e+003,3.881122e+000
2.864786e+003,1.793689e+000
2.865750e+003,8.144989e-001
2.866714e+003,1.606613e+000
2.867679e+003,3.223398e+000
2.868643e+003,3.380142e+000
2.869607e+003,2.222479e+000
2.870571e+003,1.488522e+000
2.871536e+003,1.355594e+000
2.872500e+003,3.140570e+000
2.873464e+003,6.629834e+000
2.874428e+003,7.367414e+000
2.875393e+003,6.084973e+000
2.876357e+003,4.760870e+000
2.877321e+003,3.860635e+000
2.878285e+003,4.284934e+000
2.879250e+003,5.234637e+000
2.880214e+003,4.867377e+000
2.881178e+003,3.731958e+000
2.882142e+003,4.166406e+000
2.883106e+003,5.391095e+000
2.884071e+003,3.732413e+000
2.885035e+003,2.233093e-001
2.885999e+003,1.232523e+000
2.886963e+003,4.428857e+000
2.887927e+003,3.895535e+000
2.888892e+003,1.762058e+000
2.889856e+003,1.650565e+000
2.890820e+003,2.653861e+000
2.891784e+003,3.003598e+000
2.892749e+003,2.929825e+000
2.893713e+003,3.010437e+000
2.894677e+003,3.326880e+000
2.895641e+003,4.156647e+000
2.896606e+003,5.140472e+000
2.897570e+003,5.090039e+000
2.898534e+003,4.786603e+000
2.899498e+003,5.833331e+000
2.900463e+003,6.973053e+000
2.901427e+003,6.639905e+000
2.902391e+003,5.732568e+000
2.903355e+003,5.239947e+000
2.904320e+003,4.715619e+000
2.905284e+003,3.547611e+000
2.906248e+003,2.597186e+000
2.907212e+003,3.388977e+000
2.908177e+003,4.605060e+000
2.909141e+003,3.826560e+000
2.910105e+003,2.485999e+000
2.911069e+003,1.765613e+000
2.912033e+003,1.581250e+000
2.912998e+003,2.418829e+000
2.913962e+003,3.006656e+000
2.914926e+003,2.346860e+000
2.915890e+003,1.988498e+000
2.916854e+003,3.138739e+000
2.917819e+003,4.248480e+000
2.918783e+003,3.670007e+000
2.919747e+003,2.874063e+000
2.920711e+003,3.730649e+000
2.921676e+003,4.511609e+000
2.922640e+003,3.810577e+000
2.923604e+003,3.238528e+000
2.924568e+003,3.417181e+000
2.925533e+003,3.877252e+000
2.926497e+003,4.410507e+000
2.927461e+003,4.280023e+000
2.928425e+003,3.641034e+000
2.929390e+003,7.160944e+000
2.930354e+003,1.792060e+001
2.931318e+003,2.360724e+001
2.932282e+003,1.191507e+001
2.933247e+003,2.798901e+000
2.934211e+003,5.796149e+000
2.935175e+003,6.590546e+000
2.936139e+003,2.330722e+000
2.937104e+003,2.103638e-001
2.938068e+003,1.811990e+000
2.939032e+003,3.720303e+000
2.939996e+003,4.683875e+000
2.940960e+003,5.280499e+000
2.941925e+003,5.711829e+000
2.942889e+003,5.673645e+000
2.943853e+003,5.003738e+000
2.944817e+003,4.097342e+000
2.945781e+003,2.763379e+000
2.946746e+003,2.521088e+000
2.947710e+003,3.342569e+000
2.948674e+003,4.352310e+000
2.949638e+003,5.183475e+000
2.950603e+003,4.734369e+000
2.951567e+003,3.435745e+000
2.952531e+003,3.703256e+000
2.953495e+003,5.665442e+000
2.954460e+003,6.028613e+000
2.955424e+003,4.720038e+000
2.956388e+003,2.744214e+000
2.957352e+003,4.215729e-001
2.958317e+003,1.959692e+000
2.959281e+003,5.563855e+000
2.960245e+003,6.123797e+000
2.961209e+003,4.612592e+000
2.962174e+003,3.450848e+000
2.963138e+003,2.769470e+000
2.964102e+003,1.943414e+000
2.965066e+003,1.366101e+000
2.966031e+003,2.119049e+000
2.966995e+003,3.655615e+000
2.967959e+003,4.230878e+000
2.968923e+003,4.207916e+000
2.969887e+003,4.233462e+000
2.970852e+003,4.281516e+000
2.971816e+003,4.788147e+000
2.972780e+003,4.773288e+000
2.973744e+003,2.259891e+000
2.974708e+003,3.115601e-001
2.975673e+003,1.720886e+000
2.976637e+003,3.826331e+000
2.977601e+003,3.423852e+000
2.978565e+003,2.110260e+000
2.979530e+003,1.817331e+000
2.980494e+003,1.960507e+000
2.981458e+003,2.335724e+000
2.982422e+003,2.634363e+000
2.983387e+003,2.878607e+000
2.984351e+003,2.411728e+000
2.985315e+003,8.874634e-001
2.986279e+003,-2.471008e-001
2.987244e+003,-2.525299e-001
2.988208e+003,5.862640e-001
2.989172e+003,2.131680e+000
2.990136e+003,3.544986e+000
2.991101e+003,5.013309e+000
2.992065e+003,4.818357e+000
2.993029e+003,1.309665e+000
2.993993e+003,3.935547e-002
2.994958e+003,1.678247e+000
2.995922e+003,2.573648e+000
2.996886e+003,2.212979e+000
2.997850e+003,2.474319e+000
2.998814e+003,3.687393e+000
2.999779e+003,4.710385e+000
3.000743e+003,5.195813e+000
3.001707e+003,5.161496e+000
3.002671e+003,4.774725e+000
3.003635e+003,2.648914e+000
3.004600e+003,-9.770050e-001
3.005564e+003,-1.397824e+000
3.006528e+003,5.950409e-001
3.007492e+003,2.403507e+000
3.008457e+003,3.510184e+000
3.009421e+003,3.645944e+000
3.010385e+003,2.983591e+000
3.011349e+003,1.892200e+000
3.012314e+003,6.113647e-001
3.013278e+003,-3.760956e-001
3.014242e+003,-1.032892e+000
3.015206e+003,-1.115289e+000
3.016171e+003,-8.641815e-001
3.017135e+003,-6.265106e-001
3.018099e+003,-3.165466e-001
3.019063e+003,1.500122e-001
3.020028e+003,8.647644e-001
3.020992e+003,2.244855e+000
3.021956e+003,2.727264e+000
3.022920e+003,7.673065e-001
3.023885e+003,-1.055753e+000
3.024849e+003,4.561493e-001
3.025813e+003,2.128177e+000
3.026777e+003,2.780548e-001
3.027741e+003,-1.405255e+000
3.028706e+003,-8.178528e-001
3.029670e+003,-3.012695e-002
3.030634e+003,6.293365e-001
3.031598e+003,2.335175e-001
3.032563e+003,-1.353845e+000
3.033527e+003,-5.092713e-001
3.034491e+003,3.891305e+000
3.035455e+003,6.111505e+000
3.036420e+003,3.200220e+000
3.037384e+003,1.004672e+000
3.038348e+003,9.665009e-001
3.039312e+003,2.151978e-001
3.040277e+003,-1.265512e+000
3.041241e+003,-1.051813e+000
3.042205e+003,4.986603e-001
3.043169e+003,1.059210e+000
3.044134e+003,6.116089e-001
3.045098e+003,1.680969e-001
3.046062e+003,-6.484680e-002
3.047026e+003,6.337281e-002
3.047990e+003,4.468719e-001
3.048955e+003,4.439941e-001
3.049919e+003,6.293945e-002
3.050883e+003,-8.440369e-001
3.051847e+003,-1.916354e+000
3.052812e+003,-3.086713e+000
3.053776e+003,-3.473056e+000
3.054740e+003,-1.244733e+000
3.055704e+003,1.281052e+000
3.056668e+003,2.177329e+000
3.057633e+003,1.831436e+000
3.058597e+003,5.033539e-001
3.059561e+003,-9.209687e-001
3.060525e+003,-1.319635e+000
3.061490e+003,-1.340378e+000
3.062454e+003,-1.331577e+000
3.063418e+003,-1.279251e+000
3.064382e+003,-1.215036e+000
3.065347e+003,-1.124799e+000
3.066311e+003,-9.854614e-001
3.067275e+003,-7.643280e-001
3.068239e+003,-4.660065e-001
3.069204e+003,-4.857178e-001
3.070168e+003,-1.047070e+000
3.071132e+003,-9.895386e-001
3.072096e+003,5.666748e-001
3.073061e+003,1.362268e+000
3.074025e+003,1.348972e+000
3.074989e+003,1.440906e+000
3.075953e+003,1.507071e+000
3.076917e+003,6.210205e-001
3.077882e+003,-8.867798e-001
3.078846e+003,-2.276086e+000
3.079810e+003,-3.000345e+000
3.080774e+003,-1.558435e+000
3.081739e+003,8.946503e-001
3.082703e+003,7.743500e-001
3.083667e+003,-8.602325e-001
3.084631e+003,-1.817322e-001
3.085595e+003,1.316779e+000
3.086560e+003,1.606039e+000
3.087524e+003,1.048993e+000
3.088488e+003,-6.541473e-001
3.089452e+003,-2.061658e+000
3.090417e+003,-2.218713e+000
3.091381e+003,-1.897394e+000
3.092345e+003,-1.684009e+000
3.093309e+003,-1.629102e+000
3.094274e+003,-1.863254e+000
3.095238e+003,-2.028510e+000
3.096202e+003,-2.240613e+000
3.097166e+003,-1.452469e+000
3.098131e+003,9.247528e-001
3.099095e+003,2.203677e+000
3.100059e+003,1.954233e+000
3.101023e+003,1.212445e+000
3.101988e+003,4.028412e-001
3.102952e+003,-8.204041e-002
3.103916e+003,-2.120148e-001
3.104880e+003,-6.226349e-001
3.105844e+003,-1.365390e+000
3.106809e+003,-1.347983e+000
3.107773e+003,-7.023193e-001
3.108737e+003,-1.299850e+000
3.109701e+003,-2.448947e+000
3.110666e+003,-2.060532e+000
3.111630e+003,-1.086224e+000
3.112594e+003,-1.326810e+000
3.113558e+003,-2.145508e+000
3.114522e+003,-2.626050e+000
3.115487e+003,-2.737476e+000
3.116451e+003,-2.325235e+000
3.117415e+003,-1.801285e+000
3.118379e+003,-1.903525e+000
3.119344e+003,-1.969839e+000
3.120308e+003,-1.032819e+000
3.121272e+003,-9.027344e-001
3.122236e+003,-2.669333e+000
3.123201e+003,-3.011566e+000
3.124165e+003,-9.357758e-001
3.125129e+003,5.052460e-001
3.126093e+003,8.176575e-002
3.127058e+003,-7.131287e-001
3.128022e+003,-1.319485e+000
3.128986e+003,-1.395935e+000
3.129950e+003,-5.895844e-001
3.130915e+003,-7.773712e-001
3.131879e+003,-1.830664e+000
3.132843e+003,-2.543979e+000
3.133807e+003,-2.875891e+000
3.134771e+003,-3.046024e+000
3.135736e+003,-2.969174e+000
3.136700e+003,-1.962915e+000
3.137664e+003,-8.371765e-001
3.138628e+003,-1.215454e+000
3.139593e+003,-2.456381e+000
3.140557e+003,-3.443051e+000
3.141521e+003,-3.862277e+000
3.142485e+003,-2.837042e+000
3.143449e+003,-1.520798e+000
3.144414e+003,5.997009e-002
3.145378e+003,-1.402496e-001
3.146342e+003,-3.418930e+000
3.147306e+003,-5.132730e+000
3.148271e+003,-3.187293e+000
3.149235e+003,-1.082101e+000
3.150199e+003,-7.606109e-001
3.151163e+003,-1.006964e+000
3.152128e+003,-1.087183e+000
3.153092e+003,-2.526724e+000
3.154056e+003,-5.670624e+000
3.155020e+003,-6.216669e+000
3.155985e+003,-4.611478e+000
3.156949e+003,-4.378830e+000
3.157913e+003,-5.140350e+000
3.158877e+003,-4.141562e+000
3.159842e+003,-2.426636e+000
3.160806e+003,-3.954010e+000
3.161770e+003,-7.022092e+000
3.162734e+003,-6.941119e+000
3.163698e+003,-5.096780e+000
3.164663e+003,-3.872946e+000
3.165627e+003,-3.393454e+000
3.166591e+003,-4.569354e+000
3.167555e+003,-5.285309e+000
3.168520e+003,-4.080731e+000
3.169484e+003,-3.484982e+000
3.170448e+003,-4.674765e+000
3.171412e+003,-5.032455e+000
3.172376e+003,-3.031000e+000
3.173341e+003,-1.863263e+000
3.174305e+003,-3.637817e+000
3.175269e+003,-5.022409e+000
3.176233e+003,-5.726447e+000
3.177198e+003,-5.617651e+000
3.178162e+003,-4.865811e+000
3.179126e+003,-4.487100e+000
3.180090e+003,-4.418616e+000
3.181055e+003,-4.182196e+000
3.182019e+003,-3.761334e+000
3.182983e+003,-3.231906e+000
3.183947e+003,-2.753747e+000
3.184912e+003,-2.676306e+000
3.185876e+003,-2.944052e+000
3.186840e+003,-3.380258e+000
3.187804e+003,-4.195993e+000
3.188769e+003,-6.640411e+000
3.189733e+003,-7.829230e+000
3.190697e+003,-5.691443e+000
3.191661e+003,-4.089075e+000
3.192625e+003,-4.605508e+000
3.193590e+003,-4.703610e+000
3.194554e+003,-3.123996e+000
3.195518e+003,-2.453458e+000
3.196482e+003,-4.430457e+000
3.197447e+003,-5.038010e+000
3.198411e+003,-3.689230e+000
3.199375e+003,-3.155069e+000
3.200339e+003,-3.423611e+000
3.201303e+003,-4.161176e+000
3.202268e+003,-4.766382e+000
3.203232e+003,-3.493353e+000
3.204196e+003,-1.692017e+000
3.205160e+003,-2.576541e+000
3.206125e+003,-4.496338e+000
3.207089e+003,-4.396323e+000
3.208053e+003,-3.294427e+000
3.209017e+003,-2.689810e+000
3.209982e+003,-2.320981e+000
3.210946e+003,-1.834183e+000
3.211910e+003,-1.774023e+000
3.212874e+003,-2.416617e+000
3.213839e+003,-2.936759e+000
3.214803e+003,-3.104523e+000
3.215767e+003,-3.673651e+000
3.216731e+003,-4.859421e+000
3.217696e+003,-5.793490e+000
3.218660e+003,-6.228851e+000
3.219624e+003,-6.066123e+000
3.220588e+003,-5.282620e+000
3.221552e+003,-4.230612e+000
3.222517e+003,-3.217520e+000
3.223481e+003,-3.173996e+000
3.224445e+003,-3.838574e+000
3.225409e+003,-5.140307e+000
3.226374e+003,-6.017419e+000
3.227338e+003,-5.319040e+000
3.228302e+003,-4.016894e+000
3.229266e+003,-3.158447e+000
3.230230e+003,-2.940524e+000
3.231195e+003,-4.208130e+000
3.232159e+003,-5.049695e+000
3.233123e+003,-4.287759e+000
3.234087e+003,-3.648276e+000
3.235052e+003,-3.377597e+000
3.236016e+003,-3.899002e+000
3.236980e+003,-5.011652e+000
3.237944e+003,-5.250082e+000
3.238909e+003,-4.419708e+000
3.239873e+003,-3.817249e+000
3.240837e+003,-3.641617e+000
3.241801e+003,-4.892850e+000
3.242766e+003,-6.856793e+000
3.243730e+003,-6.110532e+000
3.244694e+003,-4.630389e+000
3.245658e+003,-5.538931e+000
3.246623e+003,-6.902176e+000
3.247587e+003,-7.031906e+000
3.248551e+003,-6.615476e+000
3.249515e+003,-6.085101e+000
3.250479e+003,-5.464429e+000
3.251444e+003,-4.780289e+000
3.252408e+003,-4.013846e+000
3.253372e+003,-2.492032e+000
3.254336e+003,-2.710925e+000
3.255301e+003,-4.978986e+000
3.256265e+003,-4.858417e+000
3.257229e+003,-2.900601e+000
3.258193e+003,-3.488303e+000
3.259157e+003,-5.884519e+000
3.260122e+003,-6.414343e+000
3.261086e+003,-5.496399e+000
3.262050e+003,-4.811227e+000
3.263014e+003,-4.558682e+000
3.263979e+003,-5.833765e+000
3.264943e+003,-6.953607e+000
3.265907e+003,-5.188651e+000
3.266871e+003,-3.496524e+000
3.267836e+003,-3.541492e+000
3.268800e+003,-4.016266e+000
3.269764e+003,-4.507401e+000
3.270728e+003,-4.943384e+000
3.271693e+003,-5.259332e+000
3.272657e+003,-5.150781e+000
3.273621e+003,-4.500903e+000
3.274585e+003,-3.623877e+000
3.275550e+003,-2.512707e+000
3.276514e+003,-1.977322e+000
3.277478e+003,-2.044540e+000
3.278442e+003,-3.551453e+000
3.279406e+003,-5.053888e+000
3.280371e+003,-3.601288e+000
3.281335e+003,-2.232932e+000
3.282299e+003,-3.771735e+000
3.283263e+003,-5.581388e+000
3.284228e+003,-5.274930e+000
3.285192e+003,-3.905542e+000
3.286156e+003,-1.055566e+000
3.287120e+003,-2.375275e-001
3.288084e+003,-3.214664e+000
3.289049e+003,-3.931192e+000
3.290013e+003,-2.183041e+000
3.290977e+003,-1.651440e+000
3.291941e+003,-2.366397e+000
3.292906e+003,-2.211636e+000
3.293870e+003,-1.310529e+000
3.294834e+003,-1.097629e+000
3.295798e+003,-1.595767e+000
3.296763e+003,-3.608463e+000
3.297727e+003,-5.349032e+000
3.298691e+003,-2.584860e+000
3.299655e+003,1.589996e-001
3.300620e+003,-1.339529e+000
3.301584e+003,-2.308078e+000
3.302548e+003,-1.387619e+000
3.303512e+003,-1.223285e+000
3.304477e+003,-2.527728e+000
3.305441e+003,-2.254547e+000
3.306405e+003,7.115570e-001
3.307369e+003,4.968933e-001
3.308333e+003,-3.364688e+000
3.309298e+003,-2.961206e+000
3.310262e+003,-3.800964e-002
3.311226e+003,3.089386e-001
3.312190e+003,-7.048523e-001
3.313155e+003,-1.652316e+000
3.314119e+003,-1.748334e+000
3.315083e+003,-3.415222e-001
3.316047e+003,7.833618e-001
3.317011e+003,1.053955e-001
3.317976e+003,-7.368164e-001
3.318940e+003,-5.949036e-001
3.319904e+003,-1.307282e-001
3.320868e+003,8.010712e-001
3.321833e+003,3.402161e-001
3.322797e+003,-1.260263e+000
3.323761e+003,-1.736984e+000
3.324725e+003,-1.315567e+000
3.325690e+003,-1.548154e+000
3.326654e+003,-2.004605e+000
3.327618e+003,-1.361005e+000
3.328582e+003,-3.958710e-001
3.329547e+003,-7.789917e-001
3.330511e+003,-1.282516e+000
3.331475e+003,-7.712097e-002
3.332439e+003,6.793548e-001
3.333404e+003,-1.513153e-001
3.334368e+003,-3.100159e-001
3.335332e+003,5.979462e-001
3.336296e+003,8.043854e-001
3.337260e+003,-4.257202e-003
3.338225e+003,-3.549103e-001
3.339189e+003,-2.110901e-002
3.340153e+003,-4.097320e-001
3.341117e+003,-1.288715e+000
3.342082e+003,-1.842270e+000
3.343046e+003,-1.545017e+000
3.344010e+003,2.123847e+000
3.344974e+003,4.675394e+000
3.345938e+003,2.199878e+000
3.346903e+003,-7.455872e-001
3.347867e+003,-1.996431e+000
3.348831e+003,-1.432072e+000
3.349795e+003,1.072495e+000
3.350760e+003,2.245816e+000
3.351724e+003,3.166718e-001
3.352688e+003,-9.146637e-001
3.353652e+003,-1.416292e+000
3.354617e+003,-5.790008e-001
3.355581e+003,7.845429e-001
3.356545e+003,1.039996e+000
3.357509e+003,5.379273e-001
3.358474e+003,-1.098969e-001
3.359438e+003,-7.421066e-001
3.360402e+003,-1.330473e+000
3.361366e+003,-6.914566e-001
3.362331e+003,3.740439e+000
3.363295e+003,5.882471e+000
3.364259e+003,2.147922e+000
3.365223e+003,8.092193e-002
3.366188e+003,1.274887e-001
3.367152e+003,8.145508e-001
3.368116e+003,1.633926e+000
3.369080e+003,1.829727e+000
3.370044e+003,1.854581e+000
3.371009e+003,3.070004e+000
3.371973e+003,4.671378e+000
3.372937e+003,5.209167e+000
3.373901e+003,4.931671e+000
3.374865e+003,3.442786e+000
3.375830e+003,2.407150e+000
3.376794e+003,2.521979e+000
3.377758e+003,3.113861e+000
3.378722e+003,3.934436e+000
3.379687e+003,4.087598e+000
3.380651e+003,3.525321e+000
3.381615e+003,3.011096e+000
3.382579e+003,2.818784e+000
3.383544e+003,3.761749e+000
3.384508e+003,5.279162e+000
3.385472e+003,5.241089e+000
3.386436e+003,4.693338e+000
3.387401e+003,5.201361e+000
3.388365e+003,4.943921e+000
3.389329e+003,2.725069e+000
3.390293e+003,2.032036e+000
3.391258e+003,4.075055e+000
3.392222e+003,5.824277e+000
3.393186e+003,6.052768e+000
3.394150e+003,6.367072e+000
3.395115e+003,6.965604e+000
3.396079e+003,7.333814e+000
3.397043e+003,7.426099e+000
3.398007e+003,6.769971e+000
3.398971e+003,6.138214e+000
3.399936e+003,6.980704e+000
3.400900e+003,7.526441e+000
3.401864e+003,6.650162e+000
3.402828e+003,5.588049e+000
3.403792e+003,5.187866e+000
3.404757e+003,5.236844e+000
3.405721e+003,5.779868e+000
3.406685e+003,6.319223e+000
3.407649e+003,6.809875e+000
3.408614e+003,6.645663e+000
3.409578e+003,6.216736e+000
3.410542e+003,6.658832e+000
3.411506e+003,7.433243e+000
3.412471e+003,7.564563e+000
3.413435e+003,7.545371e+000
3.414399e+003,7.874890e+000
3.415363e+003,8.366217e+000
3.416328e+003,9.179016e+000
3.417292e+003,9.088776e+000
3.418256e+003,6.969504e+000
3.419220e+003,7.006830e+000
3.420185e+003,9.074674e+000
3.421149e+003,9.784665e+000
3.422113e+003,9.270071e+000
3.423077e+003,9.119833e+000
3.424042e+003,9.210263e+000
3.425006e+003,8.886438e+000
3.425970e+003,8.799006e+000
3.426934e+003,1.050210e+001
