7.140112e+001,1.749629e+002
7.236536e+001,1.662298e+002
7.332959e+001,1.684494e+002
7.429382e+001,1.759833e+002
7.525806e+001,1.904623e+002
7.622229e+001,1.964982e+002
7.718652e+001,1.827742e+002
7.815076e+001,1.381923e+002
7.911499e+001,1.085492e+002
8.007922e+001,8.953756e+001
8.104346e+001,8.234829e+001
8.200769e+001,8.927354e+001
8.297192e+001,1.196490e+002
8.393616e+001,1.536974e+002
8.490039e+001,1.978721e+002
8.586462e+001,2.416087e+002
8.682886e+001,2.675699e+002
8.779310e+001,2.371733e+002
8.875733e+001,1.895257e+002
8.972157e+001,1.451649e+002
9.068580e+001,1.117919e+002
9.165003e+001,8.880264e+001
9.261427e+001,7.934517e+001
9.357850e+001,7.901113e+001
9.454273e+001,8.089307e+001
9.550697e+001,8.043817e+001
9.647120e+001,7.730583e+001
9.743543e+001,7.354924e+001
9.839967e+001,6.834910e+001
9.936390e+001,6.279182e+001
1.003281e+002,5.809902e+001
1.012924e+002,5.399022e+001
1.022566e+002,5.143427e+001
1.032208e+002,5.099615e+001
1.041851e+002,5.237920e+001
1.051493e+002,5.484768e+001
1.061135e+002,6.157605e+001
1.070778e+002,6.607442e+001
1.080420e+002,6.406245e+001
1.090062e+002,5.489561e+001
1.099705e+002,4.203498e+001
1.109347e+002,3.204209e+001
1.118989e+002,2.497638e+001
1.128632e+002,2.401255e+001
1.138274e+002,3.160701e+001
1.147916e+002,4.976476e+001
1.157559e+002,5.899446e+001
1.167201e+002,5.696113e+001
1.176843e+002,5.078632e+001
1.186486e+002,4.914262e+001
1.196128e+002,5.590087e+001
1.205770e+002,6.246790e+001
1.215413e+002,7.174739e+001
1.225055e+002,8.054867e+001
1.234697e+002,8.231750e+001
1.244340e+002,6.345129e+001
1.253982e+002,4.323369e+001
1.263624e+002,2.364243e+001
1.273267e+002,7.513196e+000
1.282909e+002,-4.484741e-001
1.292551e+002,2.213553e+001
1.302194e+002,5.390720e+001
1.311836e+002,7.559729e+001
1.321478e+002,7.508231e+001
1.331121e+002,5.231804e+001
1.340763e+002,3.392344e+001
1.350405e+002,1.820541e+001
1.360048e+002,8.657178e+000
1.369690e+002,1.034080e+001
1.379332e+002,3.609155e+001
1.388975e+002,5.202073e+001
1.398617e+002,5.563609e+001
1.408259e+002,5.072969e+001
1.417902e+002,4.307217e+001
1.427544e+002,3.022783e+001
1.437186e+002,2.018304e+001
1.446829e+002,1.604340e+001
1.456471e+002,1.695402e+001
1.466113e+002,1.936205e+001
1.475756e+002,1.632279e+001
1.485398e+002,1.367998e+001
1.495040e+002,1.744921e+001
1.504683e+002,2.917004e+001
1.514325e+002,4.578809e+001
1.523967e+002,4.863889e+001
1.533610e+002,4.097080e+001
1.543252e+002,3.113561e+001
1.552894e+002,2.499366e+001
1.562537e+002,2.402310e+001
1.572179e+002,2.272981e+001
1.581821e+002,1.837899e+001
1.591464e+002,1.529283e+001
1.601106e+002,1.896842e+001
1.610748e+002,3.835365e+001
1.620391e+002,5.094138e+001
1.630033e+002,4.883488e+001
1.639676e+002,3.791319e+001
1.649318e+002,2.758740e+001
1.658960e+002,2.869144e+001
1.668603e+002,3.146798e+001
1.678245e+002,2.776121e+001
1.687887e+002,1.827816e+001
1.697530e+002,7.946460e+000
1.707172e+002,1.276260e+001
1.716814e+002,2.692324e+001
1.726457e+002,3.669299e+001
1.736099e+002,3.675995e+001
1.745741e+002,2.671920e+001
1.755384e+002,1.815864e+001
1.765026e+002,9.171679e+000
1.774668e+002,2.815234e+000
1.784311e+002,1.805493e+000
1.793953e+002,8.715711e+000
1.803595e+002,1.338478e+001
1.813238e+002,1.370166e+001
1.822880e+002,1.199443e+001
1.832522e+002,1.008081e+001
1.842165e+002,9.269470e+000
1.851807e+002,7.811377e+000
1.861449e+002,3.461572e+000
1.871092e+002,-2.093799e+000
1.880734e+002,-6.939966e+000
1.890376e+002,-8.701660e+000
1.900019e+002,-6.895776e+000
1.909661e+002,-3.780762e-001
1.919303e+002,1.067845e+001
1.928946e+002,2.318436e+001
1.938588e+002,2.649075e+001
1.948230e+002,1.380881e+001
1.957873e+002,7.022119e+000
1.967515e+002,1.298905e+001
1.977157e+002,3.122196e+001
1.986800e+002,4.337577e+001
1.996442e+002,4.106789e+001
2.006084e+002,3.885216e+001
2.015727e+002,4.322419e+001
2.025369e+002,5.598557e+001
2.035011e+002,6.479124e+001
2.044654e+002,5.840167e+001
2.054296e+002,4.680767e+001
2.063938e+002,3.480990e+001
2.073581e+002,2.567964e+001
2.083223e+002,1.929470e+001
2.092865e+002,1.288385e+001
2.102508e+002,7.588294e+000
2.112150e+002,7.432080e+000
2.121792e+002,1.676858e+001
2.131435e+002,3.898914e+001
2.141077e+002,5.363935e+001
2.150719e+002,5.919553e+001
2.160362e+002,5.931047e+001
2.170004e+002,5.922828e+001
2.179646e+002,5.980232e+001
2.189289e+002,5.840452e+001
2.198931e+002,5.095856e+001
2.208573e+002,4.163953e+001
2.218216e+002,3.813320e+001
2.227858e+002,4.914315e+001
2.237500e+002,6.444879e+001
2.247143e+002,8.668752e+001
2.256785e+002,1.110180e+002
2.266427e+002,1.277537e+002
2.276070e+002,1.109827e+002
2.285712e+002,7.766125e+001
2.295354e+002,4.833085e+001
2.304997e+002,2.911666e+001
2.314639e+002,1.910706e+001
2.324281e+002,1.376367e+001
2.333924e+002,1.362399e+001
2.343566e+002,1.457472e+001
2.353208e+002,1.560015e+001
2.362851e+002,1.687599e+001
2.372493e+002,1.674912e+001
2.382135e+002,1.407135e+001
2.391778e+002,1.119180e+001
2.401420e+002,9.498853e+000
2.411062e+002,9.692212e+000
2.420705e+002,9.239820e+000
2.430347e+002,6.024988e+000
2.439989e+002,1.955640e+000
2.449632e+002,-1.683203e+000
2.459274e+002,-3.930115e+000
2.468916e+002,-4.837830e+000
2.478559e+002,-4.935144e+000
2.488201e+002,-4.410681e+000
2.497843e+002,-3.675757e+000
2.507486e+002,-3.235242e+000
2.517128e+002,-3.234827e+000
2.526770e+002,-7.064575e-001
2.536413e+002,5.926282e+000
2.546055e+002,1.364147e+001
2.555697e+002,1.760265e+001
2.565340e+002,1.406825e+001
2.574982e+002,1.160212e+001
2.584625e+002,1.191692e+001
2.594267e+002,1.372782e+001
2.603909e+002,1.462323e+001
2.613552e+002,1.230680e+001
2.623194e+002,9.387293e+000
2.632836e+002,6.434534e+000
2.642479e+002,3.924097e+000
2.652121e+002,2.496704e+000
2.661763e+002,4.029565e+000
2.671406e+002,6.778723e+000
2.681048e+002,7.571826e+000
2.690690e+002,5.973291e+000
2.700333e+002,3.193909e+000
2.709975e+002,4.556433e+000
2.719617e+002,1.229344e+001
2.729260e+002,1.682706e+001
2.738902e+002,1.428920e+001
2.748544e+002,4.800073e+000
2.758187e+002,-1.589368e+000
2.767829e+002,-2.728418e+000
2.777471e+002,-2.743726e+000
2.787114e+002,-2.593945e+000
2.796756e+002,-2.436670e+000
2.806398e+002,-1.422900e+000
2.816041e+002,1.892554e+000
2.825683e+002,5.491394e+000
2.835325e+002,8.478528e+000
2.844968e+002,1.039590e+001
2.854610e+002,1.138108e+001
2.864252e+002,1.172540e+001
2.873895e+002,1.150161e+001
2.883537e+002,1.060422e+001
2.893179e+002,8.981030e+000
2.902822e+002,6.636987e+000
2.912464e+002,4.063110e+000
2.922106e+002,1.108020e+000
2.931749e+002,-1.850134e+000
2.941391e+002,-4.866455e+000
2.951033e+002,-8.502515e+000
2.960676e+002,-1.042771e+001
2.970318e+002,-1.045006e+001
2.979960e+002,-9.116931e+000
2.989603e+002,-6.618188e+000
2.999245e+002,-2.895557e+000
3.008887e+002,1.288159e+000
3.018530e+002,5.998828e+000
3.028172e+002,1.050709e+001
3.037814e+002,1.420232e+001
3.047457e+002,1.659656e+001
3.057099e+002,1.752465e+001
3.066741e+002,1.704911e+001
3.076384e+002,1.530402e+001
3.086026e+002,1.260592e+001
3.095668e+002,9.258594e+000
3.105311e+002,4.966443e+000
3.114953e+002,1.735596e+000
3.124595e+002,-9.512939e-001
3.134238e+002,-2.655493e+000
3.143880e+002,-2.631384e+000
3.153522e+002,5.697266e-001
3.163165e+002,2.899182e+000
3.172807e+002,3.206299e+000
3.182449e+002,2.829028e+000
3.192092e+002,3.273047e+000
3.201734e+002,5.678088e+000
3.211376e+002,8.600293e+000
3.221019e+002,1.099380e+001
3.230661e+002,1.302809e+001
3.240303e+002,1.516357e+001
3.249946e+002,1.810625e+001
3.259588e+002,2.114044e+001
3.269230e+002,2.139395e+001
3.278873e+002,1.876010e+001
3.288515e+002,1.482961e+001
3.298157e+002,1.241888e+001
3.307800e+002,1.282278e+001
3.317442e+002,1.307665e+001
3.327084e+002,1.200531e+001
3.336727e+002,1.088906e+001
3.346369e+002,1.238102e+001
3.356011e+002,2.116725e+001
3.365654e+002,2.663748e+001
3.375296e+002,2.456774e+001
3.384938e+002,1.809002e+001
3.394581e+002,1.206108e+001
3.404223e+002,1.041709e+001
3.413865e+002,1.131522e+001
3.423508e+002,1.326676e+001
3.433150e+002,1.592544e+001
3.442792e+002,1.892781e+001
3.452435e+002,2.175181e+001
3.462077e+002,2.429995e+001
3.471719e+002,2.589940e+001
3.481362e+002,2.562501e+001
3.491004e+002,2.560143e+001
3.500646e+002,3.043806e+001
3.510289e+002,3.774773e+001
3.519931e+002,5.593440e+001
3.529573e+002,8.772707e+001
3.539216e+002,1.296672e+002
3.548858e+002,1.782973e+002
3.558500e+002,2.527627e+002
3.568143e+002,3.030551e+002
3.577785e+002,3.085313e+002
3.587427e+002,2.793628e+002
3.597070e+002,2.324836e+002
3.606712e+002,1.767503e+002
3.616354e+002,1.228823e+002
3.625997e+002,8.338818e+001
3.635639e+002,5.808323e+001
3.645281e+002,4.332015e+001
3.654924e+002,3.283519e+001
3.664566e+002,2.782239e+001
3.674208e+002,2.371786e+001
3.683851e+002,2.094828e+001
3.693493e+002,1.883945e+001
3.703135e+002,1.589607e+001
3.712778e+002,1.023346e+001
3.722420e+002,6.836328e+000
3.732062e+002,6.680249e+000
3.741705e+002,8.741882e+000
3.751347e+002,1.162921e+001
3.760989e+002,1.553591e+001
3.770632e+002,1.872873e+001
3.780274e+002,2.032433e+001
3.789916e+002,2.053348e+001
3.799559e+002,1.973325e+001
3.809201e+002,1.822142e+001
3.818844e+002,1.622362e+001
3.828486e+002,1.408663e+001
3.838128e+002,1.191595e+001
3.847771e+002,1.038856e+001
3.857413e+002,1.055159e+001
3.867055e+002,1.357936e+001
3.876698e+002,1.527002e+001
3.886340e+002,1.348094e+001
3.895982e+002,1.123580e+001
3.905625e+002,1.328752e+001
3.915267e+002,2.447914e+001
3.924909e+002,3.189127e+001
3.934552e+002,3.257185e+001
3.944194e+002,2.929520e+001
3.953836e+002,2.454965e+001
3.963479e+002,1.891040e+001
3.973121e+002,1.453475e+001
3.982763e+002,1.381108e+001
3.992406e+002,1.511294e+001
4.002048e+002,1.590776e+001
4.011690e+002,1.367589e+001
4.021333e+002,9.399206e+000
4.030975e+002,1.031178e+001
4.040617e+002,1.639521e+001
4.050260e+002,2.339718e+001
4.059902e+002,2.696907e+001
4.069544e+002,2.562896e+001
4.079187e+002,2.442069e+001
4.088829e+002,2.352034e+001
4.098471e+002,2.252025e+001
4.108114e+002,2.083669e+001
4.117756e+002,1.794495e+001
4.127398e+002,1.628152e+001
4.137041e+002,1.747960e+001
4.146683e+002,1.951116e+001
4.156325e+002,2.110291e+001
4.165968e+002,2.155707e+001
4.175610e+002,2.111472e+001
4.185252e+002,1.932700e+001
4.194895e+002,1.731396e+001
4.204537e+002,1.676840e+001
4.214179e+002,1.873163e+001
4.223822e+002,2.304761e+001
4.233464e+002,2.686775e+001
4.243106e+002,3.099011e+001
4.252749e+002,3.275303e+001
4.262391e+002,2.891719e+001
4.272033e+002,1.849379e+001
4.281676e+002,1.462638e+001
4.291318e+002,2.272888e+001
4.300960e+002,3.215937e+001
4.310603e+002,3.812574e+001
4.320245e+002,4.050600e+001
4.329887e+002,4.552171e+001
4.339530e+002,5.715449e+001
4.349172e+002,7.474587e+001
4.358814e+002,1.009522e+002
4.368457e+002,1.348076e+002
4.378099e+002,1.729911e+002
4.387741e+002,2.147435e+002
4.397384e+002,2.540730e+002
4.407026e+002,2.701682e+002
4.416668e+002,2.571376e+002
4.426311e+002,2.219046e+002
4.435953e+002,1.873448e+002
4.445595e+002,1.496560e+002
4.455238e+002,1.184384e+002
4.464880e+002,9.552914e+001
4.474522e+002,7.923057e+001
4.484165e+002,6.631743e+001
4.493807e+002,5.739677e+001
4.503449e+002,5.094636e+001
4.513092e+002,4.740509e+001
4.522734e+002,4.546996e+001
4.532376e+002,4.357760e+001
4.542019e+002,4.065704e+001
4.551661e+002,3.682805e+001
4.561303e+002,3.181936e+001
4.570946e+002,2.633243e+001
4.580588e+002,2.184198e+001
4.590230e+002,1.998153e+001
4.599873e+002,2.105575e+001
4.609515e+002,2.183429e+001
4.619157e+002,2.233702e+001
4.628800e+002,2.250676e+001
4.638442e+002,2.201816e+001
4.648084e+002,2.017319e+001
4.657727e+002,1.998461e+001
4.667369e+002,2.263529e+001
4.677011e+002,2.576323e+001
4.686654e+002,2.837655e+001
4.696296e+002,3.020874e+001
4.705938e+002,3.025335e+001
4.715581e+002,2.609414e+001
4.725223e+002,2.109070e+001
4.734865e+002,1.746365e+001
4.744508e+002,1.607819e+001
4.754150e+002,1.605320e+001
4.763792e+002,1.516149e+001
4.773435e+002,1.379353e+001
4.783077e+002,1.326156e+001
4.792719e+002,1.414994e+001
4.802362e+002,1.609283e+001
4.812004e+002,1.690729e+001
4.821646e+002,1.563175e+001
4.831289e+002,1.422173e+001
4.840931e+002,1.234649e+001
4.850573e+002,1.034558e+001
4.860216e+002,9.291601e+000
4.869858e+002,1.109460e+001
4.879500e+002,1.218002e+001
4.889143e+002,1.045852e+001
4.898785e+002,7.389044e+000
4.908427e+002,5.430579e+000
4.918070e+002,6.915930e+000
4.927712e+002,9.938525e+000
4.937354e+002,1.153948e+001
4.946997e+002,1.186353e+001
4.956639e+002,1.117430e+001
4.966281e+002,9.700129e+000
4.975924e+002,7.353375e+000
4.985566e+002,5.351178e+000
4.995208e+002,3.278284e+000
5.004851e+002,1.925653e+000
5.014493e+002,2.198792e+000
5.024135e+002,4.623059e+000
5.033778e+002,6.211200e+000
5.043420e+002,5.876874e+000
5.053063e+002,5.655463e+000
5.062705e+002,6.871271e+000
5.072347e+002,9.548096e+000
5.081990e+002,1.162053e+001
5.091632e+002,1.016702e+001
5.101274e+002,7.834387e+000
5.110917e+002,5.954242e+000
5.120559e+002,4.934088e+000
5.130201e+002,4.591980e+000
5.139844e+002,4.719049e+000
5.149486e+002,5.171423e+000
5.159128e+002,4.894897e+000
5.168771e+002,3.581525e+000
5.178413e+002,1.832007e+000
5.188055e+002,9.167786e-001
5.197698e+002,1.115979e+000
5.207340e+002,1.940753e+000
5.216982e+002,4.436719e+000
5.226625e+002,6.958502e+000
5.236267e+002,7.309668e+000
5.245909e+002,3.918628e+000
5.255552e+002,1.006036e+000
5.265194e+002,9.977844e-001
5.274836e+002,2.219311e+000
5.284479e+002,3.421674e+000
5.294121e+002,3.894855e+000
5.303763e+002,3.830237e+000
5.313406e+002,2.732703e+000
5.323048e+002,1.320404e+000
5.332690e+002,1.737219e+000
5.342333e+002,5.187384e+000
5.351975e+002,1.098699e+001
5.361617e+002,1.346584e+001
5.371260e+002,9.805262e+000
5.380902e+002,7.304614e+000
5.390544e+002,8.124517e+000
5.400187e+002,1.108619e+001
5.409829e+002,1.242599e+001
5.419471e+002,9.997766e+000
5.429114e+002,7.520264e+000
5.438756e+002,5.783154e+000
5.448398e+002,4.680768e+000
5.458041e+002,3.977087e+000
5.467683e+002,3.633368e+000
5.477325e+002,3.363904e+000
5.486968e+002,2.731238e+000
5.496610e+002,1.825238e+000
5.506252e+002,8.043396e-001
5.515895e+002,-2.018433e-001
5.525537e+002,-1.203278e+000
5.535179e+002,-2.435364e+000
5.544822e+002,-4.481128e+000
5.554464e+002,-5.336487e+000
5.564106e+002,-3.285254e+000
5.573749e+002,1.678900e+000
5.583391e+002,5.026917e+000
5.593033e+002,5.185407e+000
5.602676e+002,4.857965e+000
5.612318e+002,4.539307e+000
5.621960e+002,4.301550e+000
5.631603e+002,4.009100e+000
5.641245e+002,3.603766e+000
5.650887e+002,3.057196e+000
5.660530e+002,2.193573e+000
5.670172e+002,1.163269e+000
5.679814e+002,2.068787e-001
5.689457e+002,-4.375000e-001
5.699099e+002,-6.913452e-001
5.708741e+002,8.745117e-002
5.718384e+002,2.204089e+000
5.728026e+002,3.906281e+000
5.737668e+002,3.213025e+000
5.747311e+002,-8.340637e-001
5.756953e+002,-2.491760e+000
5.766595e+002,1.038391e-001
5.776238e+002,2.779877e+000
5.785880e+002,4.134631e+000
5.795522e+002,4.039538e+000
5.805165e+002,3.201569e+000
5.814807e+002,1.477808e+000
5.824449e+002,-3.354065e-001
5.834092e+002,-2.138763e+000
5.843734e+002,-3.715576e+000
5.853376e+002,-4.725348e+000
5.863019e+002,-4.719647e+000
5.872661e+002,-3.717279e+000
5.882303e+002,-2.414233e+000
5.891946e+002,-7.804321e-001
5.901588e+002,7.025452e-001
5.911230e+002,1.402460e+000
5.920873e+002,8.564209e-001
5.930515e+002,1.345654e+000
5.940157e+002,4.448761e+000
5.949800e+002,6.744306e+000
5.959442e+002,5.708380e+000
5.969084e+002,1.383899e+000
5.978727e+002,-1.841608e+000
5.988369e+002,3.389770e-001
5.998011e+002,2.709985e+000
6.007654e+002,3.087427e+000
6.017296e+002,1.604761e+000
6.026938e+002,-4.584595e-001
6.036581e+002,-1.940814e+000
6.046223e+002,-2.549780e+000
6.055865e+002,-1.506354e+000
6.065508e+002,1.044495e+000
6.075150e+002,3.235065e+000
6.084792e+002,2.876190e+000
6.094435e+002,-9.386169e-001
6.104077e+002,-2.492731e+000
6.113719e+002,-3.591186e-001
6.123362e+002,1.714349e+000
6.133004e+002,1.415167e+000
6.142646e+002,-1.282336e+000
6.152289e+002,-3.120660e+000
6.161931e+002,-1.294672e+000
6.171573e+002,3.066162e-001
6.181216e+002,1.441650e-002
6.190858e+002,-1.724585e+000
6.200500e+002,-3.377094e+000
6.210143e+002,-3.534400e+000
6.219785e+002,-2.645074e+000
6.229427e+002,-1.783527e+000
6.239070e+002,-9.863526e-001
6.248712e+002,-2.698792e-001
6.258354e+002,3.890869e-001
6.267997e+002,1.088312e+000
6.277639e+002,1.394940e+000
6.287281e+002,8.793335e-001
6.296924e+002,4.185058e-001
6.306566e+002,3.884277e-001
6.316208e+002,7.654785e-001
6.325851e+002,1.249023e+000
6.335493e+002,1.964331e+000
6.345135e+002,2.703766e+000
6.354778e+002,3.631500e+000
6.364420e+002,4.467816e+000
6.374063e+002,4.710388e+000
6.383705e+002,3.855127e+000
6.393347e+002,2.431073e+000
6.402990e+002,1.241754e+000
6.412632e+002,3.502014e-001
6.422274e+002,-3.103638e-002
6.431917e+002,2.652893e-001
6.441559e+002,1.161493e+000
6.451201e+002,1.099469e+000
6.460844e+002,-7.312683e-001
6.470486e+002,-1.845105e+000
6.480128e+002,-1.009247e+000
6.489771e+002,1.286310e+000
6.499413e+002,2.897687e+000
6.509055e+002,2.986847e+000
6.518698e+002,2.838074e+000
6.528340e+002,2.974469e+000
6.537982e+002,3.072198e+000
6.547625e+002,2.542969e+000
6.557267e+002,9.532043e-001
6.566909e+002,-8.930054e-001
6.576552e+002,-2.154474e+000
6.586194e+002,-2.798950e+000
6.595836e+002,-2.404614e+000
6.605479e+002,-7.836731e-001
6.615121e+002,1.663568e+000
6.624763e+002,3.102802e+000
6.634406e+002,3.233160e+000
6.644048e+002,3.051984e+000
6.653690e+002,2.357880e+000
6.663333e+002,1.387225e+000
6.672975e+002,6.050171e-001
6.682617e+002,-3.133545e-002
6.692260e+002,3.250732e-002
6.701902e+002,1.373828e+000
6.711544e+002,2.978705e+000
6.721187e+002,4.114673e+000
6.730829e+002,4.479932e+000
6.740471e+002,4.186969e+000
6.750114e+002,2.282703e+000
6.759756e+002,3.773193e-001
6.769398e+002,7.551819e-001
6.779041e+002,3.646851e+000
6.788683e+002,7.305469e+000
6.798325e+002,8.556524e+000
6.807968e+002,6.543213e+000
6.817610e+002,4.856421e+000
6.827252e+002,3.223639e+000
6.836895e+002,2.095233e+000
6.846537e+002,2.159039e+000
6.856179e+002,3.729816e+000
6.865822e+002,4.541437e+000
6.875464e+002,3.455121e+000
6.885106e+002,2.177545e+000
6.894749e+002,1.250800e+000
6.904391e+002,8.257507e-001
6.914034e+002,8.787231e-001
6.923676e+002,1.608649e+000
6.933318e+002,2.626935e+000
6.942961e+002,3.467548e+000
6.952603e+002,4.081012e+000
6.962245e+002,4.382617e+000
6.971888e+002,4.282172e+000
6.981530e+002,3.746912e+000
6.991172e+002,2.746069e+000
7.000815e+002,5.043885e-001
7.010457e+002,-8.284119e-001
7.020099e+002,1.797241e-001
7.029742e+002,2.990686e+000
7.039384e+002,4.901056e+000
7.049026e+002,5.077868e+000
7.058669e+002,4.493817e+000
7.068311e+002,2.278357e+000
7.077953e+002,-5.095215e-002
7.087596e+002,-1.681457e-001
7.097238e+002,3.321973e+000
7.106880e+002,7.404047e+000
7.116523e+002,6.531079e+000
7.126165e+002,3.112695e+000
7.135807e+002,2.876709e-001
7.145450e+002,-6.889771e-001
7.155092e+002,-1.026306e-001
7.164734e+002,1.253918e+000
7.174377e+002,4.386896e+000
7.184019e+002,5.862378e+000
7.193661e+002,4.481854e+000
7.203304e+002,2.173950e+000
7.212946e+002,1.009863e+000
7.222589e+002,1.416205e+000
7.232231e+002,1.924445e+000
7.241873e+002,2.234491e+000
7.251516e+002,2.322601e+000
7.261158e+002,1.880286e+000
7.270800e+002,1.062939e+000
7.280443e+002,5.130127e-001
7.290085e+002,1.140289e+000
7.299727e+002,2.291669e+000
7.309370e+002,2.321198e+000
7.319012e+002,1.416797e+000
7.328654e+002,8.641602e-001
7.338297e+002,1.955908e+000
7.347939e+002,4.841174e+000
7.357581e+002,5.542035e+000
7.367224e+002,1.966315e+000
7.376866e+002,-7.493225e-001
7.386508e+002,-7.060852e-001
7.396151e+002,1.204449e+000
7.405793e+002,2.465832e+000
7.415435e+002,2.106171e+000
7.425078e+002,1.581366e+000
7.434720e+002,1.222156e+000
7.444362e+002,1.132471e+000
7.454005e+002,1.563110e+000
7.463647e+002,2.578265e+000
7.473289e+002,3.732306e+000
7.482932e+002,4.350690e+000
7.492574e+002,4.467072e+000
7.502216e+002,3.665027e+000
7.511859e+002,1.701447e+000
7.521501e+002,-5.707886e-001
7.531143e+002,-1.414337e+000
7.540786e+002,4.778565e-001
7.550428e+002,6.477051e-001
7.560070e+002,-3.063043e+000
7.569713e+002,-6.110639e+000
7.579355e+002,-4.915765e+000
7.588997e+002,3.408936e-001
7.598640e+002,4.572925e+000
7.608282e+002,3.938489e+000
7.617924e+002,2.561725e+000
7.627567e+002,2.316156e+000
7.637209e+002,3.077161e+000
7.646851e+002,4.090259e+000
7.656494e+002,4.730823e+000
7.666136e+002,5.354743e+000
7.675778e+002,8.240064e+000
7.685421e+002,1.302402e+001
7.695063e+002,1.584901e+001
7.704705e+002,1.461951e+001
7.714348e+002,1.024769e+001
7.723990e+002,6.307055e+000
7.733632e+002,2.430969e+000
7.743275e+002,-2.889526e-001
7.752917e+002,-1.478601e+000
7.762559e+002,-1.763153e+000
7.772202e+002,-1.607391e+000
7.781844e+002,-1.138922e+000
7.791486e+002,-3.967834e-001
7.801129e+002,1.392651e+000
7.810771e+002,2.900391e+000
7.820413e+002,2.815118e+000
7.830056e+002,1.363117e+000
7.839698e+002,-1.139526e-001
7.849340e+002,-3.704834e-002
7.858983e+002,1.457330e+000
7.868625e+002,8.906311e-001
7.878267e+002,-2.467688e+000
7.887910e+002,-5.089532e+000
7.897552e+002,-4.568933e+000
7.907194e+002,-1.324719e+000
7.916837e+002,1.117718e+000
7.926479e+002,2.382037e+000
7.936121e+002,2.741498e+000
7.945764e+002,1.766364e+000
7.955406e+002,1.870666e-001
7.965048e+002,-1.282983e+000
7.974691e+002,-2.320483e+000
7.984333e+002,-3.023407e+000
7.993975e+002,-3.423999e+000
8.003618e+002,-3.686047e+000
8.013260e+002,-4.009107e+000
8.022902e+002,-4.395032e+000
8.032545e+002,-4.533752e+000
8.042187e+002,-3.901532e+000
8.051829e+002,-2.175323e+000
8.061472e+002,-1.606610e+000
8.071114e+002,-3.312854e+000
8.080756e+002,-4.750940e+000
8.090399e+002,-4.428729e+000
8.100041e+002,-2.565491e+000
8.109683e+002,-7.992493e-001
8.119326e+002,7.315491e-001
8.128968e+002,1.595245e+000
8.138610e+002,1.377704e+000
8.148253e+002,5.677368e-001
8.157895e+002,-4.594544e-001
8.167537e+002,-1.473987e+000
8.177180e+002,-2.081104e+000
8.186822e+002,-9.700562e-001
8.196464e+002,1.084979e+000
8.206107e+002,2.121021e+000
8.215749e+002,1.598810e+000
8.225391e+002,6.477356e-001
8.235034e+002,1.190466e+000
8.244676e+002,4.037366e+000
8.254318e+002,5.774298e+000
8.263961e+002,6.415912e+000
8.273603e+002,6.456628e+000
8.283245e+002,5.953516e+000
8.292888e+002,4.972735e+000
8.302530e+002,3.639337e+000
8.312172e+002,1.596149e+000
8.321815e+002,-6.252442e-002
8.331457e+002,-4.645630e-001
8.341099e+002,-1.129883e-001
8.350742e+002,3.393127e-001
8.360384e+002,5.466980e-001
8.370026e+002,6.560425e-001
8.379669e+002,1.059973e+000
8.389311e+002,1.753412e+000
8.398953e+002,2.155219e+000
8.408596e+002,2.184717e+000
8.418238e+002,1.938080e+000
8.427880e+002,1.548285e+000
8.437523e+002,1.056323e+000
8.447165e+002,2.562073e-001
8.456807e+002,-1.666083e+000
8.466450e+002,-3.020154e+000
8.476092e+002,-2.855713e+000
8.485734e+002,-1.728632e+000
8.495377e+002,-8.390564e-001
8.505019e+002,-8.830627e-001
8.514661e+002,-1.285535e+000
8.524304e+002,-1.310077e+000
8.533946e+002,-1.118555e+000
8.543588e+002,-9.034119e-001
8.553231e+002,-7.514954e-001
8.562873e+002,-7.312561e-001
8.572515e+002,-1.004431e+000
8.582158e+002,-1.748529e+000
8.591800e+002,-2.247229e+000
8.601442e+002,-2.325446e+000
8.611085e+002,-2.418182e+000
8.620727e+002,-2.811212e+000
8.630369e+002,-3.460522e+000
8.640012e+002,-4.071887e+000
8.649654e+002,-4.865692e+000
8.659296e+002,-5.216254e+000
8.668939e+002,-4.652539e+000
8.678581e+002,-3.574731e+000
8.688223e+002,-2.416907e+000
8.697866e+002,-1.440997e+000
8.707508e+002,-7.172119e-001
8.717150e+002,-5.107056e-001
8.726793e+002,-7.378540e-001
8.736435e+002,-9.536743e-001
8.746077e+002,-1.031433e+000
8.755720e+002,-1.226233e+000
8.765362e+002,-1.931146e+000
8.775004e+002,-3.287189e+000
8.784647e+002,-4.519824e+000
8.794289e+002,-6.254083e+000
8.803931e+002,-7.190924e+000
8.813574e+002,-6.332330e+000
8.823216e+002,-4.477014e+000
8.832858e+002,-3.217645e+000
8.842501e+002,-3.342480e+000
8.852143e+002,-3.804394e+000
8.861785e+002,-3.289471e+000
8.871428e+002,-2.626544e+000
8.881070e+002,-2.968018e+000
8.890712e+002,-4.525543e+000
8.900355e+002,-6.481702e+000
8.909997e+002,-7.518842e+000
8.919639e+002,-7.471063e+000
8.929282e+002,-7.401996e+000
8.938924e+002,-7.662451e+000
8.948566e+002,-7.488751e+000
8.958209e+002,-6.029004e+000
8.967851e+002,-3.705249e+000
8.977493e+002,-2.410058e+000
8.987136e+002,-3.154492e+000
8.996778e+002,-4.058429e+000
9.006420e+002,-4.708197e+000
9.016063e+002,-4.937653e+000
9.025705e+002,-4.224139e+000
9.035347e+002,-2.654230e+000
9.044990e+002,-1.333276e+000
9.054632e+002,-1.896442e+000
9.064274e+002,-3.934174e+000
9.073917e+002,-5.133582e+000
9.083559e+002,-5.398798e+000
9.093201e+002,-5.542005e+000
9.102844e+002,-6.421942e+000
9.112486e+002,-7.942102e+000
9.122128e+002,-8.107885e+000
9.131771e+002,-5.203296e+000
9.141413e+002,-3.116248e+000
9.151055e+002,-2.261609e+000
9.160698e+002,-2.294299e+000
9.170340e+002,-3.290149e+000
9.179982e+002,-5.177728e+000
9.189625e+002,-6.567267e+000
9.199267e+002,-5.635614e+000
9.208909e+002,-4.144519e+000
9.218552e+002,-3.687640e+000
9.228194e+002,-4.229590e+000
9.237836e+002,-5.419305e+000
9.247479e+002,-7.000909e+000
9.257121e+002,-8.686895e+000
9.266763e+002,-8.674182e+000
9.276406e+002,-5.764264e+000
9.286048e+002,-3.874365e+000
9.295690e+002,-3.869318e+000
9.305333e+002,-4.716284e+000
9.314975e+002,-5.551453e+000
9.324617e+002,-6.390527e+000
9.334260e+002,-6.360583e+000
9.343902e+002,-3.394073e+000
9.353545e+002,-9.962708e-001
9.363187e+002,-1.133685e+000
9.372830e+002,-2.940179e+000
9.382472e+002,-4.784070e+000
9.392114e+002,-5.606488e+000
9.401757e+002,-5.510358e+000
9.411399e+002,-4.429559e+000
9.421041e+002,-2.588275e+000
9.430684e+002,-1.375720e+000
9.440326e+002,-1.125366e+000
9.449968e+002,-1.500378e+000
9.459611e+002,-2.285620e+000
9.469253e+002,-3.633972e+000
9.478895e+002,-3.956024e+000
9.488538e+002,-2.269214e+000
9.498180e+002,-5.886230e-001
9.507822e+002,8.186646e-001
9.517465e+002,1.739771e+000
9.527107e+002,1.842114e+000
9.536749e+002,9.910095e-001
9.546392e+002,-1.428223e-003
9.556034e+002,-6.995849e-002
9.565676e+002,2.393433e-001
9.575319e+002,2.279175e-001
9.584961e+002,-1.215881e-001
9.594603e+002,-3.558472e-001
9.604246e+002,-2.708130e-002
9.613888e+002,8.394409e-001
9.623530e+002,1.837518e+000
9.633173e+002,3.275733e+000
9.642815e+002,4.385877e+000
9.652457e+002,4.598157e+000
9.662100e+002,4.796625e+000
9.671742e+002,5.743231e+000
9.681384e+002,7.507880e+000
9.691027e+002,1.065094e+001
9.700669e+002,1.284962e+001
9.710311e+002,1.923307e+001
9.719954e+002,3.661840e+001
9.729596e+002,6.113367e+001
9.739238e+002,8.585101e+001
9.748881e+002,1.057257e+002
9.758523e+002,1.177725e+002
9.768165e+002,1.095701e+002
9.777808e+002,7.599585e+001
9.787450e+002,4.921070e+001
9.797092e+002,3.419775e+001
9.806735e+002,2.554674e+001
9.816377e+002,1.864985e+001
9.826019e+002,1.352542e+001
9.835662e+002,1.054523e+001
9.845304e+002,1.174115e+001
9.854946e+002,1.304615e+001
9.864589e+002,1.283906e+001
9.874231e+002,1.206653e+001
9.883873e+002,1.198956e+001
9.893516e+002,1.303881e+001
9.903158e+002,1.461429e+001
9.912800e+002,1.611256e+001
9.922443e+002,1.752236e+001
9.932085e+002,1.814498e+001
9.941727e+002,1.778798e+001
9.951370e+002,1.871687e+001
9.961012e+002,2.239997e+001
9.970654e+002,2.861695e+001
9.980297e+002,3.584512e+001
9.989939e+002,3.550488e+001
9.999581e+002,5.251044e+001
1.000922e+003,8.332027e+001
1.001887e+003,1.353790e+002
1.002851e+003,2.422956e+002
1.003815e+003,3.852221e+002
1.004779e+003,4.794760e+002
1.005744e+003,4.575106e+002
1.006708e+003,3.675271e+002
1.007672e+003,2.725402e+002
1.008636e+003,1.795966e+002
1.009600e+003,1.092376e+002
1.010565e+003,7.057036e+001
1.011529e+003,5.404635e+001
1.012493e+003,4.188878e+001
1.013457e+003,3.518658e+001
1.014422e+003,3.015588e+001
1.015386e+003,2.730945e+001
1.016350e+003,2.507678e+001
1.017314e+003,2.264525e+001
1.018279e+003,2.033288e+001
1.019243e+003,1.912210e+001
1.020207e+003,1.960050e+001
1.021171e+003,2.004248e+001
1.022135e+003,1.862924e+001
1.023100e+003,1.677422e+001
1.024064e+003,1.551473e+001
1.025028e+003,1.497600e+001
1.025992e+003,1.497688e+001
1.026957e+003,1.539017e+001
1.027921e+003,1.615601e+001
1.028885e+003,1.662415e+001
1.029849e+003,1.661607e+001
1.030814e+003,1.673636e+001
1.031778e+003,1.728802e+001
1.032742e+003,1.762238e+001
1.033706e+003,1.694135e+001
1.034671e+003,1.531642e+001
1.035635e+003,1.420845e+001
1.036599e+003,1.463705e+001
1.037563e+003,1.512043e+001
1.038527e+003,1.447183e+001
1.039492e+003,1.351934e+001
1.040456e+003,1.355862e+001
1.041420e+003,1.494555e+001
1.042384e+003,1.669188e+001
1.043349e+003,1.733020e+001
1.044313e+003,1.683175e+001
1.045277e+003,1.638778e+001
1.046241e+003,1.597591e+001
1.047206e+003,1.562551e+001
1.048170e+003,1.516605e+001
1.049134e+003,1.482223e+001
1.050098e+003,1.534329e+001
1.051063e+003,1.729841e+001
1.052027e+003,1.864717e+001
1.052991e+003,1.804668e+001
1.053955e+003,1.717471e+001
1.054919e+003,1.718043e+001
1.055884e+003,1.767009e+001
1.056848e+003,1.739221e+001
1.057812e+003,1.563215e+001
1.058776e+003,1.352738e+001
1.059741e+003,1.347989e+001
1.060705e+003,1.519314e+001
1.061669e+003,1.681016e+001
1.062633e+003,1.821487e+001
1.063598e+003,1.913464e+001
1.064562e+003,1.907502e+001
1.065526e+003,1.819493e+001
1.066490e+003,1.814043e+001
1.067454e+003,1.994077e+001
1.068419e+003,2.102960e+001
1.069383e+003,1.951672e+001
1.070347e+003,1.803553e+001
1.071311e+003,1.954424e+001
1.072276e+003,2.357963e+001
1.073240e+003,2.664080e+001
1.074204e+003,2.589840e+001
1.075168e+003,2.298804e+001
1.076133e+003,2.146061e+001
1.077097e+003,2.101677e+001
1.078061e+003,2.084146e+001
1.079025e+003,2.067793e+001
1.079990e+003,2.068491e+001
1.080954e+003,2.116176e+001
1.081918e+003,2.219548e+001
1.082882e+003,2.311219e+001
1.083846e+003,2.393295e+001
1.084811e+003,2.449420e+001
1.085775e+003,2.472784e+001
1.086739e+003,2.469077e+001
1.087703e+003,2.440568e+001
1.088668e+003,2.396364e+001
1.089632e+003,2.351821e+001
1.090596e+003,2.289097e+001
1.091560e+003,2.263849e+001
1.092525e+003,2.426697e+001
1.093489e+003,2.718326e+001
1.094453e+003,2.899283e+001
1.095417e+003,2.849914e+001
1.096381e+003,2.688796e+001
1.097346e+003,2.666599e+001
1.098310e+003,2.861324e+001
1.099274e+003,2.914328e+001
1.100238e+003,2.702850e+001
1.101203e+003,2.516530e+001
1.102167e+003,2.410215e+001
1.103131e+003,2.386755e+001
1.104095e+003,2.467292e+001
1.105060e+003,2.647427e+001
1.106024e+003,2.821140e+001
1.106988e+003,2.891912e+001
1.107952e+003,2.920021e+001
1.108917e+003,3.021198e+001
1.109881e+003,3.165010e+001
1.110845e+003,3.214274e+001
1.111809e+003,3.082607e+001
1.112773e+003,2.863602e+001
1.113738e+003,2.797654e+001
1.114702e+003,2.978840e+001
1.115666e+003,3.066157e+001
1.116630e+003,2.991332e+001
1.117595e+003,2.910099e+001
1.118559e+003,2.861210e+001
1.119523e+003,2.845559e+001
1.120487e+003,2.853414e+001
1.121452e+003,2.884402e+001
1.122416e+003,2.965530e+001
1.123380e+003,3.162921e+001
1.124344e+003,3.373655e+001
1.125308e+003,3.449796e+001
1.126273e+003,3.422618e+001
1.127237e+003,3.409620e+001
1.128201e+003,3.474914e+001
1.129165e+003,3.580653e+001
1.130130e+003,3.637291e+001
1.131094e+003,3.624396e+001
1.132058e+003,3.598624e+001
1.133022e+003,3.514305e+001
1.133987e+003,3.480676e+001
1.134951e+003,3.615587e+001
1.135915e+003,3.794750e+001
1.136879e+003,3.812094e+001
1.137844e+003,3.620793e+001
1.138808e+003,3.418522e+001
1.139772e+003,3.335881e+001
1.140736e+003,3.346917e+001
1.141700e+003,3.462024e+001
1.142665e+003,3.644535e+001
1.143629e+003,3.772219e+001
1.144593e+003,3.785654e+001
1.145557e+003,3.733804e+001
1.146522e+003,3.698714e+001
1.147486e+003,3.663514e+001
1.148450e+003,3.661124e+001
1.149414e+003,3.714691e+001
1.150379e+003,3.791574e+001
1.151343e+003,3.945478e+001
1.152307e+003,4.086985e+001
1.153271e+003,4.046937e+001
1.154235e+003,3.815714e+001
1.155200e+003,3.679427e+001
1.156164e+003,3.927330e+001
1.157128e+003,4.286719e+001
1.158092e+003,4.338082e+001
1.159057e+003,4.176365e+001
1.160021e+003,4.023603e+001
1.160985e+003,3.959079e+001
1.161949e+003,3.965474e+001
1.162914e+003,4.033061e+001
1.163878e+003,4.176893e+001
1.164842e+003,4.285809e+001
1.165806e+003,4.289502e+001
1.166771e+003,4.338204e+001
1.167735e+003,4.514046e+001
1.168699e+003,4.696300e+001
1.169663e+003,4.777837e+001
1.170627e+003,4.753096e+001
1.171592e+003,4.674986e+001
1.172556e+003,4.561919e+001
1.173520e+003,4.454467e+001
1.174484e+003,4.405431e+001
1.175449e+003,4.400286e+001
1.176413e+003,4.425957e+001
1.177377e+003,4.478179e+001
1.178341e+003,4.541865e+001
1.179306e+003,4.594474e+001
1.180270e+003,4.647170e+001
1.181234e+003,4.796891e+001
1.182198e+003,5.181217e+001
1.183162e+003,5.401723e+001
1.184127e+003,5.355349e+001
1.185091e+003,5.219233e+001
1.186055e+003,5.033181e+001
1.187019e+003,4.868044e+001
1.187984e+003,4.860463e+001
1.188948e+003,5.071747e+001
1.189912e+003,5.319425e+001
1.190876e+003,5.371711e+001
1.191841e+003,5.290427e+001
1.192805e+003,5.232909e+001
1.193769e+003,5.208124e+001
1.194733e+003,5.172471e+001
1.195698e+003,5.067898e+001
1.196662e+003,4.953930e+001
1.197626e+003,5.014226e+001
1.198590e+003,5.318450e+001
1.199554e+003,5.534332e+001
1.200519e+003,5.545784e+001
1.201483e+003,5.569493e+001
1.202447e+003,5.729473e+001
1.203411e+003,5.911716e+001
1.204376e+003,5.936848e+001
1.205340e+003,5.776867e+001
1.206304e+003,5.595701e+001
1.207268e+003,5.556174e+001
1.208233e+003,5.625692e+001
1.209197e+003,5.667189e+001
1.210161e+003,5.676611e+001
1.211125e+003,5.684624e+001
1.212089e+003,5.692873e+001
1.213054e+003,5.688551e+001
1.214018e+003,5.632008e+001
1.214982e+003,5.548511e+001
1.215946e+003,5.643046e+001
1.216911e+003,6.061543e+001
1.217875e+003,6.401465e+001
1.218839e+003,6.594540e+001
1.219803e+003,6.625838e+001
1.220768e+003,6.372071e+001
1.221732e+003,5.977663e+001
1.222696e+003,5.767634e+001
1.223660e+003,5.913888e+001
1.224625e+003,6.198029e+001
1.225589e+003,6.210159e+001
1.226553e+003,5.940370e+001
1.227517e+003,5.946761e+001
1.228481e+003,6.355463e+001
1.229446e+003,6.727677e+001
1.230410e+003,6.877098e+001
1.231374e+003,6.862927e+001
1.232338e+003,6.742747e+001
1.233303e+003,6.516148e+001
1.234267e+003,6.377618e+001
1.235231e+003,6.409483e+001
1.236195e+003,6.523306e+001
1.237160e+003,6.735940e+001
1.238124e+003,6.948059e+001
1.239088e+003,7.033904e+001
1.240052e+003,6.984534e+001
1.241016e+003,6.894347e+001
1.241981e+003,6.851263e+001
1.242945e+003,6.841018e+001
1.243909e+003,6.801058e+001
1.244873e+003,6.693728e+001
1.245838e+003,6.676113e+001
1.246802e+003,6.847144e+001
1.247766e+003,6.992979e+001
1.248730e+003,6.934172e+001
1.249695e+003,6.775020e+001
1.250659e+003,6.773397e+001
1.251623e+003,7.002446e+001
1.252587e+003,7.221400e+001
1.253552e+003,7.253932e+001
1.254516e+003,7.209367e+001
1.255480e+003,7.159485e+001
1.256444e+003,7.130918e+001
1.257408e+003,7.195884e+001
1.258373e+003,7.378996e+001
1.259337e+003,7.580882e+001
1.260301e+003,7.658804e+001
1.261265e+003,7.617081e+001
1.262230e+003,7.613246e+001
1.263194e+003,7.660410e+001
1.264158e+003,7.690653e+001
1.265122e+003,7.698197e+001
1.266087e+003,7.696552e+001
1.267051e+003,7.705988e+001
1.268015e+003,7.720479e+001
1.268979e+003,7.698035e+001
1.269943e+003,7.618002e+001
1.270908e+003,7.572331e+001
1.271872e+003,7.672243e+001
1.272836e+003,7.872852e+001
1.273800e+003,8.103220e+001
1.274765e+003,8.348920e+001
1.275729e+003,8.424696e+001
1.276693e+003,8.173225e+001
1.277657e+003,7.840712e+001
1.278622e+003,7.852910e+001
1.279586e+003,8.232036e+001
1.280550e+003,8.432849e+001
1.281514e+003,8.287000e+001
1.282479e+003,8.194139e+001
1.283443e+003,8.287561e+001
1.284407e+003,8.425790e+001
1.285371e+003,8.511482e+001
1.286335e+003,8.529005e+001
1.287300e+003,8.483525e+001
1.288264e+003,8.390597e+001
1.289228e+003,8.327612e+001
1.290192e+003,8.417493e+001
1.291157e+003,8.650999e+001
1.292121e+003,8.810502e+001
1.293085e+003,8.877346e+001
1.294049e+003,8.891221e+001
1.295014e+003,8.848152e+001
1.295978e+003,8.796230e+001
1.296942e+003,8.793838e+001
1.297906e+003,8.839962e+001
1.298870e+003,8.873391e+001
1.299835e+003,8.841776e+001
1.300799e+003,8.834926e+001
1.301763e+003,8.975201e+001
1.302727e+003,9.117069e+001
1.303692e+003,9.103257e+001
1.304656e+003,8.981525e+001
1.305620e+003,8.918456e+001
1.306584e+003,9.004696e+001
1.307549e+003,9.186039e+001
1.308513e+003,9.377876e+001
1.309477e+003,9.598198e+001
1.310441e+003,9.631299e+001
1.311406e+003,9.234890e+001
1.312370e+003,9.020142e+001
1.313334e+003,9.213635e+001
1.314298e+003,9.503403e+001
1.315263e+003,9.655280e+001
1.316227e+003,9.663104e+001
1.317191e+003,9.578389e+001
1.318155e+003,9.408651e+001
1.319120e+003,9.288464e+001
1.320084e+003,9.402356e+001
1.321048e+003,9.647825e+001
1.322012e+003,9.806808e+001
1.322976e+003,9.876461e+001
1.323941e+003,9.906625e+001
1.324905e+003,9.918343e+001
1.325869e+003,9.928731e+001
1.326833e+003,9.951854e+001
1.327798e+003,9.983850e+001
1.328762e+003,1.003624e+002
1.329726e+003,1.017399e+002
1.330690e+003,1.019210e+002
1.331655e+003,9.881697e+001
1.332619e+003,9.602444e+001
1.333583e+003,9.651123e+001
1.334547e+003,9.909660e+001
1.335511e+003,1.011972e+002
1.336476e+003,1.016666e+002
1.337440e+003,1.012292e+002
1.338404e+003,1.007507e+002
1.339368e+003,1.003314e+002
1.340333e+003,1.004744e+002
1.341297e+003,1.014112e+002
1.342261e+003,1.018846e+002
1.343225e+003,1.016577e+002
1.344190e+003,1.011035e+002
1.345154e+003,9.973777e+001
1.346118e+003,9.839181e+001
1.347082e+003,9.953731e+001
1.348047e+003,1.038720e+002
1.349011e+003,1.071423e+002
1.349975e+003,1.057220e+002
1.350939e+003,1.034429e+002
1.351903e+003,1.050736e+002
1.352868e+003,1.088051e+002
1.353832e+003,1.107506e+002
1.354796e+003,1.099291e+002
1.355760e+003,1.083502e+002
1.356725e+003,1.078592e+002
1.357689e+003,1.082397e+002
1.358653e+003,1.085698e+002
1.359617e+003,1.090298e+002
1.360582e+003,1.088940e+002
1.361546e+003,1.066802e+002
1.362510e+003,1.055234e+002
1.363474e+003,1.075530e+002
1.364438e+003,1.106463e+002
1.365403e+003,1.125336e+002
1.366367e+003,1.127973e+002
1.367331e+003,1.120148e+002
1.368295e+003,1.105711e+002
1.369260e+003,1.093083e+002
1.370224e+003,1.100311e+002
1.371188e+003,1.128354e+002
1.372152e+003,1.138072e+002
1.373117e+003,1.117928e+002
1.374081e+003,1.105242e+002
1.375045e+003,1.119302e+002
1.376009e+003,1.142681e+002
1.376974e+003,1.159500e+002
1.377938e+003,1.169201e+002
1.378902e+003,1.167320e+002
1.379866e+003,1.145973e+002
1.380830e+003,1.132939e+002
1.381795e+003,1.163592e+002
1.382759e+003,1.199492e+002
1.383723e+003,1.200610e+002
1.384687e+003,1.178457e+002
1.385652e+003,1.169065e+002
1.386616e+003,1.185879e+002
1.387580e+003,1.210134e+002
1.388544e+003,1.219323e+002
1.389509e+003,1.214110e+002
1.390473e+003,1.206632e+002
1.391437e+003,1.192718e+002
1.392401e+003,1.190415e+002
1.393365e+003,1.212195e+002
1.394330e+003,1.229357e+002
1.395294e+003,1.219612e+002
1.396258e+003,1.203560e+002
1.397222e+003,1.214245e+002
1.398187e+003,1.251232e+002
1.399151e+003,1.282941e+002
1.400115e+003,1.286230e+002
1.401079e+003,1.269076e+002
1.402044e+003,1.243945e+002
1.403008e+003,1.211706e+002
1.403972e+003,1.207028e+002
1.404936e+003,1.243139e+002
1.405901e+003,1.275437e+002
1.406865e+003,1.283416e+002
1.407829e+003,1.285061e+002
1.408793e+003,1.302333e+002
1.409757e+003,1.331767e+002
1.410722e+003,1.353655e+002
1.411686e+003,1.362645e+002
1.412650e+003,1.355319e+002
1.413614e+003,1.313573e+002
1.414579e+003,1.272292e+002
1.415543e+003,1.275521e+002
1.416507e+003,1.309935e+002
1.417471e+003,1.339359e+002
1.418436e+003,1.351747e+002
1.419400e+003,1.353642e+002
1.420364e+003,1.349721e+002
1.421328e+003,1.343836e+002
1.422292e+003,1.348008e+002
1.423257e+003,1.362623e+002
1.424221e+003,1.380802e+002
1.425185e+003,1.411980e+002
1.426149e+003,1.431847e+002
1.427114e+003,1.433458e+002
1.428078e+003,1.425348e+002
1.429042e+003,1.405482e+002
1.430006e+003,1.381419e+002
1.430971e+003,1.371808e+002
1.431935e+003,1.386010e+002
1.432899e+003,1.413451e+002
1.433863e+003,1.440291e+002
1.434828e+003,1.466725e+002
1.435792e+003,1.482220e+002
1.436756e+003,1.480470e+002
1.437720e+003,1.472927e+002
1.438684e+003,1.452129e+002
1.439649e+003,1.438968e+002
1.440613e+003,1.453627e+002
1.441577e+003,1.480131e+002
1.442541e+003,1.487928e+002
1.443506e+003,1.473033e+002
1.444470e+003,1.458958e+002
1.445434e+003,1.458966e+002
1.446398e+003,1.471488e+002
1.447363e+003,1.502593e+002
1.448327e+003,1.540770e+002
1.449291e+003,1.553428e+002
1.450255e+003,1.538089e+002
1.451219e+003,1.526369e+002
1.452184e+003,1.534707e+002
1.453148e+003,1.551042e+002
1.454112e+003,1.561909e+002
1.455076e+003,1.567318e+002
1.456041e+003,1.567078e+002
1.457005e+003,1.558948e+002
1.457969e+003,1.558606e+002
1.458933e+003,1.586995e+002
1.459898e+003,1.609137e+002
1.460862e+003,1.590921e+002
1.461826e+003,1.556509e+002
1.462790e+003,1.542942e+002
1.463755e+003,1.556819e+002
1.464719e+003,1.583774e+002
1.465683e+003,1.614732e+002
1.466647e+003,1.642498e+002
1.467611e+003,1.647372e+002
1.468576e+003,1.624338e+002
1.469540e+003,1.610253e+002
1.470504e+003,1.612865e+002
1.471468e+003,1.615460e+002
1.472433e+003,1.615675e+002
1.473397e+003,1.614695e+002
1.474361e+003,1.609250e+002
1.475325e+003,1.605454e+002
1.476290e+003,1.615691e+002
1.477254e+003,1.639042e+002
1.478218e+003,1.657072e+002
1.479182e+003,1.655360e+002
1.480146e+003,1.643618e+002
1.481111e+003,1.642185e+002
1.482075e+003,1.651114e+002
1.483039e+003,1.662900e+002
1.484003e+003,1.679122e+002
1.484968e+003,1.694554e+002
1.485932e+003,1.713142e+002
1.486896e+003,1.729141e+002
1.487860e+003,1.740060e+002
1.488825e+003,1.741286e+002
1.489789e+003,1.716569e+002
1.490753e+003,1.665071e+002
1.491717e+003,1.632788e+002
1.492682e+003,1.656135e+002
1.493646e+003,1.702894e+002
1.494610e+003,1.720421e+002
1.495574e+003,1.717221e+002
1.496538e+003,1.723516e+002
1.497503e+003,1.745865e+002
1.498467e+003,1.754554e+002
1.499431e+003,1.723122e+002
1.500395e+003,1.677654e+002
1.501360e+003,1.649607e+002
1.502324e+003,1.638700e+002
1.503288e+003,1.639912e+002
1.504252e+003,1.653124e+002
1.505217e+003,1.667341e+002
1.506181e+003,1.681233e+002
1.507145e+003,1.690529e+002
1.508109e+003,1.688975e+002
1.509073e+003,1.683116e+002
1.510038e+003,1.682629e+002
1.511002e+003,1.688941e+002
1.511966e+003,1.699579e+002
1.512930e+003,1.714682e+002
1.513895e+003,1.729490e+002
1.514859e+003,1.733498e+002
1.515823e+003,1.725390e+002
1.516787e+003,1.713971e+002
1.517752e+003,1.694371e+002
1.518716e+003,1.690076e+002
1.519680e+003,1.728755e+002
1.520644e+003,1.756273e+002
1.521609e+003,1.739145e+002
1.522573e+003,1.703295e+002
1.523537e+003,1.681585e+002
1.524501e+003,1.676806e+002
1.525465e+003,1.668655e+002
1.526430e+003,1.644963e+002
1.527394e+003,1.618336e+002
1.528358e+003,1.609669e+002
1.529322e+003,1.618636e+002
1.530287e+003,1.634645e+002
1.531251e+003,1.675413e+002
1.532215e+003,1.690054e+002
1.533179e+003,1.650799e+002
1.534144e+003,1.619816e+002
1.535108e+003,1.632399e+002
1.536072e+003,1.655902e+002
1.537036e+003,1.655576e+002
1.538000e+003,1.632557e+002
1.538965e+003,1.603544e+002
1.539929e+003,1.576820e+002
1.540893e+003,1.555619e+002
1.541857e+003,1.544494e+002
1.542822e+003,1.543831e+002
1.543786e+003,1.550293e+002
1.544750e+003,1.567107e+002
1.545714e+003,1.574516e+002
1.546679e+003,1.567212e+002
1.547643e+003,1.556575e+002
1.548607e+003,1.541738e+002
1.549571e+003,1.531367e+002
1.550536e+003,1.536521e+002
1.551500e+003,1.549957e+002
1.552464e+003,1.553386e+002
1.553428e+003,1.543427e+002
1.554392e+003,1.536616e+002
1.555357e+003,1.545745e+002
1.556321e+003,1.561097e+002
1.557285e+003,1.567828e+002
1.558249e+003,1.565856e+002
1.559214e+003,1.547856e+002
1.560178e+003,1.505279e+002
1.561142e+003,1.471552e+002
1.562106e+003,1.458837e+002
1.563071e+003,1.455014e+002
1.564035e+003,1.458352e+002
1.564999e+003,1.462726e+002
1.565963e+003,1.447020e+002
1.566927e+003,1.409363e+002
1.567892e+003,1.385204e+002
1.568856e+003,1.395766e+002
1.569820e+003,1.414770e+002
1.570784e+003,1.411404e+002
1.571749e+003,1.394378e+002
1.572713e+003,1.386833e+002
1.573677e+003,1.389465e+002
1.574641e+003,1.387826e+002
1.575606e+003,1.373845e+002
1.576570e+003,1.358215e+002
1.577534e+003,1.355818e+002
1.578498e+003,1.356217e+002
1.579463e+003,1.331919e+002
1.580427e+003,1.284464e+002
1.581391e+003,1.255979e+002
1.582355e+003,1.262415e+002
1.583319e+003,1.273305e+002
1.584284e+003,1.271705e+002
1.585248e+003,1.262919e+002
1.586212e+003,1.249450e+002
1.587176e+003,1.231327e+002
1.588141e+003,1.212191e+002
1.589105e+003,1.194087e+002
1.590069e+003,1.182248e+002
1.591033e+003,1.181923e+002
1.591998e+003,1.185333e+002
1.592962e+003,1.180712e+002
1.593926e+003,1.169596e+002
1.594890e+003,1.162530e+002
1.595854e+003,1.162517e+002
1.596819e+003,1.159260e+002
1.597783e+003,1.147177e+002
1.598747e+003,1.130759e+002
1.599711e+003,1.108727e+002
1.600676e+003,1.087356e+002
1.601640e+003,1.076843e+002
1.602604e+003,1.076381e+002
1.603568e+003,1.078712e+002
1.604533e+003,1.081216e+002
1.605497e+003,1.074196e+002
1.606461e+003,1.040399e+002
1.607425e+003,9.940311e+001
1.608390e+003,9.791531e+001
1.609354e+003,9.978225e+001
1.610318e+003,1.002679e+002
1.611282e+003,9.816710e+001
1.612246e+003,9.533138e+001
1.613211e+003,9.120644e+001
1.614175e+003,8.804594e+001
1.615139e+003,8.867897e+001
1.616103e+003,9.093471e+001
1.617068e+003,9.112445e+001
1.618032e+003,8.883634e+001
1.618996e+003,8.597559e+001
1.619960e+003,8.340121e+001
1.620925e+003,8.159451e+001
1.621889e+003,8.208742e+001
1.622853e+003,8.425525e+001
1.623817e+003,8.351077e+001
1.624781e+003,7.920978e+001
1.625746e+003,7.653180e+001
1.626710e+003,7.740625e+001
1.627674e+003,7.830943e+001
1.628638e+003,7.698586e+001
1.629603e+003,7.530727e+001
1.630567e+003,7.547612e+001
1.631531e+003,7.646627e+001
1.632495e+003,7.563385e+001
1.633460e+003,7.258549e+001
1.634424e+003,6.955021e+001
1.635388e+003,6.802543e+001
1.636352e+003,6.757094e+001
1.637317e+003,6.798944e+001
1.638281e+003,6.910437e+001
1.639245e+003,6.789745e+001
1.640209e+003,6.327847e+001
1.641173e+003,6.031718e+001
1.642138e+003,6.200619e+001
1.643102e+003,6.325210e+001
1.644066e+003,6.053419e+001
1.645030e+003,5.696706e+001
1.645995e+003,5.583916e+001
1.646959e+003,5.646368e+001
1.647923e+003,5.633551e+001
1.648887e+003,5.470359e+001
1.649852e+003,5.274278e+001
1.650816e+003,5.127497e+001
1.651780e+003,5.036509e+001
1.652744e+003,5.048235e+001
1.653708e+003,5.155686e+001
1.654673e+003,5.158886e+001
1.655637e+003,5.023078e+001
1.656601e+003,4.869381e+001
1.657565e+003,4.717192e+001
1.658530e+003,4.582002e+001
1.659494e+003,4.476712e+001
1.660458e+003,4.382894e+001
1.661422e+003,4.292570e+001
1.662387e+003,4.196110e+001
1.663351e+003,4.051802e+001
1.664315e+003,3.851727e+001
1.665279e+003,3.712820e+001
1.666244e+003,3.766579e+001
1.667208e+003,3.902633e+001
1.668172e+003,3.872361e+001
1.669136e+003,3.685756e+001
1.670100e+003,3.553492e+001
1.671065e+003,3.505534e+001
1.672029e+003,3.443702e+001
1.672993e+003,3.326993e+001
1.673957e+003,3.220086e+001
1.674922e+003,3.161077e+001
1.675886e+003,3.125845e+001
1.676850e+003,3.091348e+001
1.677814e+003,3.057671e+001
1.678779e+003,3.049539e+001
1.679743e+003,3.076124e+001
1.680707e+003,3.042703e+001
1.681671e+003,2.834342e+001
1.682635e+003,2.563174e+001
1.683600e+003,2.425217e+001
1.684564e+003,2.409186e+001
1.685528e+003,2.429294e+001
1.686492e+003,2.476535e+001
1.687457e+003,2.505402e+001
1.688421e+003,2.486639e+001
1.689385e+003,2.484991e+001
1.690349e+003,2.627883e+001
1.691314e+003,2.771183e+001
1.692278e+003,2.705323e+001
1.693242e+003,2.474352e+001
1.694206e+003,2.282111e+001
1.695171e+003,2.179530e+001
1.696135e+003,2.093791e+001
1.697099e+003,1.963301e+001
1.698063e+003,1.840363e+001
1.699027e+003,1.805512e+001
1.699992e+003,1.834685e+001
1.700956e+003,1.843520e+001
1.701920e+003,1.822084e+001
1.702884e+003,1.820531e+001
1.703849e+003,1.866254e+001
1.704813e+003,1.891858e+001
1.705777e+003,1.844158e+001
1.706741e+003,1.749456e+001
1.707706e+003,1.630767e+001
1.708670e+003,1.505134e+001
1.709634e+003,1.434387e+001
1.710598e+003,1.430657e+001
1.711563e+003,1.441903e+001
1.712527e+003,1.494841e+001
1.713491e+003,1.500253e+001
1.714455e+003,1.303986e+001
1.715419e+003,1.057473e+001
1.716384e+003,1.081947e+001
1.717348e+003,1.325948e+001
1.718312e+003,1.384772e+001
1.719276e+003,1.130963e+001
1.720241e+003,8.673694e+000
1.721205e+003,8.017578e+000
1.722169e+003,8.686664e+000
1.723133e+003,1.009662e+001
1.724098e+003,1.199978e+001
1.725062e+003,1.190999e+001
1.726026e+003,9.075079e+000
1.726990e+003,7.319922e+000
1.727954e+003,7.789484e+000
1.728919e+003,8.738080e+000
1.729883e+003,9.940363e+000
1.730847e+003,1.079380e+001
1.731811e+003,1.057408e+001
1.732776e+003,9.570996e+000
1.733740e+003,8.411713e+000
1.734704e+003,7.302051e+000
1.735668e+003,6.178802e+000
1.736633e+003,5.001081e+000
1.737597e+003,4.214654e+000
1.738561e+003,4.486853e+000
1.739525e+003,5.616705e+000
1.740490e+003,6.553680e+000
1.741454e+003,7.422620e+000
1.742418e+003,7.478491e+000
1.743382e+003,5.999621e+000
1.744346e+003,4.825720e+000
1.745311e+003,4.143466e+000
1.746275e+003,3.952213e+000
1.747239e+003,4.832086e+000
1.748203e+003,5.849548e+000
1.749168e+003,5.581421e+000
1.750132e+003,4.377295e+000
1.751096e+003,3.753958e+000
1.752060e+003,4.244205e+000
1.753025e+003,5.043359e+000
1.753989e+003,5.445502e+000
1.754953e+003,5.499048e+000
1.755917e+003,5.277564e+000
1.756881e+003,4.772555e+000
1.757846e+003,4.041379e+000
1.758810e+003,2.852673e+000
1.759774e+003,2.230383e+000
1.760738e+003,2.514026e+000
1.761703e+003,3.010910e+000
1.762667e+003,3.855457e+000
1.763631e+003,4.461609e+000
1.764595e+003,4.256751e+000
1.765560e+003,3.576169e+000
1.766524e+003,3.148648e+000
1.767488e+003,2.947556e+000
1.768452e+003,1.979837e+000
1.769417e+003,-3.703918e-001
1.770381e+003,-2.531906e+000
1.771345e+003,-2.451575e+000
1.772309e+003,-1.044864e+000
1.773273e+003,-7.465668e-001
1.774238e+003,-1.437817e+000
1.775202e+003,-1.384946e+000
1.776166e+003,-1.998383e-001
1.777130e+003,7.234863e-001
1.778095e+003,8.837738e-001
1.779059e+003,5.833099e-001
1.780023e+003,-4.736206e-001
1.780987e+003,-1.488422e+000
1.781952e+003,-6.696533e-001
1.782916e+003,1.427399e+000
1.783880e+003,1.872720e+000
1.784844e+003,-1.548737e-001
1.785808e+003,-1.733459e+000
1.786773e+003,-1.284845e+000
1.787737e+003,-3.947235e-001
1.788701e+003,-4.944458e-001
1.789665e+003,-8.084289e-001
1.790630e+003,2.484131e-001
1.791594e+003,2.164688e+000
1.792558e+003,2.800781e+000
1.793522e+003,1.682812e+000
1.794487e+003,2.728058e-001
1.795451e+003,-5.280091e-001
1.796415e+003,-7.927399e-001
1.797379e+003,-6.257995e-001
1.798344e+003,-1.088623e-001
1.799308e+003,4.947296e-001
1.800272e+003,1.155331e+000
1.801236e+003,1.879800e+000
1.802201e+003,3.866067e+000
1.803165e+003,4.237445e+000
1.804129e+003,6.776856e-001
1.805093e+003,-2.359982e+000
1.806057e+003,-1.788177e+000
1.807022e+003,1.461182e-002
1.807986e+003,2.816895e-001
1.808950e+003,-7.103302e-001
1.809914e+003,-1.158563e+000
1.810879e+003,-6.789337e-001
1.811843e+003,-8.176788e-001
1.812807e+003,-2.759860e+000
1.813771e+003,-4.950604e+000
1.814736e+003,-4.636096e+000
1.815700e+003,-2.396707e+000
1.816664e+003,-1.914154e+000
1.817628e+003,-3.485635e+000
1.818593e+003,-3.722894e+000
1.819557e+003,-1.491321e+000
1.820521e+003,-8.743592e-002
1.821485e+003,-1.407379e+000
1.822449e+003,-3.002481e+000
1.823414e+003,-3.103003e+000
1.824378e+003,-2.496655e+000
1.825342e+003,-2.019025e+000
1.826306e+003,-1.666901e+000
1.827271e+003,-1.222147e+000
1.828235e+003,-6.192291e-001
1.829199e+003,-1.954803e-001
1.830163e+003,-1.178284e-002
1.831128e+003,-1.722229e-001
1.832092e+003,-1.261237e+000
1.833056e+003,-2.466397e+000
1.834020e+003,-2.117392e+000
1.834984e+003,-7.564911e-001
1.835949e+003,-6.156128e-001
1.836913e+003,-1.986560e+000
1.837877e+003,-2.865112e+000
1.838841e+003,-2.170029e+000
1.839806e+003,-1.002515e+000
1.840770e+003,-5.354370e-001
1.841734e+003,-7.013855e-001
1.842698e+003,-1.387979e+000
1.843663e+003,-2.777057e+000
1.844627e+003,-2.622281e+000
1.845591e+003,1.266980e+000
1.846555e+003,3.174899e+000
1.847520e+003,1.251858e+000
1.848484e+003,-5.513214e-001
1.849448e+003,-6.463593e-001
1.850412e+003,-4.022522e-002
1.851376e+003,7.476349e-001
1.852341e+003,1.356067e+000
1.853305e+003,1.057355e+000
1.854269e+003,9.426880e-002
1.855233e+003,-1.263123e-002
1.856198e+003,1.418799e+000
1.857162e+003,2.880914e+000
1.858126e+003,2.830728e+000
1.859090e+003,1.909247e+000
1.860055e+003,1.223340e+000
1.861019e+003,7.407104e-001
1.861983e+003,6.320496e-001
1.862947e+003,9.398041e-001
1.863911e+003,8.798553e-001
1.864876e+003,1.744354e-001
1.865840e+003,-3.241547e-001
1.866804e+003,1.405945e-002
1.867768e+003,4.033264e-001
1.868733e+003,-5.499054e-001
1.869697e+003,-1.996118e+000
1.870661e+003,-1.009699e+000
1.871625e+003,2.425323e+000
1.872590e+003,4.398517e+000
1.873554e+003,3.936237e+000
1.874518e+003,3.173489e+000
1.875482e+003,2.577991e+000
1.876447e+003,2.022968e+000
1.877411e+003,1.371759e+000
1.878375e+003,7.931366e-001
1.879339e+003,3.985229e-001
1.880303e+003,1.884338e-001
1.881268e+003,2.489410e-001
1.882232e+003,5.339295e-001
1.883196e+003,7.581512e-001
1.884160e+003,7.898224e-001
1.885125e+003,9.062836e-001
1.886089e+003,1.433609e+000
1.887053e+003,2.096869e+000
1.888017e+003,2.173850e+000
1.888982e+003,1.674231e+000
1.889946e+003,1.017954e+000
1.890910e+003,1.632996e-001
1.891874e+003,-6.600677e-001
1.892839e+003,-1.702286e+000
1.893803e+003,-2.089404e+000
1.894767e+003,-1.060410e+000
1.895731e+003,4.232697e-001
1.896695e+003,1.797348e+000
1.897660e+003,2.868881e+000
1.898624e+003,3.366601e+000
1.899588e+003,3.257282e+000
1.900552e+003,2.184921e+000
1.901517e+003,-5.104035e-001
1.902481e+003,-2.030243e+000
1.903445e+003,-1.906891e-001
1.904409e+003,1.923810e+000
1.905374e+003,2.106860e+000
1.906338e+003,1.668918e+000
1.907302e+003,2.237717e+000
1.908266e+003,3.327667e+000
1.909230e+003,3.647430e+000
1.910195e+003,3.112888e+000
1.911159e+003,2.441385e+000
1.912123e+003,2.055206e+000
1.913087e+003,2.475391e+000
1.914052e+003,4.267285e+000
1.915016e+003,6.160684e+000
1.915980e+003,5.289493e+000
1.916944e+003,1.954083e+000
1.917909e+003,2.228607e-001
1.918873e+003,3.576996e-001
1.919837e+003,6.987365e-001
1.920801e+003,1.163373e+000
1.921766e+003,1.559625e+000
1.922730e+003,1.810971e+000
1.923694e+003,1.914673e+000
1.924658e+003,1.674667e+000
1.925622e+003,1.478339e+000
1.926587e+003,1.848306e+000
1.927551e+003,2.677841e+000
1.928515e+003,3.765616e+000
1.929479e+003,5.213248e+000
1.930444e+003,5.401010e+000
1.931408e+003,2.541003e+000
1.932372e+003,3.138794e-001
1.933336e+003,1.132455e+000
1.934301e+003,2.518417e+000
1.935265e+003,2.098169e+000
1.936229e+003,1.189038e+000
1.937193e+003,2.314386e+000
1.938157e+003,4.650198e+000
1.939122e+003,5.068366e+000
1.940086e+003,3.156738e+000
1.941050e+003,1.798724e+000
1.942014e+003,2.692380e+000
1.942979e+003,4.072763e+000
1.943943e+003,3.756818e+000
1.944907e+003,2.432712e+000
1.945871e+003,2.003513e+000
1.946836e+003,2.450549e+000
1.947800e+003,2.760440e+000
1.948764e+003,2.809155e+000
1.949728e+003,3.366016e+000
1.950693e+003,4.817883e+000
1.951657e+003,5.846295e+000
1.952621e+003,5.800934e+000
1.953585e+003,5.253763e+000
1.954549e+003,4.577026e+000
1.955514e+003,3.839343e+000
1.956478e+003,2.916162e+000
1.957442e+003,1.896170e+000
1.958406e+003,2.423737e+000
1.959371e+003,5.469980e+000
1.960335e+003,7.379913e+000
1.961299e+003,7.135324e+000
1.962263e+003,6.469342e+000
1.963228e+003,5.820703e+000
1.964192e+003,5.088226e+000
1.965156e+003,3.811078e+000
1.966120e+003,2.663538e+000
1.967084e+003,2.697516e+000
1.968049e+003,3.577447e+000
1.969013e+003,4.154212e+000
1.969977e+003,4.179782e+000
1.970941e+003,4.499011e+000
1.971906e+003,5.655423e+000
1.972870e+003,6.646100e+000
1.973834e+003,6.362006e+000
1.974798e+003,5.304077e+000
1.975763e+003,3.818042e+000
1.976727e+003,2.336496e+000
1.977691e+003,2.601337e+000
1.978655e+003,4.379755e+000
1.979620e+003,5.449155e+000
1.980584e+003,5.327832e+000
1.981548e+003,4.770776e+000
1.982512e+003,4.110953e+000
1.983476e+003,3.583017e+000
1.984441e+003,3.495136e+000
1.985405e+003,3.517694e+000
1.986369e+003,2.758142e+000
1.987333e+003,1.283929e+000
1.988298e+003,1.254553e+000
1.989262e+003,3.472409e+000
1.990226e+003,4.622040e+000
1.991190e+003,3.924042e+000
1.992155e+003,3.436291e+000
1.993119e+003,4.044739e+000
1.994083e+003,4.543527e+000
1.995047e+003,3.960077e+000
1.996011e+003,3.196423e+000
1.996976e+003,3.466736e+000
1.997940e+003,4.259354e+000
1.998904e+003,4.020902e+000
1.999868e+003,2.695041e+000
2.000833e+003,2.337604e+000
2.001797e+003,3.766452e+000
2.002761e+003,5.348783e+000
2.003725e+003,6.751749e+000
2.004690e+003,7.740191e+000
2.005654e+003,8.027588e+000
2.006618e+003,7.941071e+000
2.007582e+003,7.721292e+000
2.008547e+003,7.453485e+000
2.009511e+003,7.276819e+000
2.010475e+003,7.117679e+000
2.011439e+003,6.589725e+000
2.012403e+003,5.626001e+000
2.013368e+003,4.841324e+000
2.014332e+003,4.699707e+000
2.015296e+003,4.792239e+000
2.016260e+003,4.409271e+000
2.017225e+003,3.989676e+000
2.018189e+003,4.806845e+000
2.019153e+003,6.458017e+000
2.020117e+003,7.287988e+000
2.021082e+003,7.236386e+000
2.022046e+003,7.474289e+000
2.023010e+003,8.300440e+000
2.023974e+003,8.117559e+000
2.024938e+003,5.904565e+000
2.025903e+003,3.879944e+000
2.026867e+003,4.462219e+000
2.027831e+003,6.560788e+000
2.028795e+003,7.656161e+000
2.029760e+003,7.813040e+000
2.030724e+003,7.751147e+000
2.031688e+003,7.420560e+000
2.032652e+003,6.740204e+000
2.033617e+003,5.357877e+000
2.034581e+003,4.543317e+000
2.035545e+003,5.190854e+000
2.036509e+003,5.629883e+000
2.037474e+003,4.069348e+000
2.038438e+003,2.558347e+000
2.039402e+003,3.932126e+000
2.040366e+003,6.772378e+000
2.041330e+003,7.835116e+000
2.042295e+003,7.125357e+000
2.043259e+003,6.727139e+000
2.044223e+003,6.993692e+000
2.045187e+003,7.224747e+000
2.046152e+003,7.175799e+000
2.047116e+003,7.190604e+000
2.048080e+003,7.624716e+000
2.049044e+003,7.865442e+000
2.050009e+003,7.371857e+000
2.050973e+003,6.595920e+000
2.051937e+003,5.687369e+000
2.052901e+003,5.116592e+000
2.053865e+003,6.116928e+000
2.054830e+003,8.475012e+000
2.055794e+003,9.728424e+000
2.056758e+003,8.702484e+000
2.057722e+003,7.513077e+000
2.058687e+003,7.636343e+000
2.059651e+003,8.421021e+000
2.060615e+003,9.748388e+000
2.061579e+003,1.086574e+001
2.062544e+003,1.063244e+001
2.063508e+003,9.531012e+000
2.064472e+003,8.330127e+000
2.065436e+003,7.341452e+000
2.066401e+003,7.062479e+000
2.067365e+003,7.544620e+000
2.068329e+003,8.261853e+000
2.069293e+003,8.873309e+000
2.070258e+003,8.958753e+000
2.071222e+003,7.805902e+000
2.072186e+003,6.329923e+000
2.073150e+003,6.871490e+000
2.074115e+003,8.795611e+000
2.075079e+003,9.150305e+000
2.076043e+003,8.044592e+000
2.077007e+003,7.308737e+000
2.077971e+003,7.276935e+000
2.078936e+003,8.028720e+000
2.079900e+003,9.605860e+000
2.080864e+003,1.049097e+001
2.081828e+003,9.518494e+000
2.082792e+003,8.140045e+000
2.083757e+003,8.430487e+000
2.084721e+003,9.831311e+000
2.085685e+003,1.039150e+001
2.086649e+003,1.009163e+001
2.087614e+003,1.005429e+001
2.088578e+003,1.048665e+001
2.089542e+003,1.000805e+001
2.090506e+003,7.835462e+000
2.091471e+003,6.768344e+000
2.092435e+003,8.328229e+000
2.093399e+003,9.907721e+000
2.094363e+003,9.697449e+000
2.095328e+003,8.719202e+000
2.096292e+003,8.015903e+000
2.097256e+003,7.697320e+000
2.098220e+003,8.454114e+000
2.099185e+003,1.054318e+001
2.100149e+003,1.155509e+001
2.101113e+003,1.071425e+001
2.102077e+003,1.013416e+001
2.103042e+003,1.052460e+001
2.104006e+003,1.021132e+001
2.104970e+003,7.568634e+000
2.105934e+003,5.656564e+000
2.106898e+003,6.904028e+000
2.107863e+003,8.978595e+000
2.108827e+003,9.536402e+000
2.109791e+003,9.082599e+000
2.110755e+003,8.815717e+000
2.111719e+003,8.787348e+000
2.112684e+003,8.647223e+000
2.113648e+003,8.211660e+000
2.114612e+003,8.161618e+000
2.115576e+003,9.043940e+000
2.116541e+003,9.682281e+000
2.117505e+003,9.500318e+000
2.118469e+003,9.183911e+000
2.119433e+003,8.928131e+000
2.120398e+003,8.981293e+000
2.121362e+003,1.007267e+001
2.122326e+003,1.133203e+001
2.123290e+003,1.088889e+001
2.124255e+003,9.005035e+000
2.125219e+003,8.041357e+000
2.126183e+003,8.729065e+000
2.127147e+003,9.243958e+000
2.128112e+003,8.663055e+000
2.129076e+003,7.917737e+000
2.130040e+003,7.200607e+000
2.131004e+003,6.817563e+000
2.131969e+003,7.530045e+000
2.132933e+003,8.225779e+000
2.133897e+003,7.209137e+000
2.134861e+003,5.505567e+000
2.135825e+003,5.146561e+000
2.136790e+003,6.100061e+000
2.137754e+003,7.141986e+000
2.138718e+003,7.817657e+000
2.139682e+003,7.926019e+000
2.140646e+003,7.168695e+000
2.141611e+003,6.506299e+000
2.142575e+003,7.273148e+000
2.143539e+003,7.861493e+000
2.144503e+003,5.717242e+000
2.145468e+003,3.220041e+000
2.146432e+003,4.254153e+000
2.147396e+003,7.155258e+000
2.148360e+003,8.235660e+000
2.149325e+003,7.414828e+000
2.150289e+003,6.529120e+000
2.151253e+003,6.235107e+000
2.152217e+003,6.359033e+000
2.153182e+003,6.839654e+000
2.154146e+003,7.197723e+000
2.155110e+003,6.927793e+000
2.156074e+003,6.366251e+000
2.157039e+003,5.633011e+000
2.158003e+003,5.030875e+000
2.158967e+003,5.371027e+000
2.159931e+003,6.201159e+000
2.160896e+003,6.458960e+000
2.161860e+003,6.143716e+000
2.162824e+003,5.719586e+000
2.163788e+003,5.343283e+000
2.164752e+003,5.035159e+000
2.165717e+003,4.794137e+000
2.166681e+003,4.534039e+000
2.167645e+003,4.196856e+000
2.168609e+003,3.713217e+000
2.169573e+003,2.799976e+000
2.170538e+003,1.842700e+000
2.171502e+003,1.519397e+000
2.172466e+003,1.704352e+000
2.173430e+003,2.172324e+000
2.174395e+003,2.920844e+000
2.175359e+003,4.322867e+000
2.176323e+003,6.106140e+000
2.177287e+003,6.656799e+000
2.178252e+003,5.486346e+000
2.179216e+003,4.164429e+000
2.180180e+003,3.837991e+000
2.181144e+003,3.994363e+000
2.182109e+003,4.068933e+000
2.183073e+003,4.008975e+000
2.184037e+003,3.782666e+000
2.185001e+003,3.355194e+000
2.185966e+003,2.440726e+000
2.186930e+003,1.341373e+000
2.187894e+003,9.464508e-001
2.188858e+003,1.278857e+000
2.189823e+003,1.892429e+000
2.190787e+003,2.546457e+000
2.191751e+003,3.047611e+000
2.192715e+003,3.311237e+000
2.193679e+003,3.037048e+000
2.194644e+003,1.792114e+000
2.195608e+003,4.935486e-001
2.196572e+003,1.072174e+000
2.197536e+003,2.489853e+000
2.198500e+003,1.721613e+000
2.199465e+003,-2.045563e-001
2.200429e+003,1.224945e-001
2.201393e+003,2.223071e+000
2.202357e+003,3.185324e+000
2.203322e+003,2.586624e+000
2.204286e+003,1.773724e+000
2.205250e+003,1.291296e+000
2.206214e+003,7.015228e-001
2.207179e+003,-3.011475e-001
2.208143e+003,-1.160016e+000
2.209107e+003,-1.095160e+000
2.210071e+003,-7.576294e-001
2.211036e+003,-1.720761e+000
2.212000e+003,-3.151599e+000
2.212964e+003,-2.686874e+000
2.213928e+003,-1.007635e+000
2.214893e+003,-1.512055e-001
2.215857e+003,-2.561707e-001
2.216821e+003,-1.018991e+000
2.217785e+003,-2.134876e+000
2.218750e+003,-2.587579e+000
2.219714e+003,-1.960330e+000
2.220678e+003,-1.101068e+000
2.221642e+003,-6.515411e-001
2.222606e+003,-4.692383e-001
2.223571e+003,-5.419800e-001
2.224535e+003,-6.455414e-001
2.225499e+003,-1.029663e-001
2.226463e+003,5.884125e-001
2.227427e+003,1.445526e-001
2.228392e+003,-9.846497e-001
2.229356e+003,-1.380890e+000
2.230320e+003,-1.061331e+000
2.231284e+003,-1.143188e+000
2.232249e+003,-1.776755e+000
2.233213e+003,-1.655020e+000
2.234177e+003,-1.552093e-001
2.235141e+003,1.206723e+000
2.236106e+003,1.017069e+000
2.237070e+003,3.982422e-001
2.238034e+003,8.280151e-001
2.238998e+003,1.507193e+000
2.239963e+003,1.189246e+000
2.240927e+003,4.338043e-001
2.241891e+003,1.663696e-001
2.242855e+003,3.549561e-001
2.243820e+003,8.942688e-001
2.244784e+003,1.517520e+000
2.245748e+003,1.461124e+000
2.246712e+003,6.666352e-001
2.247677e+003,2.977386e-001
2.248641e+003,1.003305e+000
2.249605e+003,1.697336e+000
2.250569e+003,1.329486e+000
2.251533e+003,8.598114e-001
2.252498e+003,1.234302e+000
2.253462e+003,1.877866e+000
2.254426e+003,2.441135e+000
2.255390e+003,2.703604e+000
2.256354e+003,2.057776e+000
2.257319e+003,1.089526e+000
2.258283e+003,1.228494e+000
2.259247e+003,2.130878e+000
2.260211e+003,1.800919e+000
2.261176e+003,-1.071564e-001
2.262140e+003,-1.351013e+000
2.263104e+003,-7.751190e-001
2.264068e+003,-1.992218e-001
2.265033e+003,-1.110190e+000
2.265997e+003,-1.692471e+000
2.266961e+003,-1.340546e-001
2.267925e+003,1.339810e+000
2.268890e+003,2.103577e-001
2.269854e+003,-1.252658e+000
2.270818e+003,3.737793e-001
2.271782e+003,3.070419e+000
2.272747e+003,2.731635e+000
2.273711e+003,-1.520264e-001
2.274675e+003,-2.003323e+000
2.275639e+003,-2.124417e+000
2.276604e+003,-2.064972e+000
2.277568e+003,-2.247015e+000
2.278532e+003,-2.205231e+000
2.279496e+003,-1.419739e+000
2.280460e+003,-1.050461e+000
2.281425e+003,-1.769669e+000
2.282389e+003,-2.705399e+000
2.283353e+003,-3.899139e+000
2.284317e+003,-4.488333e+000
2.285281e+003,-2.911832e+000
2.286246e+003,-6.424164e-001
2.287210e+003,-4.736359e-001
2.288174e+003,-2.066159e+000
2.289138e+003,-2.841275e+000
2.290103e+003,-2.480923e+000
2.291067e+003,-2.611764e+000
2.292031e+003,-3.987619e+000
2.292995e+003,-4.351981e+000
2.293960e+003,-2.999533e+000
2.294924e+003,-1.846384e+000
2.295888e+003,-1.288428e+000
2.296852e+003,-1.073145e+000
2.297817e+003,-1.062353e+000
2.298781e+003,-1.397922e+000
2.299745e+003,-2.485687e+000
2.300709e+003,-3.476035e+000
2.301674e+003,-2.715610e+000
2.302638e+003,-7.974304e-001
2.303602e+003,-7.297577e-001
2.304566e+003,-2.705310e+000
2.305531e+003,-4.096274e+000
2.306495e+003,-4.911011e+000
2.307459e+003,-4.584106e+000
2.308423e+003,-2.927518e+000
2.309387e+003,-1.562122e+000
2.310352e+003,-8.816437e-001
2.311316e+003,-9.924408e-001
2.312280e+003,-1.967578e+000
2.313244e+003,-3.077838e+000
2.314208e+003,-3.763592e+000
2.315173e+003,-3.999564e+000
2.316137e+003,-3.531082e+000
2.317101e+003,-3.063709e+000
2.318065e+003,-5.302289e+000
2.319030e+003,-9.035772e+000
2.319994e+003,-8.963791e+000
2.320958e+003,-5.969851e+000
2.321922e+003,-3.460700e+000
2.322887e+003,-1.945752e+000
2.323851e+003,-1.846008e+000
2.324815e+003,-2.953137e+000
2.325779e+003,-4.137469e+000
2.326744e+003,-4.859940e+000
2.327708e+003,-5.010358e+000
2.328672e+003,-4.518304e+000
2.329636e+003,-3.858850e+000
2.330601e+003,-3.323038e+000
2.331565e+003,-3.091437e+000
2.332529e+003,-3.510336e+000
2.333493e+003,-4.203732e+000
2.334458e+003,-5.263620e+000
2.335422e+003,-5.891879e+000
2.336386e+003,-4.243335e+000
2.337350e+003,-1.802765e+000
2.338314e+003,-1.614963e+000
2.339279e+003,-3.164359e+000
2.340243e+003,-3.508050e+000
2.341207e+003,-2.264389e+000
2.342171e+003,-2.024292e+000
2.343135e+003,-3.880075e+000
2.344100e+003,-5.391232e+000
2.345064e+003,-5.597552e+000
2.346028e+003,-5.408707e+000
2.346992e+003,-4.694592e+000
2.347957e+003,-4.185367e+000
2.348921e+003,-4.349967e+000
2.349885e+003,-4.743186e+000
2.350849e+003,-5.426099e+000
2.351814e+003,-5.886362e+000
2.352778e+003,-5.382147e+000
2.353742e+003,-4.198694e+000
2.354706e+003,-2.687003e+000
2.355671e+003,-9.708160e-001
2.356635e+003,-1.353708e+000
2.357599e+003,-4.839765e+000
2.358563e+003,-6.103354e+000
2.359528e+003,-4.284714e+000
2.360492e+003,-3.115115e+000
2.361456e+003,-3.118378e+000
2.362420e+003,-3.143109e+000
2.363385e+003,-2.808636e+000
2.364349e+003,-2.831982e+000
2.365313e+003,-3.672119e+000
2.366277e+003,-4.364838e+000
2.367241e+003,-3.952271e+000
2.368206e+003,-3.439340e+000
2.369170e+003,-4.595218e+000
2.370134e+003,-6.574890e+000
2.371098e+003,-6.786624e+000
2.372063e+003,-5.668725e+000
2.373027e+003,-4.753500e+000
2.373991e+003,-4.144137e+000
2.374955e+003,-4.480994e+000
2.375919e+003,-5.464737e+000
2.376884e+003,-5.923080e+000
2.377848e+003,-5.606891e+000
2.378812e+003,-4.317194e+000
2.379776e+003,-2.335162e+000
2.380741e+003,-1.882245e+000
2.381705e+003,-4.251419e+000
2.382669e+003,-6.277041e+000
2.383633e+003,-5.399313e+000
2.384598e+003,-3.593201e+000
2.385562e+003,-1.480478e+000
2.386526e+003,-2.725250e-001
2.387490e+003,-1.785385e+000
2.388455e+003,-3.745322e+000
2.389419e+003,-3.483310e+000
2.390383e+003,-2.652838e+000
2.391347e+003,-4.171249e+000
2.392312e+003,-6.884277e+000
2.393276e+003,-7.534726e+000
2.394240e+003,-6.147192e+000
2.395204e+003,-5.578855e+000
2.396168e+003,-6.440860e+000
2.397133e+003,-6.545523e+000
2.398097e+003,-5.104291e+000
2.399061e+003,-4.287549e+000
2.400025e+003,-4.733606e+000
2.400990e+003,-4.585724e+000
2.401954e+003,-2.945517e+000
2.402918e+003,-1.863730e+000
2.403882e+003,-2.392908e+000
2.404846e+003,-3.551666e+000
2.405811e+003,-4.723462e+000
2.406775e+003,-5.239462e+000
2.407739e+003,-4.009824e+000
2.408703e+003,-1.963126e+000
2.409668e+003,-1.649774e+000
2.410632e+003,-2.724890e+000
2.411596e+003,-3.724847e+000
2.412560e+003,-4.537665e+000
2.413525e+003,-4.297488e+000
2.414489e+003,-3.329419e+000
2.415453e+003,-3.280823e+000
2.416417e+003,-4.063993e+000
2.417382e+003,-4.135321e+000
2.418346e+003,-3.304700e+000
2.419310e+003,-3.083874e+000
2.420274e+003,-4.084039e+000
2.421239e+003,-4.783746e+000
2.422203e+003,-3.923981e+000
2.423167e+003,-3.518442e+000
2.424131e+003,-6.270270e+000
2.425095e+003,-8.247446e+000
2.426060e+003,-5.585919e+000
2.427024e+003,-2.680969e+000
2.427988e+003,-3.367114e+000
2.428952e+003,-4.989795e+000
2.429917e+003,-4.841599e+000
2.430881e+003,-3.705087e+000
2.431845e+003,-2.782370e+000
2.432809e+003,-2.248892e+000
2.433773e+003,-2.499747e+000
2.434738e+003,-3.510782e+000
2.435702e+003,-3.849494e+000
2.436666e+003,-3.327384e+000
2.437630e+003,-2.760260e+000
2.438595e+003,-2.126385e+000
2.439559e+003,-1.674677e+000
2.440523e+003,-1.455380e+000
2.441487e+003,-9.046783e-001
2.442452e+003,1.592377e-001
2.443416e+003,6.095611e-001
2.444380e+003,-1.217896e-001
2.445344e+003,-1.240634e+000
2.446309e+003,-2.132376e+000
2.447273e+003,-2.129828e+000
2.448237e+003,-1.265259e-002
2.449201e+003,2.657895e+000
2.450166e+003,3.602417e+000
2.451130e+003,3.163269e+000
2.452094e+003,9.955932e-001
2.453058e+003,-1.551855e+000
2.454022e+003,-2.280804e+000
2.454987e+003,-1.927396e+000
2.455951e+003,-1.917273e+000
2.456915e+003,-2.373312e+000
2.457879e+003,-3.079746e+000
2.458844e+003,-3.863348e+000
2.459808e+003,-4.293170e+000
2.460772e+003,-4.294531e+000
2.461736e+003,-3.914896e+000
2.462700e+003,-2.689389e+000
2.463665e+003,-1.984512e+000
2.464629e+003,-1.902554e+000
2.465593e+003,-2.297775e+000
2.466557e+003,-3.505035e+000
2.467522e+003,-4.581927e+000
2.468486e+003,-5.222165e+000
2.469450e+003,-5.360013e+000
2.470414e+003,-4.891968e+000
2.471379e+003,-4.025796e+000
2.472343e+003,-2.973022e+000
2.473307e+003,-1.984995e+000
2.474271e+003,-1.567508e+000
2.475236e+003,-1.604654e+000
2.476200e+003,-1.758783e+000
2.477164e+003,-2.027228e+000
2.478128e+003,-2.606927e+000
2.479093e+003,-3.198419e+000
2.480057e+003,-2.771414e+000
2.481021e+003,-1.775815e+000
2.481985e+003,-1.613400e+000
2.482949e+003,-2.318048e+000
2.483914e+003,-3.097903e+000
2.484878e+003,-3.681784e+000
2.485842e+003,-3.926685e+000
2.486806e+003,-3.739404e+000
2.487771e+003,-3.400800e+000
2.488735e+003,-3.099338e+000
2.489699e+003,-2.510458e+000
2.490663e+003,-9.636536e-001
2.491627e+003,-4.627075e-002
2.492592e+003,-3.496429e-001
2.493556e+003,-1.301846e+000
2.494520e+003,-3.111633e+000
2.495484e+003,-4.569501e+000
2.496449e+003,-4.704047e+000
2.497413e+003,-3.922543e+000
2.498377e+003,-2.709421e+000
2.499341e+003,-1.262531e+000
2.500306e+003,4.641113e-002
2.501270e+003,1.057047e+000
2.502234e+003,4.655029e-001
2.503198e+003,-1.032284e+000
2.504163e+003,-4.701080e-001
2.505127e+003,1.267499e+000
2.506091e+003,7.693878e-001
2.507055e+003,-1.350522e+000
2.508020e+003,-1.942752e+000
2.508984e+003,-7.287842e-001
2.509948e+003,5.675476e-001
2.510912e+003,1.310492e+000
2.511876e+003,1.127066e+000
2.512841e+003,-5.192474e-001
2.513805e+003,-1.447238e+000
2.514769e+003,-1.534607e-001
2.515733e+003,6.677094e-001
2.516698e+003,8.469544e-002
2.517662e+003,-7.871246e-001
2.518626e+003,-1.995956e+000
2.519590e+003,-2.484702e+000
2.520554e+003,-1.367236e+000
2.521519e+003,-3.712860e-001
2.522483e+003,-1.166214e+000
2.523447e+003,-2.180447e+000
2.524411e+003,-9.634552e-001
2.525376e+003,1.294492e+000
2.526340e+003,1.379150e+000
2.527304e+003,8.665772e-002
2.528268e+003,3.061798e-001
2.529233e+003,1.199088e+000
2.530197e+003,1.921967e-001
2.531161e+003,-1.584546e+000
2.532125e+003,-9.760407e-001
2.533090e+003,1.149118e+000
2.534054e+003,1.809497e+000
2.535018e+003,9.299133e-001
2.535982e+003,4.389038e-001
2.536947e+003,7.598480e-001
2.537911e+003,9.619263e-001
2.538875e+003,7.451904e-001
2.539839e+003,6.138855e-001
2.540803e+003,5.474426e-001
2.541768e+003,7.614563e-001
2.542732e+003,1.572729e+000
2.543696e+003,1.812625e+000
2.544660e+003,1.059552e+000
2.545625e+003,3.480621e-001
2.546589e+003,1.322662e-001
2.547553e+003,3.739227e-001
2.548517e+003,1.063071e+000
2.549482e+003,1.378091e+000
2.550446e+003,1.617706e-001
2.551410e+003,-1.020084e+000
2.552374e+003,8.713623e-001
2.553339e+003,3.729709e+000
2.554303e+003,4.948013e+000
2.555267e+003,4.850513e+000
2.556231e+003,3.179968e+000
2.557196e+003,1.041916e+000
2.558160e+003,-5.305939e-001
2.559124e+003,-1.325754e+000
2.560088e+003,-8.508667e-001
2.561052e+003,4.377411e-001
2.562017e+003,9.529236e-001
2.562981e+003,6.062500e-001
2.563945e+003,3.418854e-001
2.564909e+003,1.903076e-002
2.565874e+003,7.271973e-001
2.566838e+003,2.751752e+000
2.567802e+003,3.624170e+000
2.568766e+003,3.143487e+000
2.569730e+003,2.041663e+000
2.570695e+003,5.527741e-001
2.571659e+003,-8.577789e-001
2.572623e+003,-1.908096e+000
2.573587e+003,-1.744370e+000
2.574552e+003,3.583374e-002
2.575516e+003,1.906143e+000
2.576480e+003,3.076416e+000
2.577444e+003,3.172723e+000
2.578409e+003,4.095184e-001
2.579373e+003,-1.496915e+000
2.580337e+003,7.951630e-001
2.581301e+003,2.937448e+000
2.582266e+003,1.524908e+000
2.583230e+003,3.154083e-001
2.584194e+003,2.751782e+000
2.585158e+003,5.087411e+000
2.586123e+003,3.382092e+000
2.587087e+003,-8.038025e-002
2.588051e+003,-1.613953e+000
2.589015e+003,-1.554697e+000
2.589979e+003,-5.909699e-001
2.590944e+003,9.084991e-001
2.591908e+003,1.655689e+000
2.592872e+003,1.689496e+000
2.593836e+003,7.068359e-001
2.594801e+003,-6.503571e-001
2.595765e+003,-1.035141e+000
2.596729e+003,-6.750824e-001
2.597693e+003,-5.856842e-001
2.598657e+003,-7.373505e-001
2.599622e+003,-6.437378e-002
2.600586e+003,1.563095e+000
2.601550e+003,1.848077e+000
2.602514e+003,-5.445648e-001
2.603479e+003,-1.257663e+000
2.604443e+003,6.067627e-001
2.605407e+003,1.358527e+000
2.606371e+003,5.316589e-001
2.607336e+003,-2.051361e-001
2.608300e+003,-4.880432e-001
2.609264e+003,-5.222321e-001
2.610228e+003,-4.220764e-001
2.611193e+003,-4.013702e-001
2.612157e+003,-5.577423e-001
2.613121e+003,-5.149689e-001
2.614085e+003,9.745178e-002
2.615050e+003,6.160461e-001
2.616014e+003,4.399444e-001
2.616978e+003,2.261352e-003
2.617942e+003,-5.120850e-001
2.618906e+003,-9.908081e-001
2.619871e+003,-1.090958e+000
2.620835e+003,-1.517599e+000
2.621799e+003,-3.638727e+000
2.622763e+003,-5.111505e+000
2.623728e+003,-3.483429e+000
2.624692e+003,-4.101074e-001
2.625656e+003,1.616013e+000
2.626620e+003,2.616650e+000
2.627584e+003,2.295254e+000
2.628549e+003,1.225088e+000
2.629513e+003,1.757816e+000
2.630477e+003,2.795178e+000
2.631441e+003,9.694397e-001
2.632406e+003,-1.659052e+000
2.633370e+003,6.763001e-002
2.634334e+003,3.829098e+000
2.635298e+003,3.570789e+000
2.636263e+003,1.681122e-001
2.637227e+003,-7.955597e-001
2.638191e+003,1.169394e+000
2.639155e+003,1.128708e+000
2.640120e+003,-1.616779e+000
2.641084e+003,-2.808475e+000
2.642048e+003,-2.314331e+000
2.643012e+003,-1.236706e+000
2.643977e+003,3.963959e-001
2.644941e+003,1.390207e+000
2.645905e+003,1.592456e+000
2.646869e+003,1.509616e+000
2.647833e+003,1.321893e+000
2.648798e+003,1.175162e+000
2.649762e+003,1.116177e+000
2.650726e+003,7.937378e-001
2.651690e+003,-1.114960e-001
2.652655e+003,-6.218780e-001
2.653619e+003,9.070130e-002
2.654583e+003,7.116607e-001
2.655547e+003,7.997162e-001
2.656511e+003,8.773559e-001
2.657476e+003,1.103256e+000
2.658440e+003,1.147809e+000
2.659404e+003,8.827759e-001
2.660368e+003,3.528809e-001
2.661333e+003,-4.320526e-001
2.662297e+003,-7.511017e-001
2.663261e+003,1.423859e-001
2.664225e+003,1.234955e+000
2.665190e+003,1.481995e+000
2.666154e+003,8.909668e-001
2.667118e+003,-1.852200e+000
2.668082e+003,-3.800388e+000
2.669047e+003,-9.731537e-001
2.670011e+003,2.425403e+000
2.670975e+003,2.345065e+000
2.671939e+003,8.673950e-001
2.672904e+003,1.525024e-001
2.673868e+003,2.089294e-001
2.674832e+003,1.260733e+000
2.675796e+003,2.503091e+000
2.676760e+003,1.673367e+000
2.677725e+003,-5.282562e-001
2.678689e+003,-1.276044e+000
2.679653e+003,-8.939606e-001
2.680617e+003,1.382172e-001
2.681582e+003,1.132254e+000
2.682546e+003,5.294617e-001
2.683510e+003,-8.663391e-001
2.684474e+003,-1.728815e+000
2.685438e+003,-1.781918e+000
2.686403e+003,-5.101105e-001
2.687367e+003,1.722253e+000
2.688331e+003,2.512531e+000
2.689295e+003,1.810583e+000
2.690260e+003,1.873401e+000
2.691224e+003,2.923138e+000
2.692188e+003,2.112088e+000
2.693152e+003,-4.512939e-001
2.694117e+003,-6.940399e-001
2.695081e+003,1.235037e+000
2.696045e+003,1.970050e+000
2.697009e+003,1.237234e+000
2.697974e+003,1.077444e+000
2.698938e+003,1.899289e+000
2.699902e+003,2.374936e+000
2.700866e+003,2.045047e+000
2.701831e+003,1.856943e+000
2.702795e+003,2.197964e+000
2.703759e+003,2.387216e+000
2.704723e+003,2.467169e+000
2.705688e+003,2.294965e+000
2.706652e+003,1.810275e+000
2.707616e+003,9.999512e-001
2.708580e+003,-9.980164e-002
2.709544e+003,-9.005127e-001
2.710509e+003,-1.205765e+000
2.711473e+003,-1.744632e+000
2.712437e+003,-2.926642e+000
2.713401e+003,-3.253790e+000
2.714365e+003,-1.220764e+000
2.715330e+003,5.839722e-001
2.716294e+003,1.003452e+000
2.717258e+003,6.463257e-001
2.718222e+003,-1.099579e+000
2.719187e+003,-2.357138e+000
2.720151e+003,-2.795828e+000
2.721115e+003,-1.741296e+000
2.722079e+003,1.394037e+000
2.723044e+003,3.731097e+000
2.724008e+003,3.093280e+000
2.724972e+003,1.320673e+000
2.725936e+003,5.022583e-002
2.726901e+003,-3.941681e-001
2.727865e+003,1.179944e+000
2.728829e+003,2.659851e+000
2.729793e+003,2.372589e+000
2.730758e+003,1.256717e+000
2.731722e+003,-1.456659e+000
2.732686e+003,-2.904813e+000
2.733650e+003,3.678589e-002
2.734615e+003,2.765326e+000
2.735579e+003,1.160294e+000
2.736543e+003,-1.895242e+000
2.737507e+003,-2.672848e+000
2.738471e+003,-1.715277e+000
2.739436e+003,6.495727e-001
2.740400e+003,3.320557e+000
2.741364e+003,4.709778e+000
2.742328e+003,4.989838e+000
2.743292e+003,3.563757e+000
2.744257e+003,1.960248e+000
2.745221e+003,2.153717e+000
2.746185e+003,2.791946e+000
2.747149e+003,1.736118e+000
2.748114e+003,2.280884e-001
2.749078e+003,1.583221e-001
2.750042e+003,1.078601e+000
2.751006e+003,1.936188e+000
2.751971e+003,2.537637e+000
2.752935e+003,2.054923e+000
2.753899e+003,9.386749e-001
2.754863e+003,-3.671112e-001
2.755828e+003,-1.092224e+000
2.756792e+003,5.914215e-001
2.757756e+003,3.090823e+000
2.758720e+003,3.712219e+000
2.759685e+003,3.161682e+000
2.760649e+003,3.867670e+000
2.761613e+003,5.108869e+000
2.762577e+003,4.177569e+000
2.763542e+003,1.518076e+000
2.764506e+003,1.047543e+000
2.765470e+003,2.166131e+000
2.766434e+003,1.228247e+000
2.767398e+003,-6.500580e-001
2.768363e+003,1.409790e-001
2.769327e+003,2.161328e+000
2.770291e+003,1.612134e+000
2.771255e+003,-5.426514e-001
2.772219e+003,-1.045163e+000
2.773184e+003,1.032013e-001
2.774148e+003,8.627289e-001
2.775112e+003,1.199139e+000
2.776076e+003,1.836258e+000
2.777041e+003,2.797769e+000
2.778005e+003,2.968295e+000
2.778969e+003,2.499545e+000
2.779933e+003,2.263226e+000
2.780898e+003,2.159842e+000
2.781862e+003,1.452228e+000
2.782826e+003,4.638763e-001
2.783790e+003,1.876099e-001
2.784755e+003,7.290985e-001
2.785719e+003,2.028427e+000
2.786683e+003,4.014227e+000
2.787647e+003,4.160724e+000
2.788612e+003,2.095001e+000
2.789576e+003,1.234515e+000
2.790540e+003,1.561389e+000
2.791504e+003,2.455618e+000
2.792469e+003,3.483356e+000
2.793433e+003,2.337286e+000
2.794397e+003,-2.328430e-001
2.795361e+003,-8.048370e-001
2.796325e+003,6.448700e-001
2.797290e+003,1.655237e+000
2.798254e+003,1.746420e+000
2.799218e+003,1.314719e+000
2.800182e+003,1.600769e-001
2.801146e+003,2.891541e-001
2.802111e+003,1.920093e+000
2.803075e+003,3.170087e+000
2.804039e+003,3.846033e+000
2.805003e+003,3.571997e+000
2.805968e+003,2.431140e+000
2.806932e+003,6.506988e-001
2.807896e+003,-1.068173e+000
2.808860e+003,-8.523895e-001
2.809825e+003,1.361804e+000
2.810789e+003,2.942181e+000
2.811753e+003,3.343945e+000
2.812717e+003,2.750250e+000
2.813682e+003,5.871857e-001
2.814646e+003,8.432159e-001
2.815610e+003,3.516290e+000
2.816574e+003,5.112067e+000
2.817539e+003,5.326752e+000
2.818503e+003,4.856555e+000
2.819467e+003,3.928101e+000
2.820431e+003,2.386417e+000
2.821396e+003,6.014832e-001
2.822360e+003,2.720520e-001
2.823324e+003,1.863187e+000
2.824288e+003,3.875354e+000
2.825252e+003,7.044549e+000
2.826217e+003,6.520526e+000
2.827181e+003,2.177289e+000
2.828145e+003,8.679718e-001
2.829109e+003,2.579126e+000
2.830073e+003,3.649756e+000
2.831038e+003,3.577106e+000
2.832002e+003,3.227203e+000
2.832966e+003,2.902332e+000
2.833930e+003,2.894711e+000
2.834895e+003,3.247491e+000
2.835859e+003,2.459253e+000
2.836823e+003,-1.764130e-001
2.837787e+003,-3.328552e-001
2.838752e+003,2.200855e+000
2.839716e+003,3.405548e+000
2.840680e+003,3.233539e+000
2.841644e+003,3.464362e+000
2.842609e+003,3.954901e+000
2.843573e+003,2.905133e+000
2.844537e+003,7.015350e-001
2.845501e+003,9.668884e-002
2.846466e+003,1.426617e+000
2.847430e+003,1.332251e+000
2.848394e+003,-7.708282e-001
2.849358e+003,-1.357059e+000
2.850323e+003,-3.063660e-001
2.851287e+003,1.966827e-001
2.852251e+003,2.088318e-001
2.853215e+003,8.568146e-001
2.854179e+003,2.031644e+000
2.855144e+003,3.206342e+000
2.856108e+003,3.969794e+000
2.857072e+003,3.353784e+000
2.858036e+003,1.546890e+000
2.859000e+003,7.917206e-001
2.859965e+003,1.230194e+000
2.860929e+003,1.210199e+000
2.861893e+003,6.712646e-001
2.862857e+003,7.277619e-001
2.863822e+003,1.249167e+000
2.864786e+003,8.280579e-001
2.865750e+003,1.406891e-001
2.866714e+003,1.964362e+000
2.867679e+003,5.048590e+000
2.868643e+003,5.641504e+000
2.869607e+003,3.763013e+000
2.870571e+003,1.458054e+000
2.871536e+003,-8.616669e-001
2.872500e+003,-3.054169e-001
2.873464e+003,2.884781e+000
2.874428e+003,3.400159e+000
2.875393e+003,2.195904e+000
2.876357e+003,2.802225e+000
2.877321e+003,4.301721e+000
2.878285e+003,4.253302e+000
2.879250e+003,2.978485e+000
2.880214e+003,1.163303e+000
2.881178e+003,-4.294983e-001
2.882142e+003,2.256775e-002
2.883106e+003,1.773129e+000
2.884071e+003,1.567746e+000
2.885035e+003,9.207153e-002
2.885999e+003,1.665399e+000
2.886963e+003,4.578278e+000
2.887927e+003,4.455347e+000
2.888892e+003,2.966519e+000
2.889856e+003,2.742074e+000
2.890820e+003,3.383350e+000
2.891784e+003,4.275690e+000
2.892749e+003,4.897382e+000
2.893713e+003,4.516089e+000
2.894677e+003,3.609711e+000
2.895641e+003,3.232477e+000
2.896606e+003,3.160211e+000
2.897570e+003,2.960800e+000
2.898534e+003,2.537100e+000
2.899498e+003,1.153754e+000
2.900463e+003,-1.924744e-002
2.901427e+003,8.762909e-001
2.902391e+003,2.239752e+000
2.903355e+003,2.507770e+000
2.904320e+003,1.789197e+000
2.905284e+003,-1.332214e-001
2.906248e+003,-1.717892e+000
2.907212e+003,-3.830933e-001
2.908177e+003,1.976172e+000
2.909141e+003,2.051498e+000
2.910105e+003,1.583432e+000
2.911069e+003,2.915674e+000
2.912033e+003,3.897070e+000
2.912998e+003,2.094595e+000
2.913962e+003,4.970734e-001
2.914926e+003,9.932678e-001
2.915890e+003,1.823419e+000
2.916854e+003,1.717896e+000
2.917819e+003,1.368524e+000
2.918783e+003,1.407480e+000
2.919747e+003,1.841879e+000
2.920711e+003,3.174911e+000
2.921676e+003,4.199170e+000
2.922640e+003,4.122613e+000
2.923604e+003,3.529614e+000
2.924568e+003,2.227457e+000
2.925533e+003,1.609402e+000
2.926497e+003,2.186527e+000
2.927461e+003,2.338873e+000
2.928425e+003,1.653354e+000
2.929390e+003,1.725912e+000
2.930354e+003,2.956610e+000
2.931318e+003,3.458667e+000
2.932282e+003,1.505002e+000
2.933247e+003,8.383179e-002
2.934211e+003,1.990137e+000
2.935175e+003,3.326645e+000
2.936139e+003,3.051953e+000
2.937104e+003,1.606244e+000
2.938068e+003,-5.666199e-001
2.939032e+003,-8.218933e-001
2.939996e+003,1.345016e+000
2.940960e+003,3.363037e+000
2.941925e+003,4.183435e+000
2.942889e+003,3.981757e+000
2.943853e+003,2.447259e+000
2.944817e+003,1.093680e+000
2.945781e+003,-1.295654e-001
2.946746e+003,-5.068970e-001
2.947710e+003,-8.853455e-002
2.948674e+003,6.463043e-001
2.949638e+003,1.313770e+000
2.950603e+003,3.839020e-001
2.951567e+003,-1.588364e+000
2.952531e+003,-1.554001e+000
2.953495e+003,7.762421e-001
2.954460e+003,2.278000e+000
2.955424e+003,2.852017e+000
2.956388e+003,1.647952e+000
2.957352e+003,-9.332245e-001
2.958317e+003,2.643127e-002
2.959281e+003,2.788013e+000
2.960245e+003,1.525595e+000
2.961209e+003,-1.505972e+000
2.962174e+003,-8.093323e-001
2.963138e+003,2.155038e+000
2.964102e+003,2.868845e+000
2.965066e+003,2.365842e+000
2.966031e+003,3.328516e+000
2.966995e+003,5.030371e+000
2.967959e+003,4.982727e+000
2.968923e+003,3.993073e+000
2.969887e+003,3.974695e+000
2.970852e+003,3.858154e+000
2.971816e+003,1.381186e+000
2.972780e+003,-8.443695e-001
2.973744e+003,5.926941e-001
2.974708e+003,2.577469e+000
2.975673e+003,2.500754e+000
2.976637e+003,1.786227e+000
2.977601e+003,2.060107e+000
2.978565e+003,2.830841e+000
2.979530e+003,4.480035e+000
2.980494e+003,4.909851e+000
2.981458e+003,5.495331e-001
2.982422e+003,-2.744217e+000
2.983387e+003,-1.353445e+000
2.984351e+003,6.254578e-001
2.985315e+003,2.034467e+000
2.986279e+003,1.802631e+000
2.987244e+003,-5.101898e-001
2.988208e+003,-1.801767e+000
2.989172e+003,-5.822754e-002
2.990136e+003,1.787683e+000
2.991101e+003,2.261752e+000
2.992065e+003,2.123181e+000
2.993029e+003,9.071075e-001
2.993993e+003,1.027768e+000
2.994958e+003,2.816006e+000
2.995922e+003,3.156574e+000
2.996886e+003,1.757080e+000
2.997850e+003,6.062927e-001
2.998814e+003,4.119751e-001
2.999779e+003,1.739871e+000
3.000743e+003,4.664172e+000
3.001707e+003,5.982678e+000
3.002671e+003,5.388928e+000
3.003635e+003,4.094037e+000
3.004600e+003,2.169095e+000
3.005564e+003,1.152310e+000
3.006528e+003,9.589752e-001
3.007492e+003,1.186746e+000
3.008457e+003,1.698358e+000
3.009421e+003,2.599185e+000
3.010385e+003,3.546036e+000
3.011349e+003,4.014096e+000
3.012314e+003,3.687320e+000
3.013278e+003,1.202127e+000
3.014242e+003,-2.115710e+000
3.015206e+003,-1.222849e+000
3.016171e+003,1.293115e+000
3.017135e+003,1.051834e+000
3.018099e+003,-9.180908e-002
3.019063e+003,-2.516754e-001
3.020028e+003,1.100433e-001
3.020992e+003,6.613312e-001
3.021956e+003,8.359039e-001
3.022920e+003,4.615784e-002
3.023885e+003,-6.224090e-001
3.024849e+003,2.022156e-001
3.025813e+003,1.135242e+000
3.026777e+003,1.071686e+000
3.027741e+003,3.342346e-001
3.028706e+003,-1.719092e+000
3.029670e+003,-2.949289e+000
3.030634e+003,-2.719830e+000
3.031598e+003,-2.408261e+000
3.032563e+003,-2.462970e+000
3.033527e+003,-1.671408e+000
3.034491e+003,3.539825e-001
3.035455e+003,1.683289e+000
3.036420e+003,1.358060e+000
3.037384e+003,1.088394e+000
3.038348e+003,1.332083e+000
3.039312e+003,8.548767e-001
3.040277e+003,-3.332611e-001
3.041241e+003,7.525635e-003
3.042205e+003,1.535239e+000
3.043169e+003,2.029733e+000
3.044134e+003,1.520947e+000
3.045098e+003,1.140128e+000
3.046062e+003,1.022583e+000
3.047026e+003,9.949005e-001
3.047990e+003,9.785064e-001
3.048955e+003,3.791199e-001
3.049919e+003,-6.956604e-001
3.050883e+003,-2.214185e+000
3.051847e+003,-3.440289e+000
3.052812e+003,-3.012527e+000
3.053776e+003,-1.619534e+000
3.054740e+003,8.346283e-001
3.055704e+003,2.331763e+000
3.056668e+003,8.719513e-001
3.057633e+003,-9.819428e-001
3.058597e+003,-3.836945e-001
3.059561e+003,8.020050e-001
3.060525e+003,2.298798e-001
3.061490e+003,-8.419067e-001
3.062454e+003,-2.158047e+000
3.063418e+003,-2.392621e+000
3.064382e+003,-4.342285e-001
3.065347e+003,6.286774e-001
3.066311e+003,-4.876099e-002
3.067275e+003,-3.239716e-001
3.068239e+003,5.170746e-001
3.069204e+003,6.681153e-001
3.070168e+003,-7.248780e-001
3.071132e+003,-2.057803e+000
3.072096e+003,-3.097757e+000
3.073061e+003,-2.731381e+000
3.074025e+003,-7.984467e-001
3.074989e+003,1.340723e+000
3.075953e+003,3.122629e+000
3.076917e+003,2.066745e+000
3.077882e+003,-8.056854e-001
3.078846e+003,-2.331854e+000
3.079810e+003,-2.404510e+000
3.080774e+003,-2.394818e+000
3.081739e+003,-2.323633e+000
3.082703e+003,-1.885901e+000
3.083667e+003,-1.240097e+000
3.084631e+003,-8.621277e-001
3.085595e+003,-5.732940e-001
3.086560e+003,2.147797e-001
3.087524e+003,7.682922e-001
3.088488e+003,2.491821e-001
3.089452e+003,-9.390198e-001
3.090417e+003,-2.797263e+000
3.091381e+003,-3.703271e+000
3.092345e+003,-2.344449e+000
3.093309e+003,-8.088104e-001
3.094274e+003,-9.901703e-001
3.095238e+003,-1.693979e+000
3.096202e+003,-2.983951e+000
3.097166e+003,-2.784854e+000
3.098131e+003,1.256500e-001
3.099095e+003,-1.331146e-001
3.100059e+003,-4.235888e+000
3.101023e+003,-5.756824e+000
3.101988e+003,-3.705524e+000
3.102952e+003,-2.003824e+000
3.103916e+003,-1.764236e+000
3.104880e+003,-1.740198e+000
3.105844e+003,-1.716730e+000
3.106809e+003,-1.450616e+000
3.107773e+003,-1.065182e+000
3.108737e+003,-2.634653e+000
3.109701e+003,-4.972669e+000
3.110666e+003,-4.996936e+000
3.111630e+003,-3.669186e+000
3.112594e+003,-2.335794e+000
3.113558e+003,-1.599341e+000
3.114522e+003,-2.088263e+000
3.115487e+003,-2.956714e+000
3.116451e+003,-2.948434e+000
3.117415e+003,-2.657761e+000
3.118379e+003,-3.213980e+000
3.119344e+003,-3.490616e+000
3.120308e+003,-1.787027e+000
3.121272e+003,-1.141721e+000
3.122236e+003,-3.025952e+000
3.123201e+003,-4.090994e+000
3.124165e+003,-3.293759e+000
3.125129e+003,-2.233362e+000
3.126093e+003,-1.633597e+000
3.127058e+003,-1.247092e+000
3.128022e+003,-9.816101e-001
3.128986e+003,-7.604736e-001
3.129950e+003,-5.148621e-001
3.130915e+003,-4.450226e-001
3.131879e+003,-5.650147e-001
3.132843e+003,-1.400858e+000
3.133807e+003,-2.538840e+000
3.134771e+003,-2.729773e+000
3.135736e+003,-2.241733e+000
3.136700e+003,-1.810147e+000
3.137664e+003,-1.549774e+000
3.138628e+003,-1.574982e+000
3.139593e+003,-1.799258e+000
3.140557e+003,-2.071372e+000
3.141521e+003,-2.322879e+000
3.142485e+003,-2.636716e+000
3.143449e+003,-2.585880e+000
3.144414e+003,-9.100983e-001
3.145378e+003,-4.878815e-001
3.146342e+003,-2.796274e+000
3.147306e+003,-4.388281e+000
3.148271e+003,-3.662543e+000
3.149235e+003,-2.283530e+000
3.150199e+003,-1.129373e+000
3.151163e+003,-7.479675e-001
3.152128e+003,-1.696787e+000
3.153092e+003,-2.634125e+000
3.154056e+003,-3.597235e+000
3.155020e+003,-3.529526e+000
3.155985e+003,-2.737137e+000
3.156949e+003,-2.860291e+000
3.157913e+003,-3.678036e+000
3.158877e+003,-4.435626e+000
3.159842e+003,-4.697736e+000
3.160806e+003,-3.640518e+000
3.161770e+003,-1.940811e+000
3.162734e+003,-1.333179e+000
3.163698e+003,-1.513937e+000
3.164663e+003,-2.485687e+000
3.165627e+003,-3.124976e+000
3.166591e+003,-1.547638e+000
3.167555e+003,-1.795074e-001
3.168520e+003,-3.855835e-001
3.169484e+003,-1.325485e+000
3.170448e+003,-2.592175e+000
3.171412e+003,-2.637763e+000
3.172376e+003,-5.639984e-001
3.173341e+003,5.093689e-001
3.174305e+003,-1.548084e+000
3.175269e+003,-3.245373e+000
3.176233e+003,-4.398599e+000
3.177198e+003,-3.884030e+000
3.178162e+003,-2.007001e+000
3.179126e+003,-7.436126e-001
3.180090e+003,-3.388214e-001
3.181055e+003,-8.989716e-001
3.182019e+003,-2.009369e+000
3.182983e+003,-2.688644e+000
3.183947e+003,-3.030438e+000
3.184912e+003,-3.428732e+000
3.185876e+003,-3.544626e+000
3.186840e+003,-1.950412e+000
3.187804e+003,-5.123016e-001
3.188769e+003,-1.573004e+000
3.189733e+003,-3.031265e+000
3.190697e+003,-4.005228e+000
3.191661e+003,-4.012198e+000
3.192625e+003,-2.856885e+000
3.193590e+003,-2.419156e+000
3.194554e+003,-3.618478e+000
3.195518e+003,-4.266470e+000
3.196482e+003,-3.022415e+000
3.197447e+003,-2.500680e+000
3.198411e+003,-3.109998e+000
3.199375e+003,-3.030563e+000
3.200339e+003,-2.330475e+000
3.201303e+003,-1.617056e+000
3.202268e+003,-1.043283e+000
3.203232e+003,-4.814484e-001
3.204196e+003,-4.744843e-001
3.205160e+003,-2.468710e+000
3.206125e+003,-4.574152e+000
3.207089e+003,-2.981781e+000
3.208053e+003,-3.748810e-001
3.209017e+003,-2.135248e+000
3.209982e+003,-4.110712e+000
3.210946e+003,-2.131848e+000
3.211910e+003,-4.115784e-001
3.212874e+003,-4.172363e-001
3.213839e+003,-1.350296e+000
3.214803e+003,-2.853192e+000
3.215767e+003,-4.264130e+000
3.216731e+003,-5.207349e+000
3.217696e+003,-5.032556e+000
3.218660e+003,-3.310516e+000
3.219624e+003,-2.095911e+000
3.220588e+003,-1.398309e+000
3.221552e+003,-6.197815e-002
3.222517e+003,1.168814e+000
3.223481e+003,-8.305603e-001
3.224445e+003,-3.942990e+000
3.225409e+003,-4.523682e+000
3.226374e+003,-3.232864e+000
3.227338e+003,-9.343780e-001
3.228302e+003,9.267548e-001
3.229266e+003,3.962219e-001
3.230230e+003,-5.875489e-001
3.231195e+003,4.652039e-001
3.232159e+003,1.223236e+000
3.233123e+003,2.187714e-001
3.234087e+003,-3.138245e-001
3.235052e+003,-3.843384e-002
3.236016e+003,-4.649200e-001
3.236980e+003,-1.651605e+000
3.237944e+003,-1.878687e+000
3.238909e+003,-9.225403e-001
3.239873e+003,-6.115631e-001
3.240837e+003,-9.448670e-001
3.241801e+003,-3.631500e-001
3.242766e+003,7.111419e-001
3.243730e+003,2.661408e-001
3.244694e+003,-6.485351e-001
3.245658e+003,-5.513489e-001
3.246623e+003,-9.675598e-002
3.247587e+003,2.598297e-001
3.248551e+003,1.537537e-001
3.249515e+003,-6.695709e-001
3.250479e+003,-1.297403e+000
3.251444e+003,-1.028818e+000
3.252408e+003,-6.407257e-001
3.253372e+003,-1.048096e-001
3.254336e+003,-8.890473e-001
3.255301e+003,-3.286465e+000
3.256265e+003,-2.150702e+000
3.257229e+003,1.619269e+000
3.258193e+003,2.240311e+000
3.259157e+003,2.472778e-001
3.260122e+003,-8.623413e-001
3.261086e+003,-8.845032e-001
3.262050e+003,-2.398163e-001
3.263014e+003,4.297272e-001
3.263979e+003,-1.065533e+000
3.264943e+003,-2.417798e+000
3.265907e+003,3.956360e-001
3.266871e+003,2.543164e+000
3.267836e+003,7.820801e-001
3.268800e+003,-5.641266e-001
3.269764e+003,-2.291595e-001
3.270728e+003,1.007596e+000
3.271693e+003,2.537732e+000
3.272657e+003,2.056888e+000
3.273621e+003,-1.391400e+000
3.274585e+003,-1.605707e+000
3.275550e+003,1.805872e+000
3.276514e+003,2.694095e+000
3.277478e+003,1.899564e+000
3.278442e+003,1.605197e+000
3.279406e+003,1.459912e+000
3.280371e+003,4.871551e-001
3.281335e+003,-4.776611e-001
3.282299e+003,-7.128784e-001
3.283263e+003,-3.610809e-001
3.284228e+003,4.883698e-001
3.285192e+003,1.404089e+000
3.286156e+003,2.176147e+000
3.287120e+003,2.607599e+000
3.288084e+003,2.548535e+000
3.289049e+003,2.669266e+000
3.290013e+003,2.958014e+000
3.290977e+003,2.479648e+000
3.291941e+003,1.496677e+000
3.292906e+003,1.283551e+000
3.293870e+003,1.776621e+000
3.294834e+003,2.029471e+000
3.295798e+003,2.148788e+000
3.296763e+003,2.319373e+000
3.297727e+003,2.657223e+000
3.298691e+003,3.802179e+000
3.299655e+003,4.664560e+000
3.300620e+003,3.928232e+000
3.301584e+003,3.457364e+000
3.302548e+003,3.766644e+000
3.303512e+003,4.526349e+000
3.304477e+003,5.485831e+000
3.305441e+003,5.573898e+000
3.306405e+003,4.369867e+000
3.307369e+003,4.025678e+000
3.308333e+003,4.678119e+000
3.309298e+003,5.448209e+000
3.310262e+003,6.093454e+000
3.311226e+003,5.356534e+000
3.312190e+003,4.428510e+000
3.313155e+003,5.542346e+000
3.314119e+003,6.585861e+000
3.315083e+003,5.753589e+000
3.316047e+003,5.035367e+000
3.317011e+003,6.155054e+000
3.317976e+003,6.619943e+000
3.318940e+003,3.505136e+000
3.319904e+003,2.054779e+000
3.320868e+003,3.462747e+000
3.321833e+003,4.313361e+000
3.322797e+003,4.497644e+000
3.323761e+003,5.104034e+000
3.324725e+003,5.984201e+000
3.325690e+003,6.286261e+000
3.326654e+003,6.260730e+000
3.327618e+003,6.638956e+000
3.328582e+003,7.180963e+000
3.329547e+003,7.545801e+000
3.330511e+003,7.653290e+000
3.331475e+003,7.049603e+000
3.332439e+003,6.696854e+000
3.333404e+003,6.965079e+000
3.334368e+003,7.883554e+000
3.335332e+003,9.306494e+000
3.336296e+003,8.988638e+000
3.337260e+003,6.807843e+000
3.338225e+003,5.758578e+000
3.339189e+003,6.450211e+000
3.340153e+003,7.240903e+000
3.341117e+003,7.926089e+000
3.342082e+003,6.606467e+000
3.343046e+003,5.057176e+000
3.344010e+003,6.825919e+000
3.344974e+003,8.795013e+000
3.345938e+003,8.420016e+000
3.346903e+003,7.829773e+000
3.347867e+003,8.025943e+000
3.348831e+003,8.169785e+000
3.349795e+003,7.800400e+000
3.350760e+003,7.838708e+000
3.351724e+003,8.853754e+000
3.352688e+003,9.232183e+000
3.353652e+003,9.046198e+000
3.354617e+003,8.582376e+000
3.355581e+003,8.190005e+000
3.356545e+003,8.713925e+000
3.357509e+003,9.569098e+000
3.358474e+003,1.009840e+001
3.359438e+003,9.992932e+000
3.360402e+003,8.828802e+000
3.361366e+003,8.323067e+000
3.362331e+003,1.078563e+001
3.363295e+003,1.255973e+001
3.364259e+003,1.209543e+001
3.365223e+003,1.126461e+001
3.366188e+003,1.031740e+001
3.367152e+003,1.000096e+001
3.368116e+003,1.018592e+001
3.369080e+003,1.010363e+001
3.370044e+003,1.005034e+001
3.371009e+003,1.102826e+001
3.371973e+003,1.235439e+001
3.372937e+003,1.272707e+001
3.373901e+003,1.255798e+001
3.374865e+003,1.196893e+001
3.375830e+003,1.161535e+001
3.376794e+003,1.172587e+001
3.377758e+003,1.249272e+001
3.378722e+003,1.371917e+001
3.379687e+003,1.259192e+001
3.380651e+003,9.478590e+000
3.381615e+003,1.022708e+001
3.382579e+003,1.460354e+001
3.383544e+003,1.535876e+001
3.384508e+003,1.370038e+001
3.385472e+003,1.353201e+001
3.386436e+003,1.415891e+001
3.387401e+003,1.554022e+001
3.388365e+003,1.588245e+001
3.389329e+003,1.423822e+001
3.390293e+003,1.265572e+001
3.391258e+003,1.201295e+001
3.392222e+003,1.233491e+001
3.393186e+003,1.363573e+001
3.394150e+003,1.410067e+001
3.395115e+003,1.346512e+001
3.396079e+003,1.500959e+001
3.397043e+003,1.766729e+001
3.398007e+003,1.804766e+001
3.398971e+003,1.741491e+001
3.399936e+003,1.732106e+001
3.400900e+003,1.761499e+001
3.401864e+003,1.822065e+001
3.402828e+003,1.818126e+001
3.403792e+003,1.681648e+001
3.404757e+003,1.602661e+001
3.405721e+003,1.693184e+001
3.406685e+003,1.847688e+001
3.407649e+003,2.054632e+001
3.408614e+003,2.156288e+001
3.409578e+003,2.163471e+001
3.410542e+003,2.103466e+001
3.411506e+003,2.001236e+001
3.412471e+003,1.859932e+001
3.413435e+003,1.764611e+001
3.414399e+003,1.800442e+001
3.415363e+003,1.898152e+001
3.416328e+003,2.031359e+001
3.417292e+003,2.095511e+001
3.418256e+003,2.026536e+001
3.419220e+003,1.995971e+001
3.420185e+003,2.014463e+001
3.421149e+003,2.057954e+001
3.422113e+003,2.109738e+001
3.423077e+003,2.111208e+001
3.424042e+003,2.142206e+001
3.425006e+003,2.369116e+001
3.425970e+003,2.599498e+001
3.426934e+003,2.503387e+001
