7.140112e+001,1.085757e+002
7.236536e+001,1.069866e+002
7.332959e+001,1.089353e+002
7.429382e+001,1.116903e+002
7.525806e+001,1.159668e+002
7.622229e+001,1.168631e+002
7.718652e+001,1.104482e+002
7.815076e+001,9.241727e+001
7.911499e+001,8.074281e+001
8.007922e+001,7.325538e+001
8.104346e+001,7.101863e+001
8.200769e+001,7.598851e+001
8.297192e+001,9.502715e+001
8.393616e+001,1.121341e+002
8.490039e+001,1.256123e+002
8.586462e+001,1.341652e+002
8.682886e+001,1.363568e+002
8.779310e+001,1.255201e+002
8.875733e+001,1.100720e+002
8.972157e+001,9.336674e+001
9.068580e+001,7.725970e+001
9.165003e+001,6.278741e+001
9.261427e+001,5.686142e+001
9.357850e+001,5.677827e+001
9.454273e+001,5.900749e+001
9.550697e+001,6.145088e+001
9.647120e+001,6.493216e+001
9.743543e+001,6.535204e+001
9.839967e+001,6.154191e+001
9.936390e+001,5.583592e+001
1.003281e+002,5.087588e+001
1.012924e+002,4.685945e+001
1.022566e+002,4.378837e+001
1.032208e+002,4.151531e+001
1.041851e+002,4.022636e+001
1.051493e+002,4.027452e+001
1.061135e+002,4.457975e+001
1.070778e+002,4.845835e+001
1.080420e+002,4.962981e+001
1.090062e+002,4.752094e+001
1.099705e+002,4.338511e+001
1.109347e+002,3.929554e+001
1.118989e+002,3.565482e+001
1.128632e+002,3.400595e+001
1.138274e+002,3.552137e+001
1.147916e+002,4.094684e+001
1.157559e+002,4.315718e+001
1.167201e+002,4.134822e+001
1.176843e+002,3.808590e+001
1.186486e+002,3.645464e+001
1.196128e+002,3.763505e+001
1.205770e+002,3.905445e+001
1.215413e+002,4.172041e+001
1.225055e+002,4.452155e+001
1.234697e+002,4.517186e+001
1.244340e+002,3.945382e+001
1.253982e+002,3.314223e+001
1.263624e+002,2.673809e+001
1.273267e+002,2.112520e+001
1.282909e+002,1.788771e+001
1.292551e+002,2.352062e+001
1.302194e+002,3.223960e+001
1.311836e+002,3.943068e+001
1.321478e+002,4.206824e+001
1.331121e+002,3.980983e+001
1.340763e+002,3.474139e+001
1.350405e+002,2.650488e+001
1.360048e+002,1.866383e+001
1.369690e+002,1.501443e+001
1.379332e+002,1.858009e+001
1.388975e+002,2.240847e+001
1.398617e+002,2.716152e+001
1.408259e+002,3.179750e+001
1.417902e+002,3.476637e+001
1.427544e+002,3.508258e+001
1.437186e+002,3.370574e+001
1.446829e+002,2.980922e+001
1.456471e+002,2.416721e+001
1.466113e+002,1.866607e+001
1.475756e+002,1.460778e+001
1.485398e+002,1.285250e+001
1.495040e+002,1.627832e+001
1.504683e+002,2.523990e+001
1.514325e+002,3.745370e+001
1.523967e+002,3.885410e+001
1.533610e+002,3.200657e+001
1.543252e+002,2.351594e+001
1.552894e+002,1.798886e+001
1.562537e+002,1.650982e+001
1.572179e+002,1.525945e+001
1.581821e+002,1.256557e+001
1.591464e+002,1.094545e+001
1.601106e+002,1.374948e+001
1.610748e+002,2.702203e+001
1.620391e+002,3.537642e+001
1.630033e+002,3.335308e+001
1.639676e+002,2.509329e+001
1.649318e+002,1.706467e+001
1.658960e+002,1.575283e+001
1.668603e+002,1.662903e+001
1.678245e+002,1.683157e+001
1.687887e+002,1.609912e+001
1.697530e+002,1.520888e+001
1.707172e+002,1.665839e+001
1.716814e+002,1.952755e+001
1.726457e+002,2.179261e+001
1.736099e+002,2.272843e+001
1.745741e+002,2.232023e+001
1.755384e+002,2.029523e+001
1.765026e+002,1.479149e+001
1.774668e+002,1.012009e+001
1.784311e+002,9.174322e+000
1.793953e+002,1.390126e+001
1.803595e+002,1.646988e+001
1.813238e+002,1.469506e+001
1.822880e+002,1.142722e+001
1.832522e+002,8.893585e+000
1.842165e+002,8.743414e+000
1.851807e+002,8.830951e+000
1.861449e+002,7.194812e+000
1.871092e+002,4.717090e+000
1.880734e+002,2.459241e+000
1.890376e+002,1.766882e+000
1.900019e+002,2.710004e+000
1.909661e+002,5.153314e+000
1.919303e+002,9.032959e+000
1.928946e+002,1.363525e+001
1.938588e+002,1.651018e+001
1.948230e+002,1.678034e+001
1.957873e+002,1.718854e+001
1.967515e+002,1.732797e+001
1.977157e+002,1.734336e+001
1.986800e+002,2.063074e+001
1.996442e+002,2.837792e+001
2.006084e+002,3.800716e+001
2.015727e+002,5.181051e+001
2.025369e+002,7.016451e+001
2.035011e+002,8.244052e+001
2.044654e+002,7.816408e+001
2.054296e+002,6.783601e+001
2.063938e+002,5.600196e+001
2.073581e+002,4.581940e+001
2.083223e+002,3.839086e+001
2.092865e+002,3.533599e+001
2.102508e+002,3.580988e+001
2.112150e+002,3.970839e+001
2.121792e+002,4.707699e+001
2.131435e+002,5.941795e+001
2.141077e+002,6.533933e+001
2.150719e+002,6.261807e+001
2.160362e+002,5.575658e+001
2.170004e+002,5.117085e+001
2.179646e+002,4.910458e+001
2.189289e+002,4.988552e+001
2.198931e+002,5.339701e+001
2.208573e+002,5.945119e+001
2.218216e+002,6.803255e+001
2.227858e+002,8.301358e+001
2.237500e+002,9.656709e+001
2.247143e+002,1.082203e+002
2.256785e+002,1.161997e+002
2.266427e+002,1.176090e+002
2.276070e+002,1.013630e+002
2.285712e+002,7.656570e+001
2.295354e+002,5.429283e+001
2.304997e+002,3.790736e+001
2.314639e+002,2.697409e+001
2.324281e+002,1.974434e+001
2.333924e+002,1.659478e+001
2.343566e+002,1.441800e+001
2.353208e+002,1.220604e+001
2.362851e+002,9.903631e+000
2.372493e+002,7.873614e+000
2.382135e+002,5.997217e+000
2.391778e+002,4.357086e+000
2.401420e+002,3.098108e+000
2.411062e+002,2.333069e+000
2.420705e+002,1.518567e+000
2.430347e+002,-3.028565e-002
2.439989e+002,-1.636304e+000
2.449632e+002,-2.642023e+000
2.459274e+002,-2.497217e+000
2.468916e+002,-1.842474e+000
2.478559e+002,-2.234174e+000
2.488201e+002,-3.328729e+000
2.497843e+002,-4.513434e+000
2.507486e+002,-5.071332e+000
2.517128e+002,-4.770959e+000
2.526770e+002,-4.369555e+000
2.536413e+002,-4.350110e+000
2.546055e+002,-4.112311e+000
2.555697e+002,-2.544824e+000
2.565340e+002,2.410760e+000
2.574982e+002,5.846582e+000
2.584625e+002,6.950592e+000
2.594267e+002,6.575330e+000
2.603909e+002,6.187927e+000
2.613552e+002,6.759442e+000
2.623194e+002,7.003686e+000
2.632836e+002,5.994391e+000
2.642479e+002,4.159595e+000
2.652121e+002,2.545581e+000
2.661763e+002,3.243945e+000
2.671406e+002,4.863464e+000
2.681048e+002,5.095056e+000
2.690690e+002,3.569934e+000
2.700333e+002,8.666992e-001
2.709975e+002,-6.075073e-001
2.719617e+002,-5.652100e-001
2.729260e+002,-2.516418e-001
2.738902e+002,2.434448e-001
2.748544e+002,9.102600e-001
2.758187e+002,1.258392e+000
2.767829e+002,9.449463e-001
2.777471e+002,5.214722e-001
2.787114e+002,3.019653e-001
2.796756e+002,3.487000e-001
2.806398e+002,1.331482e-001
2.816041e+002,-1.704266e+000
2.825683e+002,-3.378839e+000
2.835325e+002,-3.404993e+000
2.844968e+002,-1.338684e+000
2.854610e+002,1.285742e+000
2.864252e+002,-6.744995e-002
2.873895e+002,-3.452655e+000
2.883537e+002,-5.915820e+000
2.893179e+002,-5.566394e+000
2.902822e+002,-2.151141e+000
2.912464e+002,-2.934875e-001
2.922106e+002,2.194214e-002
2.931749e+002,-4.514404e-001
2.941391e+002,-1.577234e+000
2.951033e+002,-3.971234e+000
2.960676e+002,-5.136560e+000
2.970318e+002,-4.120111e+000
2.979960e+002,-2.531134e+000
2.989603e+002,-1.581201e+000
2.999245e+002,-2.008063e+000
3.008887e+002,-2.327765e+000
3.018530e+002,-1.176245e+000
3.028172e+002,4.898743e-001
3.037814e+002,1.766333e+000
3.047457e+002,1.885352e+000
3.057099e+002,1.265717e+000
3.066741e+002,1.588477e+000
3.076384e+002,2.531281e+000
3.086026e+002,2.842896e+000
3.095668e+002,1.032721e+000
3.105311e+002,-4.128973e+000
3.114953e+002,-6.387305e+000
3.124595e+002,-3.824255e+000
3.134238e+002,9.313965e-002
3.143880e+002,1.032501e+000
3.153522e+002,-4.008924e+000
3.163165e+002,-7.137598e+000
3.172807e+002,-6.245868e+000
3.182449e+002,-3.239868e+000
3.192092e+002,-2.049255e-001
3.201734e+002,1.658765e+000
3.211376e+002,2.740027e+000
3.221019e+002,3.408295e+000
3.230661e+002,3.801795e+000
3.240303e+002,4.110583e+000
3.249946e+002,4.588355e+000
3.259588e+002,5.000482e+000
3.269230e+002,4.385468e+000
3.278873e+002,2.679327e+000
3.288515e+002,8.433899e-001
3.298157e+002,5.989258e-001
3.307800e+002,3.396283e+000
3.317442e+002,5.745935e+000
3.327084e+002,7.234820e+000
3.336727e+002,8.290619e+000
3.346369e+002,9.826367e+000
3.356011e+002,1.323882e+001
3.365654e+002,1.534728e+001
3.375296e+002,1.457356e+001
3.384938e+002,1.226968e+001
3.394581e+002,1.046390e+001
3.404223e+002,1.082671e+001
3.413865e+002,1.255960e+001
3.423508e+002,1.456964e+001
3.433150e+002,1.705352e+001
3.442792e+002,2.059991e+001
3.452435e+002,2.632521e+001
3.462077e+002,3.429932e+001
3.471719e+002,4.090749e+001
3.481362e+002,4.499105e+001
3.491004e+002,4.904764e+001
3.500646e+002,5.866952e+001
3.510289e+002,7.441270e+001
3.519931e+002,9.755749e+001
3.529573e+002,1.297629e+002
3.539216e+002,1.688015e+002
3.548858e+002,2.128139e+002
3.558500e+002,2.762560e+002
3.568143e+002,3.216325e+002
3.577785e+002,3.361987e+002
3.587427e+002,3.246802e+002
3.597070e+002,2.950930e+002
3.606712e+002,2.480114e+002
3.616354e+002,1.952140e+002
3.625997e+002,1.507433e+002
3.635639e+002,1.156006e+002
3.645281e+002,8.897459e+001
3.654924e+002,6.926382e+001
3.664566e+002,5.850279e+001
3.674208e+002,4.893204e+001
3.683851e+002,4.037449e+001
3.693493e+002,3.302006e+001
3.703135e+002,2.745952e+001
3.712778e+002,2.585275e+001
3.722420e+002,2.355700e+001
3.732062e+002,1.902314e+001
3.741705e+002,1.387357e+001
3.751347e+002,1.078740e+001
3.760989e+002,1.241550e+001
3.770632e+002,1.470405e+001
3.780274e+002,1.558313e+001
3.789916e+002,1.533452e+001
3.799559e+002,1.464445e+001
3.809201e+002,1.425385e+001
3.818844e+002,1.409837e+001
3.828486e+002,1.377548e+001
3.838128e+002,1.331124e+001
3.847771e+002,1.286959e+001
3.857413e+002,1.268693e+001
3.867055e+002,1.285291e+001
3.876698e+002,1.330511e+001
3.886340e+002,1.354451e+001
3.895982e+002,1.413174e+001
3.905625e+002,1.614839e+001
3.915267e+002,2.144429e+001
3.924909e+002,2.497876e+001
3.934552e+002,2.566893e+001
3.944194e+002,2.456860e+001
3.953836e+002,2.259723e+001
3.963479e+002,1.990676e+001
3.973121e+002,1.742249e+001
3.982763e+002,1.584263e+001
3.992406e+002,1.501974e+001
4.002048e+002,1.479475e+001
4.011690e+002,1.501274e+001
4.021333e+002,1.560717e+001
4.030975e+002,1.603321e+001
4.040617e+002,1.628980e+001
4.050260e+002,1.689828e+001
4.059902e+002,1.832836e+001
4.069544e+002,2.056468e+001
4.079187e+002,2.394788e+001
4.088829e+002,2.853857e+001
4.098471e+002,3.381569e+001
4.108114e+002,3.912096e+001
4.117756e+002,4.392636e+001
4.127398e+002,5.070470e+001
4.137041e+002,6.394274e+001
4.146683e+002,7.684196e+001
4.156325e+002,8.445000e+001
4.165968e+002,8.415804e+001
4.175610e+002,7.845736e+001
4.185252e+002,6.953858e+001
4.194895e+002,5.950877e+001
4.204537e+002,5.089435e+001
4.214179e+002,4.532073e+001
4.223822e+002,4.270595e+001
4.233464e+002,4.196022e+001
4.243106e+002,4.275709e+001
4.252749e+002,4.445283e+001
4.262391e+002,4.619472e+001
4.272033e+002,4.777376e+001
4.281676e+002,5.315858e+001
4.291318e+002,6.344025e+001
4.300960e+002,7.629717e+001
4.310603e+002,9.096241e+001
4.320245e+002,1.072067e+002
4.329887e+002,1.257396e+002
4.339530e+002,1.476208e+002
4.349172e+002,1.719871e+002
4.358814e+002,2.029019e+002
4.368457e+002,2.383106e+002
4.378099e+002,2.708421e+002
4.387741e+002,2.848093e+002
4.397384e+002,2.828816e+002
4.407026e+002,2.722088e+002
4.416668e+002,2.533750e+002
4.426311e+002,2.287296e+002
4.435953e+002,2.061833e+002
4.445595e+002,1.845196e+002
4.455238e+002,1.673939e+002
4.464880e+002,1.570376e+002
4.474522e+002,1.511775e+002
4.484165e+002,1.450896e+002
4.493807e+002,1.374599e+002
4.503449e+002,1.300730e+002
4.513092e+002,1.240699e+002
4.522734e+002,1.183110e+002
4.532376e+002,1.110186e+002
4.542019e+002,1.004184e+002
4.551661e+002,8.834367e+001
4.561303e+002,7.673462e+001
4.570946e+002,6.602190e+001
4.580588e+002,5.695150e+001
4.590230e+002,5.033053e+001
4.599873e+002,4.651939e+001
4.609515e+002,4.419376e+001
4.619157e+002,4.311153e+001
4.628800e+002,4.329579e+001
4.638442e+002,4.511306e+001
4.648084e+002,4.943213e+001
4.657727e+002,5.272508e+001
4.667369e+002,5.375390e+001
4.677011e+002,5.502184e+001
4.686654e+002,5.862110e+001
4.696296e+002,6.525081e+001
4.705938e+002,7.093257e+001
4.715581e+002,7.342547e+001
4.725223e+002,7.335417e+001
4.734865e+002,7.033723e+001
4.744508e+002,6.457204e+001
4.754150e+002,5.710438e+001
4.763792e+002,4.956363e+001
4.773435e+002,4.226442e+001
4.783077e+002,3.674016e+001
4.792719e+002,3.366413e+001
4.802362e+002,3.264486e+001
4.812004e+002,3.140908e+001
4.821646e+002,2.952482e+001
4.831289e+002,2.781963e+001
4.840931e+002,2.649593e+001
4.850573e+002,2.531775e+001
4.860216e+002,2.365519e+001
4.869858e+002,2.065582e+001
4.879500e+002,1.848365e+001
4.889143e+002,1.831499e+001
4.898785e+002,1.924426e+001
4.908427e+002,1.989362e+001
4.918070e+002,1.914257e+001
4.927712e+002,1.726194e+001
4.937354e+002,1.451470e+001
4.946997e+002,1.142335e+001
4.956639e+002,9.168829e+000
4.966281e+002,8.951520e+000
4.975924e+002,1.100582e+001
4.985566e+002,1.374658e+001
4.995208e+002,1.728112e+001
5.004851e+002,2.103738e+001
5.014493e+002,2.471907e+001
5.024135e+002,2.838228e+001
5.033778e+002,3.174564e+001
5.043420e+002,3.474767e+001
5.053063e+002,3.778579e+001
5.062705e+002,4.173373e+001
5.072347e+002,4.639248e+001
5.081990e+002,4.920790e+001
5.091632e+002,4.603498e+001
5.101274e+002,4.088508e+001
5.110917e+002,3.537711e+001
5.120559e+002,3.024691e+001
5.130201e+002,2.579097e+001
5.139844e+002,2.280140e+001
5.149486e+002,2.104689e+001
5.159128e+002,1.820000e+001
5.168771e+002,1.375189e+001
5.178413e+002,8.519079e+000
5.188055e+002,4.187366e+000
5.197698e+002,1.963074e-001
5.207340e+002,-1.585059e+000
5.216982e+002,8.908386e-001
5.226625e+002,4.387702e+000
5.236267e+002,4.938153e+000
5.245909e+002,2.322083e-001
5.255552e+002,-4.151147e+000
5.265194e+002,-5.563733e+000
5.274836e+002,-5.268866e+000
5.284479e+002,-3.758978e+000
5.294121e+002,-1.408813e+000
5.303763e+002,7.741760e-001
5.313406e+002,-6.166260e-001
5.323048e+002,-3.998126e+000
5.332690e+002,-6.232489e+000
5.342333e+002,-5.736664e+000
5.351975e+002,-2.941858e+000
5.361617e+002,-1.437671e+000
5.371260e+002,-2.296368e+000
5.380902e+002,-2.683563e+000
5.390544e+002,-1.664423e+000
5.400187e+002,1.815918e-001
5.409829e+002,1.026813e+000
5.419471e+002,-3.454224e-001
5.429114e+002,-1.678876e+000
5.438756e+002,-2.180389e+000
5.448398e+002,-2.314380e+000
5.458041e+002,-3.044141e+000
5.467683e+002,-5.386499e+000
5.477325e+002,-7.576355e+000
5.486968e+002,-6.964111e+000
5.496610e+002,-4.495087e+000
5.506252e+002,-1.780170e+000
5.515895e+002,-1.414307e-001
5.525537e+002,4.018188e-001
5.535179e+002,2.660522e-002
5.544822e+002,-1.245660e+000
5.554464e+002,-2.798938e+000
5.564106e+002,-4.830920e+000
5.573749e+002,-7.391309e+000
5.583391e+002,-8.476410e+000
5.593033e+002,-5.737823e+000
5.602676e+002,-3.607965e+000
5.612318e+002,-3.819019e+000
5.621960e+002,-5.781079e+000
5.631603e+002,-7.309082e+000
5.641245e+002,-6.333478e+000
5.650887e+002,-4.857770e+000
5.660530e+002,-4.598498e+000
5.670172e+002,-5.297150e+000
5.679814e+002,-6.180743e+000
5.689457e+002,-6.423041e+000
5.699099e+002,-6.067645e+000
5.708741e+002,-5.879224e+000
5.718384e+002,-5.805182e+000
5.728026e+002,-5.864697e+000
5.737668e+002,-6.151752e+000
5.747311e+002,-6.771149e+000
5.756953e+002,-7.205811e+000
5.766595e+002,-7.473016e+000
5.776238e+002,-7.559198e+000
5.785880e+002,-7.348291e+000
5.795522e+002,-6.889947e+000
5.805165e+002,-6.493011e+000
5.814807e+002,-6.356409e+000
5.824449e+002,-6.318677e+000
5.834092e+002,-6.283508e+000
5.843734e+002,-6.307672e+000
5.853376e+002,-6.568988e+000
5.863019e+002,-7.334363e+000
5.872661e+002,-8.403687e+000
5.882303e+002,-8.880572e+000
5.891946e+002,-8.761914e+000
5.901588e+002,-8.104566e+000
5.911230e+002,-6.767529e+000
5.920873e+002,-4.213355e+000
5.930515e+002,-3.337128e+000
5.940157e+002,-4.948596e+000
5.949800e+002,-6.775208e+000
5.959442e+002,-7.829645e+000
5.969084e+002,-8.035260e+000
5.978727e+002,-7.868652e+000
5.988369e+002,-7.020819e+000
5.998011e+002,-6.283185e+000
6.007654e+002,-6.036499e+000
6.017296e+002,-6.241791e+000
6.026938e+002,-6.726202e+000
6.036581e+002,-7.500232e+000
6.046223e+002,-8.115973e+000
6.055865e+002,-7.114154e+000
6.065508e+002,-4.625647e+000
6.075150e+002,-2.432800e+000
6.084792e+002,-2.625659e+000
6.094435e+002,-6.071924e+000
6.104077e+002,-7.281775e+000
6.113719e+002,-4.907104e+000
6.123362e+002,-2.524530e+000
6.133004e+002,-2.436725e+000
6.142646e+002,-4.657227e+000
6.152289e+002,-5.692603e+000
6.161931e+002,-1.986108e+000
6.171573e+002,1.268030e+000
6.181216e+002,1.544000e+000
6.190858e+002,-3.201172e-001
6.200500e+002,-1.654517e+000
6.210143e+002,2.582336e-001
6.219785e+002,4.026245e+000
6.229427e+002,6.593122e+000
6.239070e+002,8.048401e+000
6.248712e+002,8.906824e+000
6.258354e+002,9.636236e+000
6.267997e+002,1.019445e+001
6.277639e+002,1.205477e+001
6.287281e+002,1.685378e+001
6.296924e+002,2.047035e+001
6.306566e+002,2.068001e+001
6.316208e+002,1.775961e+001
6.325851e+002,1.488011e+001
6.335493e+002,1.239933e+001
6.345135e+002,1.085138e+001
6.354778e+002,1.092673e+001
6.364420e+002,1.198472e+001
6.374063e+002,1.299816e+001
6.383705e+002,1.335409e+001
6.393347e+002,1.277454e+001
6.402990e+002,1.059553e+001
6.412632e+002,7.493915e+000
6.422274e+002,5.054303e+000
6.431917e+002,4.474267e+000
6.441559e+002,5.631201e+000
6.451201e+002,5.900434e+000
6.460844e+002,4.729437e+000
6.470486e+002,3.890234e+000
6.480128e+002,4.378949e+000
6.489771e+002,5.762464e+000
6.499413e+002,6.112854e+000
6.509055e+002,4.182983e+000
6.518698e+002,2.234357e+000
6.528340e+002,6.029785e-001
6.537982e+002,-5.662781e-001
6.547625e+002,-1.051263e+000
6.557267e+002,-6.395141e-001
6.566909e+002,-6.818237e-002
6.576552e+002,-7.496582e-001
6.586194e+002,-1.961475e+000
6.595836e+002,-2.573706e+000
6.605479e+002,-2.008435e+000
6.615121e+002,-4.697022e-001
6.624763e+002,1.100446e+000
6.634406e+002,2.882996e+000
6.644048e+002,4.179144e+000
6.653690e+002,4.541247e+000
6.663333e+002,4.337939e+000
6.672975e+002,4.491083e+000
6.682617e+002,5.883057e+000
6.692260e+002,6.023187e+000
6.701902e+002,3.033179e+000
6.711544e+002,-2.852661e-001
6.721187e+002,-1.308411e+000
6.730829e+002,7.168579e-001
6.740471e+002,3.242401e+000
6.750114e+002,2.189941e+000
6.759756e+002,-1.530762e-002
6.769398e+002,-9.992371e-001
6.779041e+002,-2.543457e-001
6.788683e+002,1.537860e+000
6.798325e+002,3.198138e+000
6.807968e+002,4.820465e+000
6.817610e+002,5.555102e+000
6.827252e+002,4.893939e+000
6.836895e+002,3.826355e+000
6.846537e+002,3.050061e+000
6.856179e+002,2.494293e+000
6.865822e+002,2.574457e+000
6.875464e+002,4.270300e+000
6.885106e+002,5.743866e+000
6.894749e+002,5.934204e+000
6.904391e+002,5.059790e+000
6.914034e+002,4.223663e+000
6.923676e+002,4.263544e+000
6.933318e+002,5.213611e+000
6.942961e+002,7.522467e+000
6.952603e+002,1.066973e+001
6.962245e+002,1.296511e+001
6.971888e+002,1.279503e+001
6.981530e+002,1.006520e+001
6.991172e+002,9.298358e+000
7.000815e+002,1.109359e+001
7.010457e+002,1.301574e+001
7.020099e+002,1.431943e+001
7.029742e+002,1.513796e+001
7.039384e+002,1.594757e+001
7.049026e+002,1.679880e+001
7.058669e+002,1.757626e+001
7.068311e+002,1.800110e+001
7.077953e+002,1.840467e+001
7.087596e+002,1.947430e+001
7.097238e+002,2.167840e+001
7.106880e+002,2.375066e+001
7.116523e+002,2.297831e+001
7.126165e+002,2.078745e+001
7.135807e+002,1.928210e+001
7.145450e+002,1.928488e+001
7.155092e+002,2.021288e+001
7.164734e+002,2.041044e+001
7.174377e+002,1.939878e+001
7.184019e+002,1.855897e+001
7.193661e+002,1.789813e+001
7.203304e+002,1.730688e+001
7.212946e+002,1.681224e+001
7.222589e+002,1.657163e+001
7.232231e+002,1.589014e+001
7.241873e+002,1.386536e+001
7.251516e+002,1.194725e+001
7.261158e+002,1.105135e+001
7.270800e+002,1.107508e+001
7.280443e+002,1.106522e+001
7.290085e+002,9.893872e+000
7.299727e+002,8.351099e+000
7.309370e+002,8.175898e+000
7.319012e+002,9.200830e+000
7.328654e+002,1.028627e+001
7.338297e+002,1.040543e+001
7.347939e+002,9.514600e+000
7.357581e+002,8.336914e+000
7.367224e+002,5.947669e+000
7.376866e+002,4.447669e+000
7.386508e+002,4.730927e+000
7.396151e+002,6.323907e+000
7.405793e+002,7.994794e+000
7.415435e+002,9.765991e+000
7.425078e+002,1.100560e+001
7.434720e+002,1.108736e+001
7.444362e+002,1.070265e+001
7.454005e+002,1.048080e+001
7.463647e+002,1.074691e+001
7.473289e+002,1.145877e+001
7.482932e+002,1.309446e+001
7.492574e+002,1.514654e+001
7.502216e+002,1.601114e+001
7.511859e+002,1.521355e+001
7.521501e+002,1.348369e+001
7.531143e+002,1.216432e+001
7.540786e+002,1.143297e+001
7.550428e+002,1.091206e+001
7.560070e+002,1.053976e+001
7.569713e+002,1.035634e+001
7.579355e+002,1.039963e+001
7.588997e+002,1.064830e+001
7.598640e+002,1.099186e+001
7.608282e+002,1.138014e+001
7.617924e+002,1.194714e+001
7.627567e+002,1.296541e+001
7.637209e+002,1.417505e+001
7.646851e+002,1.497457e+001
7.656494e+002,1.484799e+001
7.666136e+002,1.427761e+001
7.675778e+002,1.569851e+001
7.685421e+002,1.879930e+001
7.695063e+002,2.099173e+001
7.704705e+002,2.086506e+001
7.714348e+002,1.903880e+001
7.723990e+002,1.799298e+001
7.733632e+002,1.818850e+001
7.743275e+002,1.849320e+001
7.752917e+002,1.900562e+001
7.762559e+002,1.951868e+001
7.772202e+002,1.980179e+001
7.781844e+002,1.978608e+001
7.791486e+002,1.974881e+001
7.801129e+002,1.957376e+001
7.810771e+002,1.970945e+001
7.820413e+002,2.075651e+001
7.830056e+002,2.259558e+001
7.839698e+002,2.460148e+001
7.849340e+002,2.605194e+001
7.858983e+002,2.695168e+001
7.868625e+002,2.812845e+001
7.878267e+002,2.977985e+001
7.887910e+002,3.096213e+001
7.897552e+002,3.095896e+001
7.907194e+002,2.995513e+001
7.916837e+002,2.927472e+001
7.926479e+002,2.892397e+001
7.936121e+002,2.902874e+001
7.945764e+002,2.988055e+001
7.955406e+002,3.099785e+001
7.965048e+002,3.175988e+001
7.974691e+002,3.196257e+001
7.984333e+002,3.247726e+001
7.993975e+002,3.468446e+001
8.003618e+002,3.763140e+001
8.013260e+002,4.056550e+001
8.022902e+002,4.327624e+001
8.032545e+002,4.568660e+001
8.042187e+002,4.769546e+001
8.051829e+002,4.919613e+001
8.061472e+002,5.116593e+001
8.071114e+002,5.389884e+001
8.080756e+002,5.655198e+001
8.090399e+002,5.819072e+001
8.100041e+002,5.918041e+001
8.109683e+002,6.189586e+001
8.119326e+002,6.812638e+001
8.128968e+002,7.476221e+001
8.138610e+002,8.095390e+001
8.148253e+002,8.672115e+001
8.157895e+002,9.175811e+001
8.167537e+002,9.603941e+001
8.177180e+002,1.005923e+002
8.186822e+002,1.081821e+002
8.196464e+002,1.175342e+002
8.206107e+002,1.261728e+002
8.215749e+002,1.335662e+002
8.225391e+002,1.392184e+002
8.235034e+002,1.422964e+002
8.244676e+002,1.423179e+002
8.254318e+002,1.407166e+002
8.263961e+002,1.374714e+002
8.273603e+002,1.335536e+002
8.283245e+002,1.291871e+002
8.292888e+002,1.243698e+002
8.302530e+002,1.191126e+002
8.312172e+002,1.133694e+002
8.321815e+002,1.072549e+002
8.331457e+002,1.003697e+002
8.341099e+002,9.360220e+001
8.350742e+002,8.788612e+001
8.360384e+002,8.373349e+001
8.370026e+002,8.107109e+001
8.379669e+002,8.017133e+001
8.389311e+002,8.108267e+001
8.398953e+002,8.005148e+001
8.408596e+002,7.603429e+001
8.418238e+002,7.087532e+001
8.427880e+002,6.653039e+001
8.437523e+002,6.296836e+001
8.447165e+002,6.053407e+001
8.456807e+002,6.035106e+001
8.466450e+002,6.010337e+001
8.476092e+002,5.921433e+001
8.485734e+002,5.751610e+001
8.495377e+002,5.471777e+001
8.505019e+002,5.036331e+001
8.514661e+002,4.612001e+001
8.524304e+002,4.426954e+001
8.533946e+002,4.393824e+001
8.543588e+002,4.417999e+001
8.553231e+002,4.456775e+001
8.562873e+002,4.483940e+001
8.572515e+002,4.439959e+001
8.582158e+002,4.288994e+001
8.591800e+002,4.169827e+001
8.601442e+002,4.027894e+001
8.611085e+002,3.953781e+001
8.620727e+002,4.078143e+001
8.630369e+002,4.381467e+001
8.640012e+002,4.559685e+001
8.649654e+002,4.410336e+001
8.659296e+002,4.216579e+001
8.668939e+002,4.031961e+001
8.678581e+002,3.910223e+001
8.688223e+002,3.952800e+001
8.697866e+002,4.195477e+001
8.707508e+002,4.483332e+001
8.717150e+002,4.445976e+001
8.726793e+002,4.159507e+001
8.736435e+002,4.001278e+001
8.746077e+002,4.059083e+001
8.755720e+002,4.173705e+001
8.765362e+002,4.130733e+001
8.775004e+002,3.886593e+001
8.784647e+002,3.675502e+001
8.794289e+002,3.517717e+001
8.803931e+002,3.366196e+001
8.813574e+002,3.196461e+001
8.823216e+002,3.021970e+001
8.832858e+002,2.865725e+001
8.842501e+002,2.734984e+001
8.852143e+002,2.664290e+001
8.861785e+002,2.758221e+001
8.871428e+002,2.881217e+001
8.881070e+002,2.855537e+001
8.890712e+002,2.643592e+001
8.900355e+002,2.348379e+001
8.909997e+002,2.131833e+001
8.919639e+002,2.001543e+001
8.929282e+002,1.967884e+001
8.938924e+002,2.104492e+001
8.948566e+002,2.224130e+001
8.958209e+002,2.233317e+001
8.967851e+002,2.149545e+001
8.977493e+002,2.039019e+001
8.987136e+002,1.878257e+001
8.996778e+002,1.744258e+001
9.006420e+002,1.672523e+001
9.016063e+002,1.635543e+001
9.025705e+002,1.616356e+001
9.035347e+002,1.607050e+001
9.044990e+002,1.605820e+001
9.054632e+002,1.619221e+001
9.064274e+002,1.616823e+001
9.073917e+002,1.505081e+001
9.083559e+002,1.281521e+001
9.093201e+002,1.088519e+001
9.102844e+002,1.069699e+001
9.112486e+002,1.207349e+001
9.122128e+002,1.175959e+001
9.131771e+002,7.087085e+000
9.141413e+002,4.228101e+000
9.151055e+002,5.020373e+000
9.160698e+002,7.048529e+000
9.170340e+002,7.877875e+000
9.179982e+002,6.949267e+000
9.189625e+002,5.796515e+000
9.199267e+002,5.824323e+000
9.208909e+002,6.158539e+000
9.218552e+002,6.116046e+000
9.228194e+002,5.631122e+000
9.237836e+002,4.578778e+000
9.247479e+002,2.843860e+000
9.257121e+002,7.082459e-001
9.266763e+002,-1.134522e-001
9.276406e+002,1.037317e+000
9.286048e+002,2.039337e+000
9.295690e+002,2.890399e+000
9.305333e+002,3.396570e+000
9.314975e+002,3.034747e+000
9.324617e+002,1.616083e+000
9.334260e+002,8.925964e-001
9.343902e+002,2.947327e+000
9.353545e+002,4.665399e+000
9.363187e+002,4.282507e+000
9.372830e+002,2.596234e+000
9.382472e+002,1.289789e+000
9.392114e+002,1.427905e+000
9.401757e+002,2.362103e+000
9.411399e+002,2.396820e+000
9.421041e+002,1.661829e+000
9.430684e+002,1.318249e+000
9.440326e+002,1.573102e+000
9.449968e+002,2.179523e+000
9.459611e+002,2.995459e+000
9.469253e+002,4.173706e+000
9.478895e+002,4.993689e+000
9.488538e+002,4.987793e+000
9.498180e+002,5.027039e+000
9.507822e+002,5.407721e+000
9.517465e+002,5.914026e+000
9.527107e+002,6.214227e+000
9.536749e+002,6.192841e+000
9.546392e+002,6.099786e+000
9.556034e+002,5.922479e+000
9.565676e+002,5.948639e+000
9.575319e+002,6.905603e+000
9.584961e+002,8.775085e+000
9.594603e+002,1.058396e+001
9.604246e+002,1.123094e+001
9.613888e+002,1.068083e+001
9.623530e+002,1.074962e+001
9.633173e+002,1.107090e+001
9.642815e+002,1.247134e+001
9.652457e+002,1.541215e+001
9.662100e+002,1.941592e+001
9.671742e+002,2.319695e+001
9.681384e+002,2.632360e+001
9.691027e+002,3.223898e+001
9.700669e+002,4.477259e+001
9.710311e+002,5.986275e+001
9.719954e+002,7.898335e+001
9.729596e+002,9.840769e+001
9.739238e+002,1.108760e+002
9.748881e+002,1.114974e+002
9.758523e+002,1.024848e+002
9.768165e+002,9.021391e+001
9.777808e+002,7.355276e+001
9.787450e+002,6.015004e+001
9.797092e+002,5.194047e+001
9.806735e+002,4.633036e+001
9.816377e+002,4.084643e+001
9.826019e+002,3.547539e+001
9.835662e+002,3.173402e+001
9.845304e+002,3.170513e+001
9.854946e+002,3.149836e+001
9.864589e+002,2.902587e+001
9.874231e+002,2.597407e+001
9.883873e+002,2.460828e+001
9.893516e+002,2.565603e+001
9.903158e+002,2.770914e+001
9.912800e+002,2.895768e+001
9.922443e+002,2.973202e+001
9.932085e+002,3.069412e+001
9.941727e+002,3.172617e+001
9.951370e+002,3.470877e+001
9.961012e+002,4.129079e+001
9.970654e+002,5.094743e+001
9.980297e+002,6.046427e+001
9.989939e+002,6.583031e+001
9.999581e+002,7.862704e+001
1.000922e+003,9.403368e+001
1.001887e+003,1.215012e+002
1.002851e+003,1.737421e+002
1.003815e+003,2.470636e+002
1.004779e+003,3.251453e+002
1.005744e+003,4.074108e+002
1.006708e+003,4.670892e+002
1.007672e+003,4.619791e+002
1.008636e+003,4.098651e+002
1.009600e+003,3.444451e+002
1.010565e+003,2.796835e+002
1.011529e+003,2.187490e+002
1.012493e+003,1.689099e+002
1.013457e+003,1.316809e+002
1.014422e+003,1.036212e+002
1.015386e+003,8.664009e+001
1.016350e+003,7.386399e+001
1.017314e+003,6.376741e+001
1.018279e+003,5.560958e+001
1.019243e+003,4.858094e+001
1.020207e+003,4.252708e+001
1.021171e+003,3.730280e+001
1.022135e+003,3.290678e+001
1.023100e+003,2.921406e+001
1.024064e+003,2.638208e+001
1.025028e+003,2.419855e+001
1.025992e+003,2.201068e+001
1.026957e+003,1.920654e+001
1.027921e+003,1.616188e+001
1.028885e+003,1.518502e+001
1.029849e+003,1.771830e+001
1.030814e+003,1.901089e+001
1.031778e+003,1.768688e+001
1.032742e+003,1.548337e+001
1.033706e+003,1.401022e+001
1.034671e+003,1.342107e+001
1.035635e+003,1.317291e+001
1.036599e+003,1.319629e+001
1.037563e+003,1.337732e+001
1.038527e+003,1.402332e+001
1.039492e+003,1.457941e+001
1.040456e+003,1.403709e+001
1.041420e+003,1.224460e+001
1.042384e+003,1.041723e+001
1.043349e+003,1.039279e+001
1.044313e+003,1.216675e+001
1.045277e+003,1.349827e+001
1.046241e+003,1.436942e+001
1.047206e+003,1.492628e+001
1.048170e+003,1.526376e+001
1.049134e+003,1.533939e+001
1.050098e+003,1.492986e+001
1.051063e+003,1.378173e+001
1.052027e+003,1.307611e+001
1.052991e+003,1.341446e+001
1.053955e+003,1.388777e+001
1.054919e+003,1.416411e+001
1.055884e+003,1.414198e+001
1.056848e+003,1.374500e+001
1.057812e+003,1.296207e+001
1.058776e+003,1.208904e+001
1.059741e+003,1.160394e+001
1.060705e+003,1.144477e+001
1.061669e+003,1.162297e+001
1.062633e+003,1.234134e+001
1.063598e+003,1.275537e+001
1.064562e+003,1.159274e+001
1.065526e+003,9.106237e+000
1.066490e+003,8.584363e+000
1.067454e+003,1.201407e+001
1.068419e+003,1.459558e+001
1.069383e+003,1.463306e+001
1.070347e+003,1.388187e+001
1.071311e+003,1.380604e+001
1.072276e+003,1.451993e+001
1.073240e+003,1.514291e+001
1.074204e+003,1.497246e+001
1.075168e+003,1.437358e+001
1.076133e+003,1.422594e+001
1.077097e+003,1.438764e+001
1.078061e+003,1.429014e+001
1.079025e+003,1.365571e+001
1.079990e+003,1.299224e+001
1.080954e+003,1.309629e+001
1.081918e+003,1.410112e+001
1.082882e+003,1.497492e+001
1.083846e+003,1.576916e+001
1.084811e+003,1.624450e+001
1.085775e+003,1.603636e+001
1.086739e+003,1.566202e+001
1.087703e+003,1.584031e+001
1.088668e+003,1.666964e+001
1.089632e+003,1.735843e+001
1.090596e+003,1.710580e+001
1.091560e+003,1.629984e+001
1.092525e+003,1.549092e+001
1.093489e+003,1.481012e+001
1.094453e+003,1.515963e+001
1.095417e+003,1.718505e+001
1.096381e+003,1.970716e+001
1.097346e+003,2.008385e+001
1.098310e+003,1.732376e+001
1.099274e+003,1.593711e+001
1.100238e+003,1.716126e+001
1.101203e+003,1.823521e+001
1.102167e+003,1.820726e+001
1.103131e+003,1.758271e+001
1.104095e+003,1.697103e+001
1.105060e+003,1.656585e+001
1.106024e+003,1.654348e+001
1.106988e+003,1.732533e+001
1.107952e+003,1.848861e+001
1.108917e+003,1.940766e+001
1.109881e+003,2.001948e+001
1.110845e+003,2.014693e+001
1.111809e+003,1.964164e+001
1.112773e+003,1.874460e+001
1.113738e+003,1.804600e+001
1.114702e+003,1.758000e+001
1.115666e+003,1.747582e+001
1.116630e+003,1.798763e+001
1.117595e+003,1.837429e+001
1.118559e+003,1.819310e+001
1.119523e+003,1.781857e+001
1.120487e+003,1.775100e+001
1.121452e+003,1.815508e+001
1.122416e+003,1.910916e+001
1.123380e+003,2.109920e+001
1.124344e+003,2.321586e+001
1.125308e+003,2.423097e+001
1.126273e+003,2.434770e+001
1.127237e+003,2.440057e+001
1.128201e+003,2.486387e+001
1.129165e+003,2.530263e+001
1.130130e+003,2.454892e+001
1.131094e+003,2.177745e+001
1.132058e+003,2.022070e+001
1.133022e+003,2.021620e+001
1.133987e+003,2.079734e+001
1.134951e+003,2.235453e+001
1.135915e+003,2.406432e+001
1.136879e+003,2.467632e+001
1.137844e+003,2.389898e+001
1.138808e+003,2.278187e+001
1.139772e+003,2.169579e+001
1.140736e+003,2.110583e+001
1.141700e+003,2.206968e+001
1.142665e+003,2.411965e+001
1.143629e+003,2.566195e+001
1.144593e+003,2.591322e+001
1.145557e+003,2.551989e+001
1.146522e+003,2.570102e+001
1.147486e+003,2.656419e+001
1.148450e+003,2.710987e+001
1.149414e+003,2.736056e+001
1.150379e+003,2.749257e+001
1.151343e+003,2.761579e+001
1.152307e+003,2.762929e+001
1.153271e+003,2.701764e+001
1.154235e+003,2.579836e+001
1.155200e+003,2.534352e+001
1.156164e+003,2.701098e+001
1.157128e+003,2.969178e+001
1.158092e+003,3.210165e+001
1.159057e+003,3.403719e+001
1.160021e+003,3.470185e+001
1.160985e+003,3.373352e+001
1.161949e+003,3.234100e+001
1.162914e+003,3.243621e+001
1.163878e+003,3.425554e+001
1.164842e+003,3.565812e+001
1.165806e+003,3.628562e+001
1.166771e+003,3.683650e+001
1.167735e+003,3.721052e+001
1.168699e+003,3.769493e+001
1.169663e+003,3.827841e+001
1.170627e+003,3.914816e+001
1.171592e+003,4.130043e+001
1.172556e+003,4.597654e+001
1.173520e+003,5.053613e+001
1.174484e+003,5.015405e+001
1.175449e+003,4.689613e+001
1.176413e+003,4.436298e+001
1.177377e+003,4.336092e+001
1.178341e+003,4.340775e+001
1.179306e+003,4.413937e+001
1.180270e+003,4.557096e+001
1.181234e+003,4.748351e+001
1.182198e+003,5.040043e+001
1.183162e+003,5.277077e+001
1.184127e+003,5.498081e+001
1.185091e+003,5.614395e+001
1.186055e+003,5.533714e+001
1.187019e+003,5.320803e+001
1.187984e+003,5.101495e+001
1.188948e+003,4.927501e+001
1.189912e+003,4.798629e+001
1.190876e+003,4.726094e+001
1.191841e+003,4.705347e+001
1.192805e+003,4.738493e+001
1.193769e+003,4.825465e+001
1.194733e+003,4.863757e+001
1.195698e+003,4.765261e+001
1.196662e+003,4.590907e+001
1.197626e+003,4.519577e+001
1.198590e+003,4.600609e+001
1.199554e+003,4.593749e+001
1.200519e+003,4.385796e+001
1.201483e+003,4.200320e+001
1.202447e+003,4.114343e+001
1.203411e+003,4.086211e+001
1.204376e+003,4.053389e+001
1.205340e+003,3.995155e+001
1.206304e+003,3.934118e+001
1.207268e+003,3.897263e+001
1.208233e+003,3.899613e+001
1.209197e+003,3.975081e+001
1.210161e+003,4.105973e+001
1.211125e+003,4.184612e+001
1.212089e+003,4.162663e+001
1.213054e+003,4.091227e+001
1.214018e+003,4.030962e+001
1.214982e+003,3.990290e+001
1.215946e+003,3.949210e+001
1.216911e+003,3.850263e+001
1.217875e+003,3.844085e+001
1.218839e+003,4.064012e+001
1.219803e+003,4.284006e+001
1.220768e+003,4.348370e+001
1.221732e+003,4.277045e+001
1.222696e+003,4.138390e+001
1.223660e+003,3.976626e+001
1.224625e+003,3.853635e+001
1.225589e+003,3.890438e+001
1.226553e+003,4.089491e+001
1.227517e+003,4.274121e+001
1.228481e+003,4.480401e+001
1.229446e+003,4.601735e+001
1.230410e+003,4.546183e+001
1.231374e+003,4.393805e+001
1.232338e+003,4.264491e+001
1.233303e+003,4.167926e+001
1.234267e+003,4.131993e+001
1.235231e+003,4.181176e+001
1.236195e+003,4.272060e+001
1.237160e+003,4.401628e+001
1.238124e+003,4.535829e+001
1.239088e+003,4.647712e+001
1.240052e+003,4.727637e+001
1.241016e+003,4.769783e+001
1.241981e+003,4.767313e+001
1.242945e+003,4.718619e+001
1.243909e+003,4.617545e+001
1.244873e+003,4.414405e+001
1.245838e+003,4.301490e+001
1.246802e+003,4.322083e+001
1.247766e+003,4.381018e+001
1.248730e+003,4.435567e+001
1.249695e+003,4.486007e+001
1.250659e+003,4.552506e+001
1.251623e+003,4.645704e+001
1.252587e+003,4.683896e+001
1.253552e+003,4.522282e+001
1.254516e+003,4.366996e+001
1.255480e+003,4.492896e+001
1.256444e+003,4.777281e+001
1.257408e+003,4.905945e+001
1.258373e+003,4.762109e+001
1.259337e+003,4.540593e+001
1.260301e+003,4.520523e+001
1.261265e+003,4.707455e+001
1.262230e+003,4.806744e+001
1.263194e+003,4.710415e+001
1.264158e+003,4.647877e+001
1.265122e+003,4.631771e+001
1.266087e+003,4.658248e+001
1.267051e+003,4.773623e+001
1.268015e+003,4.927245e+001
1.268979e+003,4.984130e+001
1.269943e+003,4.886049e+001
1.270908e+003,4.775962e+001
1.271872e+003,4.810255e+001
1.272836e+003,4.941210e+001
1.273800e+003,5.060711e+001
1.274765e+003,5.165359e+001
1.275729e+003,5.221906e+001
1.276693e+003,5.187305e+001
1.277657e+003,5.146191e+001
1.278622e+003,5.266113e+001
1.279586e+003,5.559282e+001
1.280550e+003,5.698901e+001
1.281514e+003,5.565953e+001
1.282479e+003,5.448492e+001
1.283443e+003,5.421816e+001
1.284407e+003,5.425214e+001
1.285371e+003,5.383543e+001
1.286335e+003,5.322657e+001
1.287300e+003,5.362737e+001
1.288264e+003,5.563225e+001
1.289228e+003,5.768797e+001
1.290192e+003,5.706835e+001
1.291157e+003,5.394114e+001
1.292121e+003,5.276147e+001
1.293085e+003,5.386782e+001
1.294049e+003,5.514506e+001
1.295014e+003,5.618683e+001
1.295978e+003,5.700047e+001
1.296942e+003,5.744598e+001
1.297906e+003,5.759606e+001
1.298870e+003,5.798592e+001
1.299835e+003,5.882981e+001
1.300799e+003,5.950058e+001
1.301763e+003,5.938171e+001
1.302727e+003,5.905504e+001
1.303692e+003,5.905718e+001
1.304656e+003,5.950852e+001
1.305620e+003,6.036798e+001
1.306584e+003,6.155941e+001
1.307549e+003,6.285094e+001
1.308513e+003,6.386249e+001
1.309477e+003,6.457732e+001
1.310441e+003,6.473311e+001
1.311406e+003,6.381667e+001
1.312370e+003,6.322976e+001
1.313334e+003,6.342494e+001
1.314298e+003,6.382632e+001
1.315263e+003,6.384998e+001
1.316227e+003,6.363740e+001
1.317191e+003,6.377833e+001
1.318155e+003,6.451838e+001
1.319120e+003,6.559975e+001
1.320084e+003,6.705836e+001
1.321048e+003,6.844341e+001
1.322012e+003,6.869584e+001
1.322976e+003,6.788534e+001
1.323941e+003,6.719949e+001
1.324905e+003,6.726476e+001
1.325869e+003,6.768874e+001
1.326833e+003,6.793206e+001
1.327798e+003,6.796456e+001
1.328762e+003,6.753328e+001
1.329726e+003,6.602488e+001
1.330690e+003,6.510254e+001
1.331655e+003,6.566485e+001
1.332619e+003,6.647581e+001
1.333583e+003,6.673732e+001
1.334547e+003,6.656367e+001
1.335511e+003,6.626714e+001
1.336476e+003,6.604350e+001
1.337440e+003,6.623861e+001
1.338404e+003,6.743816e+001
1.339368e+003,6.934035e+001
1.340333e+003,6.884640e+001
1.341297e+003,6.476835e+001
1.342261e+003,6.187368e+001
1.343225e+003,6.092323e+001
1.344190e+003,6.109229e+001
1.345154e+003,6.206052e+001
1.346118e+003,6.367466e+001
1.347082e+003,6.604117e+001
1.348047e+003,6.927785e+001
1.349011e+003,7.115138e+001
1.349975e+003,6.930033e+001
1.350939e+003,6.673100e+001
1.351903e+003,6.687822e+001
1.352868e+003,6.870259e+001
1.353832e+003,7.012292e+001
1.354796e+003,7.057386e+001
1.355760e+003,7.058225e+001
1.356725e+003,7.055408e+001
1.357689e+003,7.056938e+001
1.358653e+003,7.114845e+001
1.359617e+003,7.297749e+001
1.360582e+003,7.335683e+001
1.361546e+003,7.017226e+001
1.362510e+003,6.779340e+001
1.363474e+003,6.841277e+001
1.364438e+003,7.018501e+001
1.365403e+003,7.086779e+001
1.366367e+003,7.031300e+001
1.367331e+003,6.999669e+001
1.368295e+003,7.090079e+001
1.369260e+003,7.230377e+001
1.370224e+003,7.302010e+001
1.371188e+003,7.314121e+001
1.372152e+003,7.288683e+001
1.373117e+003,7.152205e+001
1.374081e+003,7.127919e+001
1.375045e+003,7.418962e+001
1.376009e+003,7.765688e+001
1.376974e+003,7.857915e+001
1.377938e+003,7.732770e+001
1.378902e+003,7.626267e+001
1.379866e+003,7.578065e+001
1.380830e+003,7.610596e+001
1.381795e+003,7.876360e+001
1.382759e+003,8.125773e+001
1.383723e+003,8.076858e+001
1.384687e+003,7.826659e+001
1.385652e+003,7.638430e+001
1.386616e+003,7.614877e+001
1.387580e+003,7.732161e+001
1.388544e+003,8.010625e+001
1.389509e+003,8.402541e+001
1.390473e+003,8.462364e+001
1.391437e+003,7.947359e+001
1.392401e+003,7.673961e+001
1.393365e+003,7.883836e+001
1.394330e+003,8.096684e+001
1.395294e+003,8.094975e+001
1.396258e+003,7.988517e+001
1.397222e+003,7.921774e+001
1.398187e+003,7.936483e+001
1.399151e+003,8.005271e+001
1.400115e+003,8.101793e+001
1.401079e+003,8.216050e+001
1.402044e+003,8.356580e+001
1.403008e+003,8.520894e+001
1.403972e+003,8.544004e+001
1.404936e+003,8.325122e+001
1.405901e+003,8.236504e+001
1.406865e+003,8.542572e+001
1.407829e+003,8.906686e+001
1.408793e+003,8.958647e+001
1.409757e+003,8.751823e+001
1.410722e+003,8.543336e+001
1.411686e+003,8.368499e+001
1.412650e+003,8.316650e+001
1.413614e+003,8.546387e+001
1.414579e+003,8.865318e+001
1.415543e+003,9.100846e+001
1.416507e+003,9.246083e+001
1.417471e+003,9.258177e+001
1.418436e+003,9.120280e+001
1.419400e+003,8.967440e+001
1.420364e+003,8.941521e+001
1.421328e+003,9.024660e+001
1.422292e+003,9.111989e+001
1.423257e+003,9.196757e+001
1.424221e+003,9.274135e+001
1.425185e+003,9.387706e+001
1.426149e+003,9.421918e+001
1.427114e+003,9.298960e+001
1.428078e+003,9.147697e+001
1.429042e+003,9.037202e+001
1.430006e+003,8.998029e+001
1.430971e+003,9.099204e+001
1.431935e+003,9.363985e+001
1.432899e+003,9.649239e+001
1.433863e+003,9.745546e+001
1.434828e+003,9.677034e+001
1.435792e+003,9.679240e+001
1.436756e+003,9.760957e+001
1.437720e+003,9.841445e+001
1.438684e+003,1.001074e+002
1.439649e+003,1.010068e+002
1.440613e+003,9.907825e+001
1.441577e+003,9.620975e+001
1.442541e+003,9.586006e+001
1.443506e+003,9.823997e+001
1.444470e+003,1.001121e+002
1.445434e+003,9.953361e+001
1.446398e+003,9.843522e+001
1.447363e+003,9.961615e+001
1.448327e+003,1.021522e+002
1.449291e+003,1.038627e+002
1.450255e+003,1.046354e+002
1.451219e+003,1.046594e+002
1.452184e+003,1.033367e+002
1.453148e+003,1.020280e+002
1.454112e+003,1.029570e+002
1.455076e+003,1.056274e+002
1.456041e+003,1.068984e+002
1.457005e+003,1.060791e+002
1.457969e+003,1.054069e+002
1.458933e+003,1.060272e+002
1.459898e+003,1.068188e+002
1.460862e+003,1.071532e+002
1.461826e+003,1.070731e+002
1.462790e+003,1.062451e+002
1.463755e+003,1.049986e+002
1.464719e+003,1.050473e+002
1.465683e+003,1.077394e+002
1.466647e+003,1.119427e+002
1.467611e+003,1.152723e+002
1.468576e+003,1.178804e+002
1.469540e+003,1.180167e+002
1.470504e+003,1.126855e+002
1.471468e+003,1.096548e+002
1.472433e+003,1.117364e+002
1.473397e+003,1.144235e+002
1.474361e+003,1.152910e+002
1.475325e+003,1.147139e+002
1.476290e+003,1.132610e+002
1.477254e+003,1.114111e+002
1.478218e+003,1.102453e+002
1.479182e+003,1.107060e+002
1.480146e+003,1.120449e+002
1.481111e+003,1.124812e+002
1.482075e+003,1.118774e+002
1.483039e+003,1.110488e+002
1.484003e+003,1.098731e+002
1.484968e+003,1.086763e+002
1.485932e+003,1.070226e+002
1.486896e+003,1.060712e+002
1.487860e+003,1.073363e+002
1.488825e+003,1.097917e+002
1.489789e+003,1.110947e+002
1.490753e+003,1.107143e+002
1.491717e+003,1.097470e+002
1.492682e+003,1.087151e+002
1.493646e+003,1.078223e+002
1.494610e+003,1.074894e+002
1.495574e+003,1.075592e+002
1.496538e+003,1.074850e+002
1.497503e+003,1.071274e+002
1.498467e+003,1.075211e+002
1.499431e+003,1.099177e+002
1.500395e+003,1.126538e+002
1.501360e+003,1.138065e+002
1.502324e+003,1.135996e+002
1.503288e+003,1.124630e+002
1.504252e+003,1.100812e+002
1.505217e+003,1.082424e+002
1.506181e+003,1.081542e+002
1.507145e+003,1.085902e+002
1.508109e+003,1.087172e+002
1.509073e+003,1.085967e+002
1.510038e+003,1.083185e+002
1.511002e+003,1.078905e+002
1.511966e+003,1.071845e+002
1.512930e+003,1.060565e+002
1.513895e+003,1.050314e+002
1.514859e+003,1.051017e+002
1.515823e+003,1.061545e+002
1.516787e+003,1.065666e+002
1.517752e+003,1.062273e+002
1.518716e+003,1.058411e+002
1.519680e+003,1.056566e+002
1.520644e+003,1.051400e+002
1.521609e+003,1.035747e+002
1.522573e+003,1.018503e+002
1.523537e+003,1.011648e+002
1.524501e+003,1.015560e+002
1.525465e+003,1.022062e+002
1.526430e+003,1.025549e+002
1.527394e+003,1.026245e+002
1.528358e+003,1.025377e+002
1.529322e+003,1.023153e+002
1.530287e+003,1.019050e+002
1.531251e+003,1.009868e+002
1.532215e+003,1.006945e+002
1.533179e+003,1.017375e+002
1.534144e+003,1.023708e+002
1.535108e+003,1.015581e+002
1.536072e+003,1.002332e+002
1.537036e+003,9.937660e+001
1.538000e+003,9.903115e+001
1.538965e+003,9.878717e+001
1.539929e+003,9.841954e+001
1.540893e+003,9.801921e+001
1.541857e+003,9.779867e+001
1.542822e+003,9.764718e+001
1.543786e+003,9.659315e+001
1.544750e+003,9.387577e+001
1.545714e+003,9.264143e+001
1.546679e+003,9.408448e+001
1.547643e+003,9.522758e+001
1.548607e+003,9.522524e+001
1.549571e+003,9.457404e+001
1.550536e+003,9.301746e+001
1.551500e+003,9.119014e+001
1.552464e+003,9.084689e+001
1.553428e+003,9.251788e+001
1.554392e+003,9.499391e+001
1.555357e+003,9.753965e+001
1.556321e+003,9.922884e+001
1.557285e+003,9.773081e+001
1.558249e+003,9.335283e+001
1.559214e+003,9.118065e+001
1.560178e+003,9.210307e+001
1.561142e+003,9.303634e+001
1.562106e+003,9.317955e+001
1.563071e+003,9.251231e+001
1.564035e+003,9.046637e+001
1.564999e+003,8.794667e+001
1.565963e+003,8.726804e+001
1.566927e+003,8.859989e+001
1.567892e+003,8.868485e+001
1.568856e+003,8.539564e+001
1.569820e+003,8.196209e+001
1.570784e+003,8.287224e+001
1.571749e+003,8.604002e+001
1.572713e+003,8.610526e+001
1.573677e+003,8.314902e+001
1.574641e+003,8.098089e+001
1.575606e+003,8.097506e+001
1.576570e+003,8.145747e+001
1.577534e+003,8.106495e+001
1.578498e+003,8.039387e+001
1.579463e+003,8.099208e+001
1.580427e+003,8.267440e+001
1.581391e+003,8.232419e+001
1.582355e+003,7.842244e+001
1.583319e+003,7.516333e+001
1.584284e+003,7.629305e+001
1.585248e+003,7.870229e+001
1.586212e+003,7.795239e+001
1.587176e+003,7.513755e+001
1.588141e+003,7.372829e+001
1.589105e+003,7.451453e+001
1.590069e+003,7.535181e+001
1.591033e+003,7.490961e+001
1.591998e+003,7.365875e+001
1.592962e+003,7.211336e+001
1.593926e+003,7.034279e+001
1.594890e+003,6.872026e+001
1.595854e+003,6.727417e+001
1.596819e+003,6.644322e+001
1.597783e+003,6.685651e+001
1.598747e+003,6.703054e+001
1.599711e+003,6.578477e+001
1.600676e+003,6.374128e+001
1.601640e+003,6.120609e+001
1.602604e+003,5.861427e+001
1.603568e+003,5.729930e+001
1.604533e+003,5.779530e+001
1.605497e+003,5.877889e+001
1.606461e+003,5.932391e+001
1.607425e+003,5.923775e+001
1.608390e+003,5.747759e+001
1.609354e+003,5.402528e+001
1.610318e+003,5.244280e+001
1.611282e+003,5.388588e+001
1.612246e+003,5.530880e+001
1.613211e+003,5.580236e+001
1.614175e+003,5.529744e+001
1.615139e+003,5.302497e+001
1.616103e+003,5.014214e+001
1.617068e+003,4.835015e+001
1.618032e+003,4.790720e+001
1.618996e+003,4.842431e+001
1.619960e+003,4.985269e+001
1.620925e+003,5.086097e+001
1.621889e+003,4.921532e+001
1.622853e+003,4.546360e+001
1.623817e+003,4.267347e+001
1.624781e+003,4.085117e+001
1.625746e+003,4.050184e+001
1.626710e+003,4.320097e+001
1.627674e+003,4.476699e+001
1.628638e+003,4.169078e+001
1.629603e+003,3.794210e+001
1.630567e+003,3.712249e+001
1.631531e+003,3.822475e+001
1.632495e+003,3.863652e+001
1.633460e+003,3.775860e+001
1.634424e+003,3.664835e+001
1.635388e+003,3.596553e+001
1.636352e+003,3.568424e+001
1.637317e+003,3.597300e+001
1.638281e+003,3.676028e+001
1.639245e+003,3.704466e+001
1.640209e+003,3.679832e+001
1.641173e+003,3.596951e+001
1.642138e+003,3.398344e+001
1.643102e+003,3.230051e+001
1.644066e+003,3.230926e+001
1.645030e+003,3.237679e+001
1.645995e+003,3.018544e+001
1.646959e+003,2.677216e+001
1.647923e+003,2.523926e+001
1.648887e+003,2.646167e+001
1.649852e+003,2.832942e+001
1.650816e+003,2.931252e+001
1.651780e+003,2.939642e+001
1.652744e+003,2.817563e+001
1.653708e+003,2.571562e+001
1.654673e+003,2.433241e+001
1.655637e+003,2.457005e+001
1.656601e+003,2.429239e+001
1.657565e+003,2.230948e+001
1.658530e+003,2.048261e+001
1.659494e+003,1.996942e+001
1.660458e+003,1.999349e+001
1.661422e+003,1.966580e+001
1.662387e+003,1.911681e+001
1.663351e+003,1.916711e+001
1.664315e+003,2.005656e+001
1.665279e+003,2.065441e+001
1.666244e+003,1.992650e+001
1.667208e+003,1.843420e+001
1.668172e+003,1.721594e+001
1.669136e+003,1.624240e+001
1.670100e+003,1.524353e+001
1.671065e+003,1.401407e+001
1.672029e+003,1.357525e+001
1.672993e+003,1.489319e+001
1.673957e+003,1.627848e+001
1.674922e+003,1.669350e+001
1.675886e+003,1.650677e+001
1.676850e+003,1.592565e+001
1.677814e+003,1.512848e+001
1.678779e+003,1.460291e+001
1.679743e+003,1.450795e+001
1.680707e+003,1.429271e+001
1.681671e+003,1.345341e+001
1.682635e+003,1.228443e+001
1.683600e+003,1.131322e+001
1.684564e+003,1.052276e+001
1.685528e+003,9.543445e+000
1.686492e+003,8.219004e+000
1.687457e+003,7.377817e+000
1.688421e+003,7.571744e+000
1.689385e+003,7.901248e+000
1.690349e+003,7.365817e+000
1.691314e+003,6.856827e+000
1.692278e+003,7.849500e+000
1.693242e+003,9.770761e+000
1.694206e+003,1.039195e+001
1.695171e+003,9.120511e+000
1.696135e+003,7.247668e+000
1.697099e+003,5.010516e+000
1.698063e+003,3.172879e+000
1.699027e+003,3.057922e+000
1.699992e+003,4.108502e+000
1.700956e+003,4.429770e+000
1.701920e+003,3.844690e+000
1.702884e+003,3.889377e+000
1.703849e+003,5.384705e+000
1.704813e+003,6.403287e+000
1.705777e+003,5.036478e+000
1.706741e+003,2.748489e+000
1.707706e+003,1.897266e+000
1.708670e+003,2.224011e+000
1.709634e+003,2.871616e+000
1.710598e+003,3.868079e+000
1.711563e+003,4.339316e+000
1.712527e+003,3.535999e+000
1.713491e+003,2.469043e+000
1.714455e+003,1.991669e+000
1.715419e+003,1.805804e+000
1.716384e+003,1.339624e+000
1.717348e+003,6.149475e-001
1.718312e+003,2.120361e-002
1.719276e+003,-3.270050e-001
1.720241e+003,-4.334045e-001
1.721205e+003,-2.865539e-001
1.722169e+003,1.152618e-001
1.723133e+003,1.020313e+000
1.724098e+003,2.259039e+000
1.725062e+003,2.151154e+000
1.726026e+003,2.405090e-001
1.726990e+003,-1.153439e+000
1.727954e+003,-1.343054e+000
1.728919e+003,-1.369775e+000
1.729883e+003,-1.804138e+000
1.730847e+003,-2.189871e+000
1.731811e+003,-1.954974e+000
1.732776e+003,-1.327945e+000
1.733740e+003,-7.740784e-001
1.734704e+003,-4.612702e-001
1.735668e+003,-5.642731e-001
1.736633e+003,-1.187198e+000
1.737597e+003,-1.982349e+000
1.738561e+003,-2.471436e+000
1.739525e+003,-2.717981e+000
1.740490e+003,-3.141040e+000
1.741454e+003,-3.937402e+000
1.742418e+003,-4.256167e+000
1.743382e+003,-3.942828e+000
1.744346e+003,-3.431103e+000
1.745311e+003,-2.007336e+000
1.746275e+003,-1.280493e+000
1.747239e+003,-3.042694e+000
1.748203e+003,-5.429990e+000
1.749168e+003,-5.959726e+000
1.750132e+003,-4.869492e+000
1.751096e+003,-3.986645e+000
1.752060e+003,-4.007871e+000
1.753025e+003,-3.958148e+000
1.753989e+003,-2.878586e+000
1.754953e+003,-1.588232e+000
1.755917e+003,-2.128976e+000
1.756881e+003,-4.546335e+000
1.757846e+003,-6.342069e+000
1.758810e+003,-7.529752e+000
1.759774e+003,-7.960211e+000
1.760738e+003,-7.021576e+000
1.761703e+003,-6.208395e+000
1.762667e+003,-5.840598e+000
1.763631e+003,-5.983569e+000
1.764595e+003,-7.178485e+000
1.765560e+003,-8.671969e+000
1.766524e+003,-9.131678e+000
1.767488e+003,-8.462527e+000
1.768452e+003,-7.552936e+000
1.769417e+003,-6.799436e+000
1.770381e+003,-6.346756e+000
1.771345e+003,-6.501187e+000
1.772309e+003,-7.042090e+000
1.773273e+003,-7.404541e+000
1.774238e+003,-7.622888e+000
1.775202e+003,-8.044812e+000
1.776166e+003,-8.806211e+000
1.777130e+003,-8.905505e+000
1.778095e+003,-7.583426e+000
1.779059e+003,-6.252185e+000
1.780023e+003,-6.400156e+000
1.780987e+003,-7.114301e+000
1.781952e+003,-6.582431e+000
1.782916e+003,-5.199307e+000
1.783880e+003,-5.133451e+000
1.784844e+003,-7.090250e+000
1.785808e+003,-8.342242e+000
1.786773e+003,-6.937408e+000
1.787737e+003,-5.374930e+000
1.788701e+003,-5.887854e+000
1.789665e+003,-7.267764e+000
1.790630e+003,-7.590732e+000
1.791594e+003,-7.086838e+000
1.792558e+003,-7.234302e+000
1.793522e+003,-8.358981e+000
1.794487e+003,-9.488516e+000
1.795451e+003,-1.004242e+001
1.796415e+003,-9.775760e+000
1.797379e+003,-8.188807e+000
1.798344e+003,-5.732806e+000
1.799308e+003,-4.548789e+000
1.800272e+003,-4.943457e+000
1.801236e+003,-5.564584e+000
1.802201e+003,-6.607862e+000
1.803165e+003,-7.464316e+000
1.804129e+003,-8.225641e+000
1.805093e+003,-8.569812e+000
1.806057e+003,-8.095548e+000
1.807022e+003,-7.314603e+000
1.807986e+003,-6.692548e+000
1.808950e+003,-6.284350e+000
1.809914e+003,-6.024655e+000
1.810879e+003,-5.877719e+000
1.811843e+003,-5.778882e+000
1.812807e+003,-5.685937e+000
1.813771e+003,-5.701553e+000
1.814736e+003,-6.000043e+000
1.815700e+003,-6.511667e+000
1.816664e+003,-6.939383e+000
1.817628e+003,-7.305310e+000
1.818593e+003,-7.432144e+000
1.819557e+003,-7.054837e+000
1.820521e+003,-7.107132e+000
1.821485e+003,-8.579379e+000
1.822449e+003,-9.738040e+000
1.823414e+003,-8.814883e+000
1.824378e+003,-7.232455e+000
1.825342e+003,-6.800186e+000
1.826306e+003,-7.321374e+000
1.827271e+003,-7.676306e+000
1.828235e+003,-7.609161e+000
1.829199e+003,-7.591220e+000
1.830163e+003,-8.148676e+000
1.831128e+003,-8.469065e+000
1.832092e+003,-7.604880e+000
1.833056e+003,-6.234998e+000
1.834020e+003,-5.225220e+000
1.834984e+003,-4.729074e+000
1.835949e+003,-5.105240e+000
1.836913e+003,-6.278412e+000
1.837877e+003,-7.217920e+000
1.838841e+003,-7.382135e+000
1.839806e+003,-7.052475e+000
1.840770e+003,-6.433520e+000
1.841734e+003,-5.836102e+000
1.842698e+003,-6.287631e+000
1.843663e+003,-8.001150e+000
1.844627e+003,-8.529941e+000
1.845591e+003,-6.924255e+000
1.846555e+003,-5.641977e+000
1.847520e+003,-4.790713e+000
1.848484e+003,-4.279996e+000
1.849448e+003,-4.129434e+000
1.850412e+003,-4.176801e+000
1.851376e+003,-4.373193e+000
1.852341e+003,-4.655765e+000
1.853305e+003,-5.008695e+000
1.854269e+003,-5.393268e+000
1.855233e+003,-5.658496e+000
1.856198e+003,-5.720273e+000
1.857162e+003,-5.731097e+000
1.858126e+003,-5.850824e+000
1.859090e+003,-6.001925e+000
1.860055e+003,-6.181915e+000
1.861019e+003,-6.333005e+000
1.861983e+003,-5.751291e+000
1.862947e+003,-4.354867e+000
1.863911e+003,-3.522464e+000
1.864876e+003,-3.672672e+000
1.865840e+003,-3.912543e+000
1.866804e+003,-3.804681e+000
1.867768e+003,-3.524414e+000
1.868733e+003,-3.262723e+000
1.869697e+003,-3.009418e+000
1.870661e+003,-2.665066e+000
1.871625e+003,-2.226053e+000
1.872590e+003,-1.877664e+000
1.873554e+003,-1.620892e+000
1.874518e+003,-1.453436e+000
1.875482e+003,-1.288272e+000
1.876447e+003,-1.296164e+000
1.877411e+003,-1.732040e+000
1.878375e+003,-2.255868e+000
1.879339e+003,-2.739783e+000
1.880303e+003,-2.961444e+000
1.881268e+003,-2.168109e+000
1.882232e+003,-5.774872e-001
1.883196e+003,2.758789e-001
1.884160e+003,-4.089569e-001
1.885125e+003,-2.023645e+000
1.886089e+003,-4.129202e+000
1.887053e+003,-5.852396e+000
1.888017e+003,-3.935391e+000
1.888982e+003,1.714710e+000
1.889946e+003,4.062247e+000
1.890910e+003,2.524466e+000
1.891874e+003,5.002991e-001
1.892839e+003,-2.022891e+000
1.893803e+003,-3.588647e+000
1.894767e+003,-2.940039e+000
1.895731e+003,-1.713589e+000
1.896695e+003,-1.563007e+000
1.897660e+003,-1.772354e+000
1.898624e+003,-7.645691e-001
1.899588e+003,1.224179e+000
1.900552e+003,1.666415e+000
1.901517e+003,-5.918549e-001
1.902481e+003,-1.922067e+000
1.903445e+003,3.326233e-001
1.904409e+003,2.538986e+000
1.905374e+003,1.743524e+000
1.906338e+003,1.186279e-001
1.907302e+003,5.308288e-001
1.908266e+003,2.004691e+000
1.909230e+003,1.850284e+000
1.910195e+003,2.959900e-002
1.911159e+003,-1.227557e+000
1.912123e+003,-9.083923e-001
1.913087e+003,1.367859e-001
1.914052e+003,1.138577e+000
1.915016e+003,1.715186e+000
1.915980e+003,9.387054e-001
1.916944e+003,-1.038010e+000
1.917909e+003,-2.144455e+000
1.918873e+003,-2.215222e+000
1.919837e+003,-2.304468e+000
1.920801e+003,-2.590585e+000
1.921766e+003,-2.742114e+000
1.922730e+003,-2.641568e+000
1.923694e+003,-2.438608e+000
1.924658e+003,-2.359091e+000
1.925622e+003,-2.104810e+000
1.926587e+003,-8.889618e-001
1.927551e+003,8.201019e-001
1.928515e+003,1.255905e+000
1.929479e+003,1.345245e-001
1.930444e+003,-1.015613e+000
1.931408e+003,-2.054733e+000
1.932372e+003,-2.641760e+000
1.933336e+003,-2.367679e+000
1.934301e+003,-1.833514e+000
1.935265e+003,-1.549933e+000
1.936229e+003,-1.292453e+000
1.937193e+003,-5.504150e-001
1.938157e+003,4.229034e-001
1.939122e+003,8.709992e-001
1.940086e+003,6.597717e-001
1.941050e+003,2.357849e-001
1.942014e+003,-1.298187e-001
1.942979e+003,-3.390686e-001
1.943943e+003,-2.308350e-001
1.944907e+003,8.522034e-002
1.945871e+003,3.197052e-001
1.946836e+003,4.899078e-001
1.947800e+003,3.876099e-001
1.948764e+003,-1.146790e-001
1.949728e+003,6.153565e-002
1.950693e+003,1.369592e+000
1.951657e+003,2.458945e+000
1.952621e+003,2.813443e+000
1.953585e+003,2.527853e+000
1.954549e+003,1.218643e+000
1.955514e+003,-3.932831e-001
1.956478e+003,-5.680939e-001
1.957442e+003,5.898712e-001
1.958406e+003,1.464050e+000
1.959371e+003,2.067856e+000
1.960335e+003,2.211529e+000
1.961299e+003,1.362738e+000
1.962263e+003,8.000061e-001
1.963228e+003,1.392197e+000
1.964192e+003,1.920959e+000
1.965156e+003,1.146027e+000
1.966120e+003,7.502747e-002
1.967084e+003,9.000854e-002
1.968049e+003,1.006488e+000
1.969013e+003,1.999731e+000
1.969977e+003,2.757141e+000
1.970941e+003,3.262228e+000
1.971906e+003,3.517911e+000
1.972870e+003,3.479474e+000
1.973834e+003,2.929785e+000
1.974798e+003,2.235489e+000
1.975763e+003,2.004822e+000
1.976727e+003,2.115524e+000
1.977691e+003,2.235413e+000
1.978655e+003,2.362781e+000
1.979620e+003,2.934561e+000
1.980584e+003,4.021020e+000
1.981548e+003,4.077859e+000
1.982512e+003,2.163904e+000
1.983476e+003,4.684173e-001
1.984441e+003,1.398114e+000
1.985405e+003,3.690134e+000
1.986369e+003,4.297452e+000
1.987333e+003,3.288306e+000
1.988298e+003,2.941168e+000
1.989262e+003,3.563812e+000
1.990226e+003,3.790042e+000
1.991190e+003,3.174557e+000
1.992155e+003,2.949451e+000
1.993119e+003,4.013715e+000
1.994083e+003,4.833325e+000
1.995047e+003,4.455762e+000
1.996011e+003,3.538684e+000
1.996976e+003,2.331107e+000
1.997940e+003,1.290549e+000
1.998904e+003,1.560931e+000
1.999868e+003,3.182764e+000
2.000833e+003,4.655563e+000
2.001797e+003,5.818909e+000
2.002761e+003,6.146661e+000
2.003725e+003,4.897354e+000
2.004690e+003,3.424368e+000
2.005654e+003,2.042706e+000
2.006618e+003,1.368951e+000
2.007582e+003,2.621845e+000
2.008547e+003,4.696649e+000
2.009511e+003,5.776090e+000
2.010475e+003,5.731448e+000
2.011439e+003,5.363565e+000
2.012403e+003,4.989191e+000
2.013368e+003,4.435815e+000
2.014332e+003,3.556842e+000
2.015296e+003,2.753909e+000
2.016260e+003,2.713361e+000
2.017225e+003,3.048071e+000
2.018189e+003,2.425848e+000
2.019153e+003,1.358249e+000
2.020117e+003,2.591998e+000
2.021082e+003,5.915402e+000
2.022046e+003,7.118332e+000
2.023010e+003,5.196378e+000
2.023974e+003,3.161835e+000
2.024938e+003,2.601294e+000
2.025903e+003,2.899530e+000
2.026867e+003,3.526566e+000
2.027831e+003,4.148340e+000
2.028795e+003,3.893402e+000
2.029760e+003,2.857416e+000
2.030724e+003,3.073502e+000
2.031688e+003,5.374435e+000
2.032652e+003,5.521826e+000
2.033617e+003,2.001858e+000
2.034581e+003,-4.695038e-001
2.035545e+003,-3.795807e-001
2.036509e+003,4.850708e-001
2.037474e+003,1.483539e+000
2.038438e+003,2.383691e+000
2.039402e+003,3.092050e+000
2.040366e+003,3.521796e+000
2.041330e+003,3.352429e+000
2.042295e+003,2.623206e+000
2.043259e+003,2.058493e+000
2.044223e+003,1.565045e+000
2.045187e+003,1.668375e+000
2.046152e+003,3.139453e+000
2.047116e+003,4.268786e+000
2.048080e+003,4.334717e+000
2.049044e+003,3.880301e+000
2.050009e+003,3.017691e+000
2.050973e+003,2.144601e+000
2.051937e+003,1.419943e+000
2.052901e+003,1.123932e+000
2.053865e+003,2.118576e+000
2.054830e+003,4.165137e+000
2.055794e+003,5.107175e+000
2.056758e+003,3.891537e+000
2.057722e+003,2.635068e+000
2.058687e+003,3.108987e+000
2.059651e+003,4.014893e+000
2.060615e+003,4.339804e+000
2.061579e+003,4.065131e+000
2.062544e+003,2.790164e+000
2.063508e+003,1.148624e+000
2.064472e+003,4.379486e-001
2.065436e+003,5.893432e-001
2.066401e+003,5.651489e-001
2.067365e+003,1.130035e-001
2.068329e+003,1.127838e-001
2.069293e+003,1.118930e+000
2.070258e+003,2.264319e+000
2.071222e+003,2.446661e+000
2.072186e+003,2.271405e+000
2.073150e+003,3.312497e+000
2.074115e+003,5.118112e+000
2.075079e+003,5.696738e+000
2.076043e+003,5.050229e+000
2.077007e+003,3.642825e+000
2.077971e+003,1.652988e+000
2.078936e+003,7.259949e-001
2.079900e+003,1.473166e+000
2.080864e+003,2.326282e+000
2.081828e+003,2.144257e+000
2.082792e+003,1.772491e+000
2.083757e+003,2.404535e+000
2.084721e+003,3.757129e+000
2.085685e+003,4.968631e+000
2.086649e+003,6.093887e+000
2.087614e+003,5.961191e+000
2.088578e+003,4.212472e+000
2.089542e+003,2.981992e+000
2.090506e+003,2.591653e+000
2.091471e+003,2.242905e+000
2.092435e+003,1.549136e+000
2.093399e+003,1.243295e+000
2.094363e+003,1.999338e+000
2.095328e+003,3.104810e+000
2.096292e+003,3.602597e+000
2.097256e+003,3.662820e+000
2.098220e+003,3.961386e+000
2.099185e+003,4.562085e+000
2.100149e+003,5.209717e+000
2.101113e+003,6.362201e+000
2.102077e+003,6.633054e+000
2.103042e+003,5.113800e+000
2.104006e+003,3.969055e+000
2.104970e+003,4.074365e+000
2.105934e+003,4.222131e+000
2.106898e+003,3.334457e+000
2.107863e+003,2.509781e+000
2.108827e+003,3.287552e+000
2.109791e+003,4.900345e+000
2.110755e+003,5.445193e+000
2.111719e+003,4.866226e+000
2.112684e+003,4.767090e+000
2.113648e+003,5.720850e+000
2.114612e+003,6.236835e+000
2.115576e+003,5.492844e+000
2.116541e+003,4.924988e+000
2.117505e+003,5.513480e+000
2.118469e+003,5.915332e+000
2.119433e+003,4.803375e+000
2.120398e+003,3.515479e+000
2.121362e+003,3.895120e+000
2.122326e+003,4.926190e+000
2.123290e+003,4.099924e+000
2.124255e+003,1.756433e+000
2.125219e+003,1.168152e+000
2.126183e+003,3.405270e+000
2.127147e+003,5.194299e+000
2.128112e+003,4.288870e+000
2.129076e+003,3.791797e+000
2.130040e+003,6.297534e+000
2.131004e+003,8.822260e+000
2.131969e+003,8.692019e+000
2.132933e+003,7.483307e+000
2.133897e+003,6.943863e+000
2.134861e+003,7.019259e+000
2.135825e+003,7.327741e+000
2.136790e+003,7.604947e+000
2.137754e+003,7.404504e+000
2.138718e+003,6.649722e+000
2.139682e+003,5.893250e+000
2.140646e+003,5.290854e+000
2.141611e+003,5.386084e+000
2.142575e+003,7.780588e+000
2.143539e+003,9.786118e+000
2.144503e+003,7.657980e+000
2.145468e+003,4.361407e+000
2.146432e+003,3.958002e+000
2.147396e+003,5.585187e+000
2.148360e+003,7.391614e+000
2.149325e+003,8.733633e+000
2.150289e+003,9.088928e+000
2.151253e+003,8.417725e+000
2.152217e+003,7.277292e+000
2.153182e+003,5.979788e+000
2.154146e+003,5.372217e+000
2.155110e+003,6.661374e+000
2.156074e+003,8.429916e+000
2.157039e+003,8.813861e+000
2.158003e+003,8.412848e+000
2.158967e+003,7.997113e+000
2.159931e+003,7.779648e+000
2.160896e+003,8.240140e+000
2.161860e+003,9.140225e+000
2.162824e+003,9.635702e+000
2.163788e+003,9.546725e+000
2.164752e+003,9.285147e+000
2.165717e+003,9.057684e+000
2.166681e+003,8.662226e+000
2.167645e+003,7.863174e+000
2.168609e+003,7.068863e+000
2.169573e+003,6.947882e+000
2.170538e+003,7.204547e+000
2.171502e+003,7.288541e+000
2.172466e+003,7.201962e+000
2.173430e+003,6.867642e+000
2.174395e+003,6.484177e+000
2.175359e+003,6.714978e+000
2.176323e+003,7.542795e+000
2.177287e+003,8.356900e+000
2.178252e+003,8.832632e+000
2.179216e+003,8.629395e+000
2.180180e+003,7.502716e+000
2.181144e+003,6.426459e+000
2.182109e+003,6.718802e+000
2.183073e+003,7.544153e+000
2.184037e+003,7.245496e+000
2.185001e+003,6.260739e+000
2.185966e+003,5.520142e+000
2.186930e+003,5.187198e+000
2.187894e+003,5.722656e+000
2.188858e+003,6.932053e+000
2.189823e+003,7.702456e+000
2.190787e+003,7.747705e+000
2.191751e+003,7.876120e+000
2.192715e+003,8.539203e+000
2.193679e+003,8.943896e+000
2.194644e+003,8.231695e+000
2.195608e+003,7.224612e+000
2.196572e+003,7.368176e+000
2.197536e+003,8.169217e+000
2.198500e+003,8.307147e+000
2.199465e+003,8.135678e+000
2.200429e+003,9.075720e+000
2.201393e+003,1.068559e+001
2.202357e+003,1.060305e+001
2.203322e+003,8.777344e+000
2.204286e+003,7.578217e+000
2.205250e+003,7.890607e+000
2.206214e+003,8.732376e+000
2.207179e+003,9.434219e+000
2.208143e+003,9.801687e+000
2.209107e+003,9.476770e+000
2.210071e+003,8.942230e+000
2.211036e+003,9.244074e+000
2.212000e+003,9.938889e+000
2.212964e+003,9.813950e+000
2.213928e+003,9.147672e+000
2.214893e+003,8.827914e+000
2.215857e+003,9.013898e+000
2.216821e+003,9.841705e+000
2.217785e+003,1.114013e+001
2.218750e+003,1.188012e+001
2.219714e+003,1.170028e+001
2.220678e+003,1.211028e+001
2.221642e+003,1.445069e+001
2.222606e+003,1.711441e+001
2.223571e+003,1.789015e+001
2.224535e+003,1.760430e+001
2.225499e+003,1.731610e+001
2.226463e+003,1.735250e+001
2.227427e+003,1.865495e+001
2.228392e+003,2.079631e+001
2.229356e+003,2.285441e+001
2.230320e+003,2.449449e+001
2.231284e+003,2.504284e+001
2.232249e+003,2.458711e+001
2.233213e+003,2.468306e+001
2.234177e+003,2.610859e+001
2.235141e+003,2.749500e+001
2.236106e+003,2.741466e+001
2.237070e+003,2.751496e+001
2.238034e+003,3.035341e+001
2.238998e+003,3.401810e+001
2.239963e+003,3.550137e+001
2.240927e+003,3.618160e+001
2.241891e+003,3.877564e+001
2.242855e+003,4.255522e+001
2.243820e+003,4.547131e+001
2.244784e+003,4.732552e+001
2.245748e+003,4.864715e+001
2.246712e+003,4.983374e+001
2.247677e+003,5.190786e+001
2.248641e+003,5.547413e+001
2.249605e+003,5.918014e+001
2.250569e+003,6.219831e+001
2.251533e+003,6.443097e+001
2.252498e+003,6.597029e+001
2.253462e+003,6.645314e+001
2.254426e+003,6.508535e+001
2.255390e+003,6.279478e+001
2.256354e+003,6.042197e+001
2.257319e+003,5.828412e+001
2.258283e+003,5.690174e+001
2.259247e+003,5.602662e+001
2.260211e+003,5.481750e+001
2.261176e+003,5.298674e+001
2.262140e+003,5.028077e+001
2.263104e+003,4.633187e+001
2.264068e+003,4.240127e+001
2.265033e+003,3.908103e+001
2.265997e+003,3.615585e+001
2.266961e+003,3.336238e+001
2.267925e+003,3.104452e+001
2.268890e+003,2.969094e+001
2.269854e+003,2.876300e+001
2.270818e+003,2.795767e+001
2.271782e+003,2.701014e+001
2.272747e+003,2.559075e+001
2.273711e+003,2.372332e+001
2.274675e+003,2.144148e+001
2.275639e+003,1.873712e+001
2.276604e+003,1.685861e+001
2.277568e+003,1.667295e+001
2.278532e+003,1.617459e+001
2.279496e+003,1.432053e+001
2.280460e+003,1.273039e+001
2.281425e+003,1.240901e+001
2.282389e+003,1.201305e+001
2.283353e+003,1.070944e+001
2.284317e+003,9.115967e+000
2.285281e+003,7.235471e+000
2.286246e+003,5.779874e+000
2.287210e+003,6.531165e+000
2.288174e+003,8.933835e+000
2.289138e+003,9.522894e+000
2.290103e+003,7.845331e+000
2.291067e+003,6.216135e+000
2.292031e+003,4.505877e+000
2.292995e+003,3.072998e+000
2.293960e+003,1.358524e+000
2.294924e+003,1.020425e+000
2.295888e+003,3.481003e+000
2.296852e+003,5.478226e+000
2.297817e+003,5.331421e+000
2.298781e+003,4.250577e+000
2.299745e+003,3.049530e+000
2.300709e+003,2.071753e+000
2.301674e+003,1.952026e+000
2.302638e+003,2.451385e+000
2.303602e+003,2.421152e+000
2.304566e+003,1.794363e+000
2.305531e+003,1.252918e+000
2.306495e+003,8.195435e-001
2.307459e+003,6.388428e-001
2.308423e+003,7.225189e-001
2.309387e+003,9.287628e-001
2.310352e+003,1.251163e+000
2.311316e+003,1.115713e+000
2.312280e+003,2.178101e-001
2.313244e+003,-3.356537e-001
2.314208e+003,4.106659e-001
2.315173e+003,1.349426e+000
2.316137e+003,8.506470e-001
2.317101e+003,-5.613037e-001
2.318065e+003,-1.785400e+000
2.319030e+003,-2.640094e+000
2.319994e+003,-2.092371e+000
2.320958e+003,-5.663086e-001
2.321922e+003,1.158722e-001
2.322887e+003,7.229614e-003
2.323851e+003,3.694000e-001
2.324815e+003,1.284897e+000
2.325779e+003,1.739291e+000
2.326744e+003,1.350095e+000
2.327708e+003,3.996033e-001
2.328672e+003,-9.669098e-001
2.329636e+003,-2.084628e+000
2.330601e+003,-2.094354e+000
2.331565e+003,-1.911252e+000
2.332529e+003,-2.887738e+000
2.333493e+003,-3.925683e+000
2.334458e+003,-3.661221e+000
2.335422e+003,-2.685242e+000
2.336386e+003,-1.329962e+000
2.337350e+003,-2.332520e-001
2.338314e+003,-5.231659e-001
2.339279e+003,-1.876773e+000
2.340243e+003,-3.039462e+000
2.341207e+003,-3.752786e+000
2.342171e+003,-4.488464e+000
2.343135e+003,-5.474115e+000
2.344100e+003,-6.098242e+000
2.345064e+003,-5.832633e+000
2.346028e+003,-5.644821e+000
2.346992e+003,-6.059784e+000
2.347957e+003,-6.324121e+000
2.348921e+003,-5.729059e+000
2.349885e+003,-5.240710e+000
2.350849e+003,-5.906598e+000
2.351814e+003,-6.851474e+000
2.352778e+003,-6.774506e+000
2.353742e+003,-6.190024e+000
2.354706e+003,-6.541992e+000
2.355671e+003,-7.683905e+000
2.356635e+003,-7.817029e+000
2.357599e+003,-6.469916e+000
2.358563e+003,-6.275674e+000
2.359528e+003,-7.808295e+000
2.360492e+003,-8.640042e+000
2.361456e+003,-8.356598e+000
2.362420e+003,-7.870252e+000
2.363385e+003,-7.387158e+000
2.364349e+003,-7.086008e+000
2.365313e+003,-7.082965e+000
2.366277e+003,-7.148263e+000
2.367241e+003,-7.093244e+000
2.368206e+003,-6.807037e+000
2.369170e+003,-5.980411e+000
2.370134e+003,-5.090177e+000
2.371098e+003,-5.773993e+000
2.372063e+003,-7.568631e+000
2.373027e+003,-8.544559e+000
2.373991e+003,-8.834280e+000
2.374955e+003,-9.136456e+000
2.375919e+003,-9.469724e+000
2.376884e+003,-9.603986e+000
2.377848e+003,-9.460373e+000
2.378812e+003,-8.729129e+000
2.379776e+003,-7.495117e+000
2.380741e+003,-7.085666e+000
2.381705e+003,-8.273526e+000
2.382669e+003,-9.108502e+000
2.383633e+003,-7.818124e+000
2.384598e+003,-6.167627e+000
2.385562e+003,-5.337155e+000
2.386526e+003,-5.033923e+000
2.387490e+003,-5.475525e+000
2.388455e+003,-5.786890e+000
2.389419e+003,-4.484872e+000
2.390383e+003,-3.055762e+000
2.391347e+003,-3.978220e+000
2.392312e+003,-6.249643e+000
2.393276e+003,-7.220926e+000
2.394240e+003,-6.810452e+000
2.395204e+003,-6.713367e+000
2.396168e+003,-7.315921e+000
2.397133e+003,-7.139709e+000
2.398097e+003,-5.368731e+000
2.399061e+003,-4.290097e+000
2.400025e+003,-4.231977e+000
2.400990e+003,-4.426816e+000
2.401954e+003,-4.839090e+000
2.402918e+003,-5.137103e+000
2.403882e+003,-5.190729e+000
2.404846e+003,-4.988523e+000
2.405811e+003,-4.473465e+000
2.406775e+003,-3.799371e+000
2.407739e+003,-3.163077e+000
2.408703e+003,-2.732294e+000
2.409668e+003,-3.107556e+000
2.410632e+003,-4.008399e+000
2.411596e+003,-3.769858e+000
2.412560e+003,-2.804547e+000
2.413525e+003,-2.814484e+000
2.414489e+003,-3.794772e+000
2.415453e+003,-5.704645e+000
2.416417e+003,-7.957446e+000
2.417382e+003,-8.529795e+000
2.418346e+003,-7.173920e+000
2.419310e+003,-5.695883e+000
2.420274e+003,-4.916153e+000
2.421239e+003,-4.277795e+000
2.422203e+003,-3.304001e+000
2.423167e+003,-2.798807e+000
2.424131e+003,-3.832260e+000
2.425095e+003,-4.853808e+000
2.426060e+003,-4.472815e+000
2.427024e+003,-4.135956e+000
2.427988e+003,-5.678815e+000
2.428952e+003,-7.107263e+000
2.429917e+003,-5.893106e+000
2.430881e+003,-3.566901e+000
2.431845e+003,-2.465097e+000
2.432809e+003,-2.501010e+000
2.433773e+003,-3.082898e+000
2.434738e+003,-4.172836e+000
2.435702e+003,-3.902246e+000
2.436666e+003,-1.778317e+000
2.437630e+003,1.253754e-001
2.438595e+003,2.141818e+000
2.439559e+003,2.028949e+000
2.440523e+003,-9.324676e-001
2.441487e+003,-2.477313e+000
2.442452e+003,-1.319418e+000
2.443416e+003,6.284515e-001
2.444380e+003,2.398441e+000
2.445344e+003,3.309561e+000
2.446309e+003,2.768201e+000
2.447273e+003,1.746533e+000
2.448237e+003,1.299243e+000
2.449201e+003,1.586105e+000
2.450166e+003,3.916803e+000
2.451130e+003,6.351465e+000
2.452094e+003,4.983405e+000
2.453058e+003,2.066596e+000
2.454022e+003,1.216394e+000
2.454987e+003,1.633896e+000
2.455951e+003,1.131021e+000
2.456915e+003,8.032532e-002
2.457879e+003,4.473053e-001
2.458844e+003,2.198343e+000
2.459808e+003,3.050455e+000
2.460772e+003,2.332397e+000
2.461736e+003,1.912326e+000
2.462700e+003,2.370291e+000
2.463665e+003,2.744153e+000
2.464629e+003,2.659131e+000
2.465593e+003,3.161435e+000
2.466557e+003,5.093735e+000
2.467522e+003,6.119748e+000
2.468486e+003,4.948688e+000
2.469450e+003,3.622684e+000
2.470414e+003,3.571143e+000
2.471379e+003,4.126944e+000
2.472343e+003,4.482864e+000
2.473307e+003,4.865140e+000
2.474271e+003,5.913779e+000
2.475236e+003,7.223474e+000
2.476200e+003,7.334546e+000
2.477164e+003,6.648102e+000
2.478128e+003,6.326965e+000
2.479093e+003,6.267960e+000
2.480057e+003,5.990735e+000
2.481021e+003,5.558444e+000
2.481985e+003,5.279807e+000
2.482949e+003,5.240851e+000
2.483914e+003,5.456030e+000
2.484878e+003,5.882108e+000
2.485842e+003,6.279864e+000
2.486806e+003,6.567358e+000
2.487771e+003,6.859134e+000
2.488735e+003,7.063104e+000
2.489699e+003,7.503235e+000
2.490663e+003,8.644491e+000
2.491627e+003,9.401645e+000
2.492592e+003,9.201696e+000
2.493556e+003,8.890732e+000
2.494520e+003,8.640345e+000
2.495484e+003,8.914347e+000
2.496449e+003,1.024991e+001
2.497413e+003,1.189171e+001
2.498377e+003,1.283842e+001
2.499341e+003,1.308900e+001
2.500306e+003,1.248637e+001
2.501270e+003,1.126547e+001
2.502234e+003,1.040476e+001
2.503198e+003,9.856458e+000
2.504163e+003,9.377914e+000
2.505127e+003,9.065979e+000
2.506091e+003,9.351062e+000
2.507055e+003,1.015634e+001
2.508020e+003,1.121183e+001
2.508984e+003,1.237502e+001
2.509948e+003,1.349153e+001
2.510912e+003,1.445608e+001
2.511876e+003,1.489122e+001
2.512841e+003,1.449347e+001
2.513805e+003,1.427021e+001
2.514769e+003,1.428995e+001
2.515733e+003,1.491031e+001
2.516698e+003,1.649149e+001
2.517662e+003,1.828724e+001
2.518626e+003,2.071249e+001
2.519590e+003,2.225723e+001
2.520554e+003,2.172878e+001
2.521519e+003,2.095923e+001
2.522483e+003,2.151841e+001
2.523447e+003,2.268656e+001
2.524411e+003,2.344050e+001
2.525376e+003,2.412282e+001
2.526340e+003,2.571355e+001
2.527304e+003,2.772249e+001
2.528268e+003,2.831782e+001
2.529233e+003,2.833392e+001
2.530197e+003,2.976886e+001
2.531161e+003,3.228040e+001
2.532125e+003,3.504077e+001
2.533090e+003,3.773854e+001
2.534054e+003,4.042730e+001
2.535018e+003,4.279494e+001
2.535982e+003,4.355799e+001
2.536947e+003,4.252655e+001
2.537911e+003,4.180351e+001
2.538875e+003,4.152664e+001
2.539839e+003,4.264627e+001
2.540803e+003,4.686364e+001
2.541768e+003,4.961059e+001
2.542732e+003,4.976231e+001
2.543696e+003,5.023917e+001
2.544660e+003,5.206590e+001
2.545625e+003,5.348695e+001
2.546589e+003,5.359560e+001
2.547553e+003,5.399861e+001
2.548517e+003,5.593629e+001
2.549482e+003,5.757586e+001
2.550446e+003,5.669130e+001
2.551410e+003,5.486749e+001
2.552374e+003,5.412435e+001
2.553339e+003,5.438984e+001
2.554303e+003,5.685342e+001
2.555267e+003,5.910051e+001
2.556231e+003,5.700924e+001
2.557196e+003,5.353942e+001
2.558160e+003,5.355400e+001
2.559124e+003,5.480371e+001
2.560088e+003,5.240067e+001
2.561052e+003,4.730553e+001
2.562017e+003,4.368517e+001
2.562981e+003,4.178782e+001
2.563945e+003,4.167469e+001
2.564909e+003,4.414174e+001
2.565874e+003,4.355667e+001
2.566838e+003,3.932551e+001
2.567802e+003,3.739899e+001
2.568766e+003,3.829512e+001
2.569730e+003,3.778167e+001
2.570695e+003,3.517117e+001
2.571659e+003,3.338329e+001
2.572623e+003,3.323140e+001
2.573587e+003,3.263641e+001
2.574552e+003,3.058858e+001
2.575516e+003,2.841893e+001
2.576480e+003,2.701427e+001
2.577444e+003,2.583762e+001
2.578409e+003,2.421154e+001
2.579373e+003,2.291683e+001
2.580337e+003,2.309237e+001
2.581301e+003,2.295838e+001
2.582266e+003,2.106385e+001
2.583230e+003,1.908864e+001
2.584194e+003,1.833453e+001
2.585158e+003,1.763619e+001
2.586123e+003,1.569777e+001
2.587087e+003,1.359036e+001
2.588051e+003,1.316606e+001
2.589015e+003,1.381770e+001
2.589979e+003,1.368657e+001
2.590944e+003,1.296737e+001
2.591908e+003,1.251492e+001
2.592872e+003,1.210216e+001
2.593836e+003,1.092746e+001
2.594801e+003,9.482556e+000
2.595765e+003,9.011258e+000
2.596729e+003,9.181482e+000
2.597693e+003,8.777206e+000
2.598657e+003,7.865454e+000
2.599622e+003,7.731363e+000
2.600586e+003,8.552936e+000
2.601550e+003,8.033081e+000
2.602514e+003,4.858752e+000
2.603479e+003,3.267337e+000
2.604443e+003,3.861685e+000
2.605407e+003,4.324188e+000
2.606371e+003,4.583328e+000
2.607336e+003,3.911771e+000
2.608300e+003,2.117654e+000
2.609264e+003,1.303003e+000
2.610228e+003,2.167886e+000
2.611193e+003,3.061401e+000
2.612157e+003,3.039352e+000
2.613121e+003,2.871918e+000
2.614085e+003,3.212967e+000
2.615050e+003,3.336533e+000
2.616014e+003,2.465118e+000
2.616978e+003,1.375024e+000
2.617942e+003,3.972076e-001
2.618906e+003,-3.564880e-001
2.619871e+003,-6.069183e-001
2.620835e+003,-9.070862e-001
2.621799e+003,-2.133813e+000
2.622763e+003,-2.928687e+000
2.623728e+003,-1.829919e+000
2.624692e+003,1.000519e-001
2.625656e+003,1.258139e+000
2.626620e+003,1.660724e+000
2.627584e+003,1.091705e+000
2.628549e+003,-2.858887e-002
2.629513e+003,2.604675e-002
2.630477e+003,4.542664e-001
2.631441e+003,-1.090454e+000
2.632406e+003,-3.287057e+000
2.633370e+003,-3.156613e+000
2.634334e+003,-1.628387e+000
2.635298e+003,-1.282394e+000
2.636263e+003,-1.915305e+000
2.637227e+003,-1.616830e+000
2.638191e+003,-1.950684e-001
2.639155e+003,9.930786e-001
2.640120e+003,1.977402e+000
2.641084e+003,2.172095e+000
2.642048e+003,1.334009e+000
2.643012e+003,1.131348e+000
2.643977e+003,1.695187e+000
2.644941e+003,1.282233e+000
2.645905e+003,-1.938782e-001
2.646869e+003,-8.112946e-001
2.647833e+003,-2.284668e-001
2.648798e+003,2.601624e-002
2.649762e+003,-6.011597e-001
2.650726e+003,-9.463867e-001
2.651690e+003,-2.759277e-001
2.652655e+003,-6.340637e-002
2.653619e+003,-1.683414e+000
2.654583e+003,-2.695639e+000
2.655547e+003,-2.181168e+000
2.656511e+003,-1.249683e+000
2.657476e+003,1.306183e-001
2.658440e+003,1.012552e+000
2.659404e+003,1.007547e+000
2.660368e+003,3.667877e-001
2.661333e+003,-7.655182e-001
2.662297e+003,-1.922311e+000
2.663261e+003,-2.690640e+000
2.664225e+003,-3.133447e+000
2.665190e+003,-3.293664e+000
2.666154e+003,-3.203207e+000
2.667118e+003,-2.958930e+000
2.668082e+003,-2.373459e+000
2.669047e+003,-4.820007e-001
2.670011e+003,9.144195e-001
2.670975e+003,-6.201264e-001
2.671939e+003,-2.742380e+000
2.672904e+003,-2.725580e+000
2.673868e+003,-1.676843e+000
2.674832e+003,-1.029968e+000
2.675796e+003,-8.370484e-001
2.676760e+003,-1.283383e+000
2.677725e+003,-2.226553e+000
2.678689e+003,-3.316666e+000
2.679653e+003,-4.250012e+000
2.680617e+003,-4.027335e+000
2.681582e+003,-3.070160e+000
2.682546e+003,-1.793344e+000
2.683510e+003,-7.636078e-001
2.684474e+003,-1.269958e+000
2.685438e+003,-2.644046e+000
2.686403e+003,-2.986487e+000
2.687367e+003,-2.228897e+000
2.688331e+003,-1.432211e+000
2.689295e+003,-6.086761e-001
2.690260e+003,-1.790192e-001
2.691224e+003,-1.864929e-001
2.692188e+003,-4.088135e-001
2.693152e+003,-8.266357e-001
2.694117e+003,-3.731567e-001
2.695081e+003,6.363525e-001
2.696045e+003,-4.274292e-001
2.697009e+003,-3.266898e+000
2.697974e+003,-4.757797e+000
2.698938e+003,-4.176630e+000
2.699902e+003,-2.935260e+000
2.700866e+003,-1.443402e+000
2.701831e+003,-3.142242e-001
2.702795e+003,3.783264e-001
2.703759e+003,4.062103e-001
2.704723e+003,-6.083954e-001
2.705688e+003,-1.044235e+000
2.706652e+003,-6.084198e-001
2.707616e+003,-4.468659e-001
2.708580e+003,-8.338989e-001
2.709544e+003,-1.458423e+000
2.710509e+003,-2.145410e+000
2.711473e+003,-2.625049e+000
2.712437e+003,-2.756979e+000
2.713401e+003,-2.340085e+000
2.714365e+003,-8.347229e-001
2.715330e+003,1.897492e-001
2.716294e+003,-4.241943e-001
2.717258e+003,-1.143036e+000
2.718222e+003,-1.325446e+000
2.719187e+003,-1.739691e+000
2.720151e+003,-2.901373e+000
2.721115e+003,-3.458340e+000
2.722079e+003,-2.681049e+000
2.723044e+003,-1.749908e+000
2.724008e+003,-1.544278e+000
2.724972e+003,-1.493662e+000
2.725936e+003,-9.844635e-001
2.726901e+003,-4.482513e-001
2.727865e+003,-3.380798e-001
2.728829e+003,-4.298706e-001
2.729793e+003,-6.437591e-001
2.730758e+003,-8.779541e-001
2.731722e+003,-1.345749e+000
2.732686e+003,-1.448596e+000
2.733650e+003,-4.490021e-001
2.734615e+003,5.245331e-001
2.735579e+003,5.839996e-001
2.736543e+003,-2.167206e-001
2.737507e+003,-1.996374e+000
2.738471e+003,-3.694971e+000
2.739436e+003,-3.042828e+000
2.740400e+003,-1.273126e+000
2.741364e+003,3.042908e-002
2.742328e+003,7.110291e-001
2.743292e+003,8.788147e-002
2.744257e+003,-7.508118e-001
2.745221e+003,-5.550659e-001
2.746185e+003,5.297241e-002
2.747149e+003,4.375305e-001
2.748114e+003,3.365540e-001
2.749078e+003,-8.151703e-001
2.750042e+003,-2.338782e+000
2.751006e+003,-2.363293e+000
2.751971e+003,-1.384198e+000
2.752935e+003,-8.707581e-001
2.753899e+003,-8.238220e-001
2.754863e+003,-1.630939e+000
2.755828e+003,-2.578351e+000
2.756792e+003,-2.520471e+000
2.757756e+003,-1.851703e+000
2.758720e+003,-1.083774e+000
2.759685e+003,-4.547333e-001
2.760649e+003,-2.577301e-001
2.761613e+003,-4.715759e-001
2.762577e+003,-1.243860e+000
2.763542e+003,-2.386624e+000
2.764506e+003,-1.927649e+000
2.765470e+003,-4.176514e-001
2.766434e+003,-1.329236e+000
2.767398e+003,-3.447910e+000
2.768363e+003,-3.051208e+000
2.769327e+003,-1.384415e+000
2.770291e+003,-1.897928e+000
2.771255e+003,-3.761624e+000
2.772219e+003,-3.924838e+000
2.773184e+003,-2.538443e+000
2.774148e+003,-2.233682e+000
2.775112e+003,-2.960617e+000
2.776076e+003,-2.717484e+000
2.777041e+003,-1.468835e+000
2.778005e+003,-1.982654e+000
2.778969e+003,-3.718817e+000
2.779933e+003,-3.420783e+000
2.780898e+003,-1.728256e+000
2.781862e+003,-1.138928e+000
2.782826e+003,-1.668069e+000
2.783790e+003,-2.500674e+000
2.784755e+003,-3.245019e+000
2.785719e+003,-3.065729e+000
2.786683e+003,-1.864462e+000
2.787647e+003,-1.444806e+000
2.788612e+003,-1.942105e+000
2.789576e+003,-2.303226e+000
2.790540e+003,-2.512280e+000
2.791504e+003,-2.149170e+000
2.792469e+003,-1.424643e+000
2.793433e+003,-1.719452e+000
2.794397e+003,-2.676160e+000
2.795361e+003,-2.208423e+000
2.796325e+003,-6.255646e-001
2.797290e+003,-6.779450e-001
2.798254e+003,-2.736224e+000
2.799218e+003,-3.940639e+000
2.800182e+003,-3.993434e+000
2.801146e+003,-3.591635e+000
2.802111e+003,-2.675067e+000
2.803075e+003,-1.508423e+000
2.804039e+003,-2.073731e-001
2.805003e+003,5.776275e-001
2.805968e+003,8.202026e-001
2.806932e+003,1.123291e+000
2.807896e+003,1.410904e+000
2.808860e+003,4.655121e-001
2.809825e+003,-1.663388e+000
2.810789e+003,-2.373337e+000
2.811753e+003,-8.532623e-001
2.812717e+003,-1.107635e-001
2.813682e+003,-4.059906e-001
2.814646e+003,-1.823059e-001
2.815610e+003,5.779999e-001
2.816574e+003,7.867950e-001
2.817539e+003,4.109924e-001
2.818503e+003,-1.669525e-001
2.819467e+003,-7.621826e-001
2.820431e+003,-1.023575e+000
2.821396e+003,-9.255890e-001
2.822360e+003,-9.379944e-001
2.823324e+003,-1.195276e+000
2.824288e+003,-1.258224e+000
2.825252e+003,-9.928375e-001
2.826217e+003,-1.189484e+000
2.827181e+003,-1.867410e+000
2.828145e+003,-1.241055e+000
2.829109e+003,4.104004e-001
2.830073e+003,5.781921e-001
2.831038e+003,-7.247803e-001
2.832002e+003,-2.077033e+000
2.832966e+003,-2.914317e+000
2.833930e+003,-2.568286e+000
2.834895e+003,-9.041443e-001
2.835859e+003,3.364746e-001
2.836823e+003,1.052466e+000
2.837787e+003,1.030731e+000
2.838752e+003,2.050751e-001
2.839716e+003,1.528198e-001
2.840680e+003,7.766815e-001
2.841644e+003,5.725158e-001
2.842609e+003,-3.038727e-001
2.843573e+003,-3.875305e-001
2.844537e+003,3.477356e-001
2.845501e+003,7.480713e-001
2.846466e+003,5.885468e-001
2.847430e+003,5.932190e-001
2.848394e+003,8.925629e-001
2.849358e+003,7.372802e-001
2.850323e+003,9.266052e-002
2.851287e+003,1.604095e-001
2.852251e+003,7.361786e-001
2.853215e+003,-1.816071e-001
2.854179e+003,-1.897296e+000
2.855144e+003,-1.021051e+000
2.856108e+003,1.647324e+000
2.857072e+003,1.729266e+000
2.858036e+003,-9.983338e-001
2.859000e+003,-2.382104e+000
2.859965e+003,-2.141446e+000
2.860929e+003,-1.711252e+000
2.861893e+003,-1.105749e+000
2.862857e+003,-7.616516e-001
2.863822e+003,-5.740997e-001
2.864786e+003,-1.595093e-001
2.865750e+003,4.663422e-001
2.866714e+003,1.407278e+000
2.867679e+003,2.281873e+000
2.868643e+003,2.187488e+000
2.869607e+003,1.253552e+000
2.870571e+003,3.294678e-001
2.871536e+003,-4.558044e-001
2.872500e+003,-5.864868e-002
2.873464e+003,1.369260e+000
2.874428e+003,8.814392e-002
2.875393e+003,-2.759433e+000
2.876357e+003,-3.067479e+000
2.877321e+003,-1.766119e+000
2.878285e+003,-1.320465e+000
2.879250e+003,-1.492609e+000
2.880214e+003,-1.307367e+000
2.881178e+003,-6.114258e-001
2.882142e+003,8.602600e-001
2.883106e+003,2.599423e+000
2.884071e+003,2.424286e+000
2.885035e+003,8.204559e-001
2.885999e+003,3.470245e-001
2.886963e+003,6.180267e-001
2.887927e+003,8.569031e-001
2.888892e+003,1.116248e+000
2.889856e+003,1.584116e+000
2.890820e+003,2.121161e+000
2.891784e+003,2.537936e+000
2.892749e+003,2.837405e+000
2.893713e+003,3.231930e+000
2.894677e+003,3.259451e+000
2.895641e+003,1.520810e+000
2.896606e+003,-8.746521e-001
2.897570e+003,-5.834625e-001
2.898534e+003,9.524231e-001
2.899498e+003,1.923840e+000
2.900463e+003,2.151462e+000
2.901427e+003,9.725922e-001
2.902391e+003,-4.063690e-001
2.903355e+003,-7.763001e-001
2.904320e+003,-6.005066e-001
2.905284e+003,-3.030914e-001
2.906248e+003,1.007019e-001
2.907212e+003,6.934906e-001
2.908177e+003,1.145099e+000
2.909141e+003,5.813812e-001
2.910105e+003,-6.921081e-002
2.911069e+003,1.992523e-001
2.912033e+003,7.825653e-001
2.912998e+003,1.757327e+000
2.913962e+003,2.073520e+000
2.914926e+003,8.210236e-001
2.915890e+003,-2.730164e-001
2.916854e+003,8.793335e-002
2.917819e+003,7.238434e-001
2.918783e+003,4.590332e-001
2.919747e+003,-1.761627e-001
2.920711e+003,-1.162320e+000
2.921676e+003,-1.476650e+000
2.922640e+003,3.013031e-001
2.923604e+003,1.702350e+000
2.924568e+003,1.618707e+000
2.925533e+003,1.381491e+000
2.926497e+003,1.420883e+000
2.927461e+003,1.648383e+000
2.928425e+003,2.075882e+000
2.929390e+003,-1.357471e+000
2.930354e+003,-1.253738e+001
2.931318e+003,-1.868096e+001
2.932282e+003,-6.416438e+000
2.933247e+003,2.474594e+000
2.934211e+003,2.047424e-001
2.935175e+003,-1.235010e+000
2.936139e+003,-7.668533e-001
2.937104e+003,-6.093994e-001
2.938068e+003,-1.141092e+000
2.939032e+003,-7.910935e-001
2.939996e+003,7.116272e-001
2.940960e+003,1.585489e+000
2.941925e+003,1.131708e+000
2.942889e+003,3.978638e-001
2.943853e+003,-4.454178e-001
2.944817e+003,-9.873840e-001
2.945781e+003,-1.239583e+000
2.946746e+003,-1.030174e+000
2.947710e+003,-4.040176e-001
2.948674e+003,2.154572e-001
2.949638e+003,7.739655e-001
2.950603e+003,1.457187e+000
2.951567e+003,2.138770e+000
2.952531e+003,2.046365e+000
2.953495e+003,1.232056e+000
2.954460e+003,1.897223e+000
2.955424e+003,4.101114e+000
2.956388e+003,2.761310e+000
2.957352e+003,-1.443463e+000
2.958317e+003,-1.241982e+000
2.959281e+003,1.738126e+000
2.960245e+003,2.945303e+000
2.961209e+003,2.519342e+000
2.962174e+003,9.103149e-001
2.963138e+003,-7.420257e-001
2.964102e+003,1.012192e-001
2.965066e+003,2.089343e+000
2.966031e+003,2.107288e+000
2.966995e+003,8.364075e-001
2.967959e+003,1.123138e-001
2.968923e+003,4.052582e-002
2.969887e+003,1.560361e+000
2.970852e+003,3.124478e+000
2.971816e+003,2.605765e+000
2.972780e+003,1.412369e+000
2.973744e+003,7.083130e-001
2.974708e+003,7.008316e-001
2.975673e+003,1.719037e+000
2.976637e+003,2.743979e+000
2.977601e+003,2.547696e+000
2.978565e+003,1.745398e+000
2.979530e+003,8.223160e-001
2.980494e+003,2.019302e-001
2.981458e+003,5.260712e-001
2.982422e+003,8.344940e-001
2.983387e+003,5.604584e-001
2.984351e+003,2.526642e-001
2.985315e+003,9.649048e-002
2.986279e+003,6.347199e-002
2.987244e+003,1.468918e-001
2.988208e+003,7.469482e-001
2.989172e+003,2.180099e+000
2.990136e+003,2.927844e+000
2.991101e+003,1.268910e+000
2.992065e+003,6.996582e-001
2.993029e+003,2.699838e+000
2.993993e+003,3.535233e+000
2.994958e+003,2.772003e+000
2.995922e+003,1.029225e+000
2.996886e+003,-1.149373e+000
2.997850e+003,-1.501884e+000
2.998814e+003,1.447693e-001
2.999779e+003,1.514948e+000
3.000743e+003,1.957101e+000
3.001707e+003,2.263507e+000
3.002671e+003,2.605911e+000
3.003635e+003,2.041580e+000
3.004600e+003,7.019302e-001
3.005564e+003,1.493739e+000
3.006528e+003,3.466098e+000
3.007492e+003,2.868588e+000
3.008457e+003,8.725907e-001
3.009421e+003,9.146225e-001
3.010385e+003,2.481592e+000
3.011349e+003,3.407706e+000
3.012314e+003,3.501248e+000
3.013278e+003,2.147748e+000
3.014242e+003,3.195343e-002
3.015206e+003,-7.542053e-001
3.016171e+003,-5.301346e-001
3.017135e+003,8.800446e-001
3.018099e+003,2.223544e+000
3.019063e+003,1.935619e+000
3.020028e+003,1.246884e+000
3.020992e+003,1.242802e+000
3.021956e+003,1.331825e+000
3.022920e+003,9.888840e-001
3.023885e+003,4.976776e-001
3.024849e+003,1.506134e-001
3.025813e+003,-6.294098e-002
3.026777e+003,1.381714e-001
3.027741e+003,8.415222e-003
3.028706e+003,-1.769397e+000
3.029670e+003,-2.013458e+000
3.030634e+003,4.972168e-001
3.031598e+003,1.574101e+000
3.032563e+003,-3.084564e-002
3.033527e+003,-9.229233e-001
3.034491e+003,2.468018e-001
3.035455e+003,9.380738e-001
3.036420e+003,-1.502594e-001
3.037384e+003,-3.922562e-001
3.038348e+003,1.354494e+000
3.039312e+003,1.475365e+000
3.040277e+003,-6.714325e-002
3.041241e+003,-1.820480e-001
3.042205e+003,9.950867e-001
3.043169e+003,1.966873e+000
3.044134e+003,2.215901e+000
3.045098e+003,5.936661e-001
3.046062e+003,-2.085388e+000
3.047026e+003,-1.864101e+000
3.047990e+003,5.878998e-001
3.048955e+003,1.579697e+000
3.049919e+003,1.296996e+000
3.050883e+003,-9.640350e-002
3.051847e+003,-1.602123e+000
3.052812e+003,-1.347539e+000
3.053776e+003,-3.486069e-001
3.054740e+003,1.129578e-001
3.055704e+003,5.893829e-001
3.056668e+003,1.891661e+000
3.057633e+003,2.746304e+000
3.058597e+003,1.641679e+000
3.059561e+003,5.727997e-002
3.060525e+003,-2.457733e-001
3.061490e+003,-1.525116e-002
3.062454e+003,3.243912e-001
3.063418e+003,8.444351e-001
3.064382e+003,1.728746e+000
3.065347e+003,2.233659e+000
3.066311e+003,2.156867e+000
3.067275e+003,2.086937e+000
3.068239e+003,2.257251e+000
3.069204e+003,2.510792e+000
3.070168e+003,2.751541e+000
3.071132e+003,2.430130e+000
3.072096e+003,8.409073e-001
3.073061e+003,4.706207e-001
3.074025e+003,1.451324e+000
3.074989e+003,2.775269e+000
3.075953e+003,4.036349e+000
3.076917e+003,3.415823e+000
3.077882e+003,1.670744e+000
3.078846e+003,1.424857e+000
3.079810e+003,2.352824e+000
3.080774e+003,2.129198e+000
3.081739e+003,1.144629e+000
3.082703e+003,8.210632e-001
3.083667e+003,9.820755e-001
3.084631e+003,1.186832e+000
3.085595e+003,1.385045e+000
3.086560e+003,1.677736e+000
3.087524e+003,1.738176e+000
3.088488e+003,1.410138e+000
3.089452e+003,2.080002e-001
3.090417e+003,-2.582210e+000
3.091381e+003,-4.276880e+000
3.092345e+003,-2.735878e+000
3.093309e+003,-5.471542e-001
3.094274e+003,-1.741028e-002
3.095238e+003,1.910599e-001
3.096202e+003,8.160568e-001
3.097166e+003,1.577225e+000
3.098131e+003,2.683356e+000
3.099095e+003,2.589420e+000
3.100059e+003,1.128517e+000
3.101023e+003,-5.309906e-002
3.101988e+003,-4.170013e-001
3.102952e+003,6.161301e-001
3.103916e+003,2.815331e+000
3.104880e+003,2.759871e+000
3.105844e+003,3.909760e-002
3.106809e+003,-1.290637e+000
3.107773e+003,-1.329059e+000
3.108737e+003,-1.038144e+000
3.109701e+003,-6.429154e-001
3.110666e+003,-4.602386e-001
3.111630e+003,-5.370423e-001
3.112594e+003,-1.374086e+000
3.113558e+003,-1.949998e+000
3.114522e+003,-9.010025e-001
3.115487e+003,7.204590e-001
3.116451e+003,1.518762e+000
3.117415e+003,1.650571e+000
3.118379e+003,9.758850e-001
3.119344e+003,2.642151e-001
3.120308e+003,1.760757e-001
3.121272e+003,4.817505e-002
3.122236e+003,-3.972015e-001
3.123201e+003,-7.771713e-001
3.124165e+003,-9.533966e-001
3.125129e+003,-2.530228e-001
3.126093e+003,1.398682e+000
3.127058e+003,2.032681e+000
3.128022e+003,6.664749e-001
3.128986e+003,-3.162598e-001
3.129950e+003,-6.751602e-001
3.130915e+003,2.004837e-001
3.131879e+003,2.066954e+000
3.132843e+003,2.063327e+000
3.133807e+003,7.345306e-001
3.134771e+003,-1.291214e-001
3.135736e+003,-3.082184e-001
3.136700e+003,5.529785e-001
3.137664e+003,1.516055e+000
3.138628e+003,7.812225e-001
3.139593e+003,-8.077224e-001
3.140557e+003,-1.541164e+000
3.141521e+003,-1.567873e+000
3.142485e+003,-6.898178e-001
3.143449e+003,2.376022e-001
3.144414e+003,9.325455e-001
3.145378e+003,5.873672e-001
3.146342e+003,-1.458403e+000
3.147306e+003,-2.036978e+000
3.148271e+003,2.223099e-001
3.149235e+003,1.759293e+000
3.150199e+003,5.325760e-001
3.151163e+003,-6.243957e-001
3.152128e+003,-2.389267e-001
3.153092e+003,-3.620178e-001
3.154056e+003,-1.196436e+000
3.155020e+003,-8.281082e-001
3.155985e+003,4.645126e-001
3.156949e+003,8.893326e-001
3.157913e+003,5.137711e-001
3.158877e+003,-1.563919e-001
3.159842e+003,-6.476059e-001
3.160806e+003,6.297608e-002
3.161770e+003,1.341393e+000
3.162734e+003,1.499461e+000
3.163698e+003,9.523315e-001
3.164663e+003,3.737137e-001
3.165627e+003,-1.731598e-001
3.166591e+003,-5.220413e-001
3.167555e+003,-9.880661e-001
3.168520e+003,-2.088385e+000
3.169484e+003,-2.069936e+000
3.170448e+003,-1.031052e-001
3.171412e+003,1.679123e+000
3.172376e+003,2.022293e+000
3.173341e+003,1.673581e+000
3.174305e+003,5.620407e-001
3.175269e+003,3.851883e-001
3.176233e+003,1.637505e+000
3.177198e+003,1.279248e+000
3.178162e+003,-5.261017e-001
3.179126e+003,-1.690388e+000
3.180090e+003,-2.004344e+000
3.181055e+003,-1.709694e+000
3.182019e+003,-9.792969e-001
3.182983e+003,1.219086e-001
3.183947e+003,1.133632e+000
3.184912e+003,8.945816e-001
3.185876e+003,3.361969e-002
3.186840e+003,8.873291e-002
3.187804e+003,1.306244e-001
3.188769e+003,-1.350143e+000
3.189733e+003,-2.354213e+000
3.190697e+003,-1.477327e+000
3.191661e+003,-1.197025e+000
3.192625e+003,-2.526839e+000
3.193590e+003,-2.893939e+000
3.194554e+003,-1.025906e+000
3.195518e+003,4.813034e-001
3.196482e+003,2.161270e-001
3.197447e+003,3.287094e-001
3.198411e+003,1.154698e+000
3.199375e+003,1.026811e+000
3.200339e+003,2.094955e-001
3.201303e+003,7.583847e-001
3.202268e+003,2.006761e+000
3.203232e+003,2.013905e+000
3.204196e+003,9.905701e-001
3.205160e+003,-2.603332e-001
3.206125e+003,-1.201718e+000
3.207089e+003,-8.302353e-001
3.208053e+003,2.323975e-001
3.209017e+003,1.334349e+000
3.209982e+003,1.987776e+000
3.210946e+003,1.198842e+000
3.211910e+003,9.157761e-001
3.212874e+003,2.013538e+000
3.213839e+003,2.634888e+000
3.214803e+003,2.164874e+000
3.215767e+003,1.010448e+000
3.216731e+003,-5.212158e-001
3.217696e+003,-1.422325e+000
3.218660e+003,-1.320280e+000
3.219624e+003,-3.594818e-001
3.220588e+003,1.483867e+000
3.221552e+003,1.328539e+000
3.222517e+003,-3.362884e-002
3.223481e+003,-2.158081e-001
3.224445e+003,2.447083e-001
3.225409e+003,1.661194e-001
3.226374e+003,-4.936523e-002
3.227338e+003,1.393539e-001
3.228302e+003,5.631256e-001
3.229266e+003,1.104219e+000
3.230230e+003,1.367894e+000
3.231195e+003,8.511642e-001
3.232159e+003,7.654572e-002
3.233123e+003,-1.052418e+000
3.234087e+003,-1.659836e+000
3.235052e+003,-1.605537e+000
3.236016e+003,-1.638651e+000
3.236980e+003,-1.879688e+000
3.237944e+003,-1.973370e+000
3.238909e+003,-1.806973e+000
3.239873e+003,-1.241650e+000
3.240837e+003,-3.964996e-001
3.241801e+003,-4.675598e-002
3.242766e+003,-1.031296e-001
3.243730e+003,-2.003876e-001
3.244694e+003,-4.503357e-001
3.245658e+003,-1.522708e+000
3.246623e+003,-2.116478e+000
3.247587e+003,-7.411591e-001
3.248551e+003,-6.184082e-002
3.249515e+003,-1.826779e+000
3.250479e+003,-2.911542e+000
3.251444e+003,-8.066330e-001
3.252408e+003,1.138268e+000
3.253372e+003,1.096687e+000
3.254336e+003,4.799377e-001
3.255301e+003,-6.726242e-001
3.256265e+003,-1.088388e+000
3.257229e+003,-9.111313e-001
3.258193e+003,-1.417648e+000
3.259157e+003,-2.300758e+000
3.260122e+003,-2.113196e+000
3.261086e+003,-1.263063e+000
3.262050e+003,-8.518463e-001
3.263014e+003,-9.262497e-001
3.263979e+003,-1.993976e+000
3.264943e+003,-3.067865e+000
3.265907e+003,-2.934239e+000
3.266871e+003,-2.328618e+000
3.267836e+003,-1.670070e+000
3.268800e+003,-4.851517e-001
3.269764e+003,1.347801e+000
3.270728e+003,2.051448e+000
3.271693e+003,1.068602e+000
3.272657e+003,-5.567169e-001
3.273621e+003,-2.522469e+000
3.274585e+003,-2.647264e+000
3.275550e+003,-8.012344e-001
3.276514e+003,1.682831e-001
3.277478e+003,4.419113e-001
3.278442e+003,3.342789e-001
3.279406e+003,3.548431e-002
3.280371e+003,-5.100967e-001
3.281335e+003,-6.854569e-001
3.282299e+003,1.231842e-001
3.283263e+003,8.195984e-001
3.284228e+003,3.375351e-001
3.285192e+003,-3.036972e-001
3.286156e+003,-1.281708e-001
3.287120e+003,-1.835297e-001
3.288084e+003,-8.963028e-001
3.289049e+003,-1.058467e+000
3.290013e+003,-6.420822e-001
3.290977e+003,-5.569214e-001
3.291941e+003,-7.547439e-001
3.292906e+003,-4.847137e-001
3.293870e+003,1.081528e-001
3.294834e+003,2.365997e-001
3.295798e+003,3.271637e-002
3.296763e+003,-3.155273e-001
3.297727e+003,-5.604935e-001
3.298691e+003,-7.417450e-002
3.299655e+003,4.676315e-001
3.300620e+003,6.669449e-001
3.301584e+003,3.677170e-001
3.302548e+003,-5.208008e-001
3.303512e+003,-8.841248e-001
3.304477e+003,-3.108917e-001
3.305441e+003,1.042969e+000
3.306405e+003,3.118199e+000
3.307369e+003,2.762108e+000
3.308333e+003,-2.664093e-001
3.309298e+003,2.378738e-001
3.310262e+003,2.719655e+000
3.311226e+003,2.331985e+000
3.312190e+003,7.611648e-001
3.313155e+003,5.630295e-001
3.314119e+003,8.925766e-001
3.315083e+003,9.572983e-001
3.316047e+003,1.082059e+000
3.317011e+003,1.522084e+000
3.317976e+003,2.295564e+000
3.318940e+003,4.176684e+000
3.319904e+003,4.167066e+000
3.320868e+003,1.098438e+000
3.321833e+003,1.351808e+000
3.322797e+003,4.414395e+000
3.323761e+003,4.009540e+000
3.324725e+003,1.170699e+000
3.325690e+003,9.573212e-001
3.326654e+003,2.551898e+000
3.327618e+003,2.861798e+000
3.328582e+003,2.404451e+000
3.329547e+003,2.042581e+000
3.330511e+003,1.785562e+000
3.331475e+003,1.530814e+000
3.332439e+003,1.582745e+000
3.333404e+003,2.287668e+000
3.334368e+003,2.490845e+000
3.335332e+003,1.964638e+000
3.336296e+003,8.070297e-001
3.337260e+003,-7.343582e-001
3.338225e+003,-1.587657e+000
3.339189e+003,-1.573724e+000
3.340153e+003,-1.874045e+000
3.341117e+003,-2.298166e+000
3.342082e+003,-1.512869e+000
3.343046e+003,-4.534760e-001
3.344010e+003,-5.091278e-001
3.344974e+003,-1.138800e+000
3.345938e+003,-2.087207e+000
3.346903e+003,-2.865727e+000
3.347867e+003,-3.244637e+000
3.348831e+003,-2.497394e+000
3.349795e+003,-1.839172e-001
3.350760e+003,9.049942e-001
3.351724e+003,-8.786499e-001
3.352688e+003,-1.332346e+000
3.353652e+003,-6.116394e-001
3.354617e+003,-3.496292e-001
3.355581e+003,-4.986633e-001
3.356545e+003,-1.011050e+000
3.357509e+003,-1.367151e+000
3.358474e+003,-7.295105e-001
3.359438e+003,-5.274002e-001
3.360402e+003,-2.278365e+000
3.361366e+003,-3.281989e+000
3.362331e+003,7.548523e-002
3.363295e+003,2.189838e+000
3.364259e+003,3.729355e-001
3.365223e+003,-1.062714e+000
3.366188e+003,-1.793613e+000
3.367152e+003,-2.092520e+000
3.368116e+003,-2.180505e+000
3.369080e+003,-2.655751e+000
3.370044e+003,-3.083601e+000
3.371009e+003,-2.172166e+000
3.371973e+003,-1.024130e+000
3.372937e+003,-2.088252e+000
3.373901e+003,-3.547623e+000
3.374865e+003,-3.087981e+000
3.375830e+003,-2.391449e+000
3.376794e+003,-1.901436e+000
3.377758e+003,-2.580736e+000
3.378722e+003,-4.344139e+000
3.379687e+003,-4.137227e+000
3.380651e+003,-1.822453e+000
3.381615e+003,-1.091548e+000
3.382579e+003,-2.037479e+000
3.383544e+003,-1.099101e+000
3.384508e+003,7.945389e-001
3.385472e+003,1.598068e-001
3.386436e+003,-1.373488e+000
3.387401e+003,-2.433074e+000
3.388365e+003,-2.510646e+000
3.389329e+003,-1.252539e+000
3.390293e+003,-8.490021e-001
3.391258e+003,-1.979836e+000
3.392222e+003,-1.731038e+000
3.393186e+003,1.098766e+000
3.394150e+003,3.148257e+000
3.395115e+003,4.025580e+000
3.396079e+003,3.136127e+000
3.397043e+003,1.361076e+000
3.398007e+003,1.235199e+000
3.398971e+003,2.367957e+000
3.399936e+003,5.090899e+000
3.400900e+003,6.981149e+000
3.401864e+003,6.554526e+000
3.402828e+003,5.723004e+000
3.403792e+003,5.806943e+000
3.404757e+003,5.693091e+000
3.405721e+003,4.371737e+000
3.406685e+003,4.135291e+000
3.407649e+003,5.028635e+000
3.408614e+003,6.577838e+000
3.409578e+003,8.276606e+000
3.410542e+003,8.703219e+000
3.411506e+003,8.650027e+000
3.412471e+003,9.234528e+000
3.413435e+003,1.074466e+001
3.414399e+003,1.359004e+001
3.415363e+003,1.633765e+001
3.416328e+003,1.775927e+001
3.417292e+003,1.809347e+001
3.418256e+003,1.702052e+001
3.419220e+003,1.658110e+001
3.420185e+003,1.673903e+001
3.421149e+003,1.521380e+001
3.422113e+003,1.313188e+001
3.423077e+003,1.468647e+001
3.424042e+003,1.809652e+001
3.425006e+003,1.980711e+001
3.425970e+003,1.960991e+001
3.426934e+003,1.578786e+001
