7.140112e+001,1.691803e+002
7.236536e+001,1.636101e+002
7.332959e+001,1.697633e+002
7.429382e+001,1.789580e+002
7.525806e+001,1.931244e+002
7.622229e+001,1.978634e+002
7.718652e+001,1.819376e+002
7.815076e+001,1.334380e+002
7.911499e+001,1.017641e+002
8.007922e+001,8.276619e+001
8.104346e+001,7.669614e+001
8.200769e+001,8.528252e+001
8.297192e+001,1.188860e+002
8.393616e+001,1.545589e+002
8.490039e+001,1.969207e+002
8.586462e+001,2.367518e+002
8.682886e+001,2.591979e+002
8.779310e+001,2.295935e+002
8.875733e+001,1.838667e+002
8.972157e+001,1.404570e+002
9.068580e+001,1.065282e+002
9.165003e+001,8.201343e+001
9.261427e+001,7.266575e+001
9.357850e+001,7.354388e+001
9.454273e+001,7.671864e+001
9.550697e+001,7.690474e+001
9.647120e+001,7.344579e+001
9.743543e+001,6.987402e+001
9.839967e+001,6.597176e+001
9.936390e+001,6.184160e+001
1.003281e+002,5.747897e+001
1.012924e+002,5.130488e+001
1.022566e+002,4.703603e+001
1.032208e+002,4.552620e+001
1.041851e+002,4.648967e+001
1.051493e+002,4.906646e+001
1.061135e+002,5.720308e+001
1.070778e+002,6.301538e+001
1.080420e+002,6.139917e+001
1.090062e+002,5.157754e+001
1.099705e+002,3.765049e+001
1.109347e+002,2.809882e+001
1.118989e+002,2.229630e+001
1.128632e+002,2.280049e+001
1.138274e+002,3.164462e+001
1.147916e+002,5.086317e+001
1.157559e+002,5.889150e+001
1.167201e+002,5.223491e+001
1.176843e+002,4.073090e+001
1.186486e+002,3.647504e+001
1.196128e+002,4.627358e+001
1.205770e+002,5.486553e+001
1.215413e+002,6.421431e+001
1.225055e+002,7.173073e+001
1.234697e+002,7.231857e+001
1.244340e+002,5.356885e+001
1.253982e+002,3.355357e+001
1.263624e+002,1.366069e+001
1.273267e+002,-3.268884e+000
1.282909e+002,-1.189536e+001
1.292551e+002,1.219513e+001
1.302194e+002,4.605166e+001
1.311836e+002,6.872307e+001
1.321478e+002,6.708165e+001
1.331121e+002,4.125105e+001
1.340763e+002,2.239213e+001
1.350405e+002,8.750952e+000
1.360048e+002,2.209570e+000
1.369690e+002,6.357129e+000
1.379332e+002,3.449102e+001
1.388975e+002,5.093734e+001
1.398617e+002,5.141160e+001
1.408259e+002,4.204902e+001
1.417902e+002,3.249284e+001
1.427544e+002,2.546693e+001
1.437186e+002,2.008402e+001
1.446829e+002,1.656898e+001
1.456471e+002,1.454939e+001
1.466113e+002,1.313700e+001
1.475756e+002,9.021985e+000
1.485398e+002,6.196240e+000
1.495040e+002,9.528748e+000
1.504683e+002,2.014132e+001
1.514325e+002,3.531281e+001
1.523967e+002,3.837423e+001
1.533610e+002,3.217408e+001
1.543252e+002,2.420322e+001
1.552894e+002,1.975100e+001
1.562537e+002,2.026411e+001
1.572179e+002,2.025454e+001
1.581821e+002,1.778254e+001
1.591464e+002,1.604813e+001
1.601106e+002,1.922993e+001
1.610748e+002,3.451863e+001
1.620391e+002,4.345589e+001
1.630033e+002,3.855656e+001
1.639676e+002,2.585253e+001
1.649318e+002,1.492677e+001
1.658960e+002,1.769683e+001
1.668603e+002,2.260595e+001
1.678245e+002,2.056732e+001
1.687887e+002,1.208552e+001
1.697530e+002,2.131885e+000
1.707172e+002,6.617749e+000
1.716814e+002,1.986970e+001
1.726457e+002,2.796124e+001
1.736099e+002,2.532494e+001
1.745741e+002,1.141331e+001
1.755384e+002,2.687707e+000
1.765026e+002,-1.524536e-001
1.774668e+002,-7.160645e-001
1.784311e+002,6.396485e-003
1.793953e+002,3.027759e+000
1.803595e+002,4.379187e+000
1.813238e+002,2.222217e+000
1.822880e+002,-8.431031e-001
1.832522e+002,-2.417114e+000
1.842165e+002,-8.159180e-002
1.851807e+002,1.472070e+000
1.861449e+002,-2.135815e+000
1.871092e+002,-8.398547e+000
1.880734e+002,-1.433965e+001
1.890376e+002,-1.619791e+001
1.900019e+002,-1.378846e+001
1.909661e+002,-7.145093e+000
1.919303e+002,3.512732e+000
1.928946e+002,1.558163e+001
1.938588e+002,2.008957e+001
1.948230e+002,1.200395e+001
1.957873e+002,7.447351e+000
1.967515e+002,1.063374e+001
1.977157e+002,2.132789e+001
1.986800e+002,2.965376e+001
1.996442e+002,3.095802e+001
2.006084e+002,3.305925e+001
2.015727e+002,4.122377e+001
2.025369e+002,5.678224e+001
2.035011e+002,6.638381e+001
2.044654e+002,5.596323e+001
2.054296e+002,3.968090e+001
2.063938e+002,2.534463e+001
2.073581e+002,1.815388e+001
2.083223e+002,1.572567e+001
2.092865e+002,9.047803e+000
2.102508e+002,7.154297e-001
2.112150e+002,-2.686877e+000
2.121792e+002,5.859314e+000
2.131435e+002,3.057716e+001
2.141077e+002,4.643270e+001
2.150719e+002,5.143135e+001
2.160362e+002,5.014727e+001
2.170004e+002,4.917185e+001
2.179646e+002,4.969666e+001
2.189289e+002,4.841914e+001
2.198931e+002,4.126263e+001
2.208573e+002,3.233979e+001
2.218216e+002,2.927957e+001
2.227858e+002,4.113130e+001
2.237500e+002,5.683879e+001
2.247143e+002,7.786690e+001
2.256785e+002,9.997664e+001
2.266427e+002,1.151424e+002
2.276070e+002,1.019566e+002
2.285712e+002,7.411317e+001
2.295354e+002,4.762269e+001
2.304997e+002,2.735825e+001
2.314639e+002,1.306786e+001
2.324281e+002,4.738635e+000
2.333924e+002,2.758362e+000
2.343566e+002,2.818970e+000
2.353208e+002,4.118567e+000
2.362851e+002,7.052917e+000
2.372493e+002,8.407715e+000
2.382135e+002,7.184668e+000
2.391778e+002,5.456641e+000
2.401420e+002,4.415454e+000
2.411062e+002,4.652161e+000
2.420705e+002,3.995325e+000
2.430347e+002,3.270264e-002
2.439989e+002,-4.614172e+000
2.449632e+002,-7.912012e+000
2.459274e+002,-8.268946e+000
2.468916e+002,-6.661365e+000
2.478559e+002,-5.233521e+000
2.488201e+002,-4.098352e+000
2.497843e+002,-3.922290e+000
2.507486e+002,-5.570325e+000
2.517128e+002,-9.804407e+000
2.526770e+002,-8.627881e+000
2.536413e+002,1.139893e+000
2.546055e+002,1.356267e+001
2.555697e+002,1.907957e+001
2.565340e+002,1.040100e+001
2.574982e+002,4.292773e+000
2.584625e+002,3.393042e+000
2.594267e+002,5.772265e+000
2.603909e+002,7.896057e+000
2.613552e+002,7.765601e+000
2.623194e+002,6.489038e+000
2.632836e+002,3.797302e+000
2.642479e+002,4.163574e-001
2.652121e+002,-2.385120e+000
2.661763e+002,-2.128882e+000
2.671406e+002,-2.874023e-001
2.681048e+002,7.665771e-001
2.690690e+002,6.324829e-001
2.700333e+002,-1.872315e-001
2.709975e+002,5.237427e-001
2.719617e+002,3.889416e+000
2.729260e+002,5.249719e+000
2.738902e+002,2.081165e+000
2.748544e+002,-5.515076e+000
2.758187e+002,-9.783997e+000
2.767829e+002,-7.674170e+000
2.777471e+002,-5.237891e+000
2.787114e+002,-4.165906e+000
2.796756e+002,-4.704675e+000
2.806398e+002,-5.033032e+000
2.816041e+002,-4.047363e+000
2.825683e+002,-2.453528e+000
2.835325e+002,-3.863648e-001
2.844968e+002,2.026318e+000
2.854610e+002,4.586609e+000
2.864252e+002,7.740930e+000
2.873895e+002,1.069384e+001
2.883537e+002,1.164436e+001
2.893179e+002,9.455371e+000
2.902822e+002,3.941370e+000
2.912464e+002,-2.653320e-001
2.922106e+002,-3.072644e+000
2.931749e+002,-5.444458e+000
2.941391e+002,-8.259168e+000
2.951033e+002,-1.219937e+001
2.960676e+002,-1.447196e+001
2.970318e+002,-1.483114e+001
2.979960e+002,-1.384042e+001
2.989603e+002,-1.178047e+001
2.999245e+002,-8.716223e+000
3.008887e+002,-4.882483e+000
3.018530e+002,7.304077e-001
3.028172e+002,6.325122e+000
3.037814e+002,9.993213e+000
3.047457e+002,1.007985e+001
3.057099e+002,7.616529e+000
3.066741e+002,6.524793e+000
3.076384e+002,6.409155e+000
3.086026e+002,5.996106e+000
3.095668e+002,3.818176e+000
3.105311e+002,-9.211304e-001
3.114953e+002,-4.208411e+000
3.124595e+002,-6.129382e+000
3.134238e+002,-6.955652e+000
3.143880e+002,-6.913501e+000
3.153522e+002,-5.591370e+000
3.163165e+002,-4.135376e+000
3.172807e+002,-2.226038e+000
3.182449e+002,-2.871460e-001
3.192092e+002,9.669067e-001
3.201734e+002,3.967651e-001
3.211376e+002,2.435059e-001
3.221019e+002,2.438037e+000
3.230661e+002,6.234912e+000
3.240303e+002,1.069846e+001
3.249946e+002,1.492267e+001
3.259588e+002,1.820771e+001
3.269230e+002,1.884348e+001
3.278873e+002,1.673892e+001
3.288515e+002,1.321849e+001
3.298157e+002,1.060754e+001
3.307800e+002,9.436353e+000
3.317442e+002,8.864551e+000
3.327084e+002,8.626257e+000
3.336727e+002,8.847644e+000
3.346369e+002,9.960132e+000
3.356011e+002,1.360948e+001
3.365654e+002,1.598003e+001
3.375296e+002,1.589103e+001
3.384938e+002,1.413000e+001
3.394581e+002,1.182526e+001
3.404223e+002,9.348597e+000
3.413865e+002,7.437280e+000
3.423508e+002,6.732337e+000
3.433150e+002,7.157104e+000
3.442792e+002,8.397120e+000
3.452435e+002,9.961230e+000
3.462077e+002,1.198008e+001
3.471719e+002,1.446575e+001
3.481362e+002,1.684840e+001
3.491004e+002,2.044586e+001
3.500646e+002,2.815397e+001
3.510289e+002,3.859594e+001
3.519931e+002,5.728661e+001
3.529573e+002,8.538979e+001
3.539216e+002,1.212658e+002
3.548858e+002,1.646881e+002
3.558500e+002,2.359156e+002
3.568143e+002,2.843966e+002
3.577785e+002,2.891594e+002
3.587427e+002,2.604368e+002
3.597070e+002,2.155642e+002
3.606712e+002,1.647921e+002
3.616354e+002,1.164509e+002
3.625997e+002,7.965458e+001
3.635639e+002,5.447618e+001
3.645281e+002,3.879954e+001
3.654924e+002,2.898855e+001
3.664566e+002,2.688685e+001
3.674208e+002,2.449835e+001
3.683851e+002,2.189878e+001
3.693493e+002,1.887481e+001
3.703135e+002,1.488527e+001
3.712778e+002,7.719690e+000
3.722420e+002,3.179053e+000
3.732062e+002,2.331531e+000
3.741705e+002,4.062854e+000
3.751347e+002,6.858215e+000
3.760989e+002,1.096960e+001
3.770632e+002,1.446355e+001
3.780274e+002,1.600607e+001
3.789916e+002,1.619139e+001
3.799559e+002,1.614523e+001
3.809201e+002,1.732159e+001
3.818844e+002,1.884480e+001
3.828486e+002,1.830610e+001
3.838128e+002,1.584619e+001
3.847771e+002,1.259539e+001
3.857413e+002,1.023193e+001
3.867055e+002,9.206884e+000
3.876698e+002,8.164526e+000
3.886340e+002,5.101465e+000
3.895982e+002,2.706604e+000
3.905625e+002,5.499988e+000
3.915267e+002,1.944025e+001
3.924909e+002,2.836760e+001
3.934552e+002,2.744164e+001
3.944194e+002,2.178317e+001
3.953836e+002,1.671108e+001
3.963479e+002,1.520999e+001
3.973121e+002,1.555974e+001
3.982763e+002,1.661160e+001
3.992406e+002,1.773606e+001
4.002048e+002,1.772831e+001
4.011690e+002,1.533822e+001
4.021333e+002,1.125359e+001
4.030975e+002,1.072667e+001
4.040617e+002,1.375142e+001
4.050260e+002,1.756305e+001
4.059902e+002,1.932875e+001
4.069544e+002,1.808561e+001
4.079187e+002,1.717218e+001
4.088829e+002,1.684889e+001
4.098471e+002,1.650493e+001
4.108114e+002,1.541732e+001
4.117756e+002,1.303201e+001
4.127398e+002,1.181761e+001
4.137041e+002,1.369215e+001
4.146683e+002,1.620911e+001
4.156325e+002,1.762297e+001
4.165968e+002,1.699993e+001
4.175610e+002,1.527831e+001
4.185252e+002,1.335681e+001
4.194895e+002,1.174805e+001
4.204537e+002,1.127991e+001
4.214179e+002,1.247495e+001
4.223822e+002,1.529220e+001
4.233464e+002,1.908689e+001
4.243106e+002,2.448997e+001
4.252749e+002,2.834733e+001
4.262391e+002,2.825133e+001
4.272033e+002,2.371353e+001
4.281676e+002,2.172634e+001
4.291318e+002,2.367930e+001
4.300960e+002,2.698734e+001
4.310603e+002,2.963567e+001
4.320245e+002,3.181571e+001
4.329887e+002,3.749706e+001
4.339530e+002,4.979774e+001
4.349172e+002,6.760689e+001
4.358814e+002,9.259335e+001
4.368457e+002,1.240818e+002
4.378099e+002,1.602271e+002
4.387741e+002,2.040515e+002
4.397384e+002,2.481265e+002
4.407026e+002,2.668967e+002
4.416668e+002,2.533349e+002
4.426311e+002,2.153778e+002
4.435953e+002,1.792737e+002
4.445595e+002,1.427596e+002
4.455238e+002,1.119723e+002
4.464880e+002,8.798574e+001
4.474522e+002,6.983437e+001
4.484165e+002,5.591582e+001
4.493807e+002,4.773964e+001
4.503449e+002,4.236823e+001
4.513092e+002,3.996309e+001
4.522734e+002,3.916261e+001
4.532376e+002,3.845082e+001
4.542019e+002,3.689314e+001
4.551661e+002,3.420936e+001
4.561303e+002,2.958151e+001
4.570946e+002,2.392852e+001
4.580588e+002,1.925485e+001
4.590230e+002,1.779220e+001
4.599873e+002,1.987859e+001
4.609515e+002,2.041971e+001
4.619157e+002,1.880166e+001
4.628800e+002,1.697931e+001
4.638442e+002,1.677316e+001
4.648084e+002,1.878186e+001
4.657727e+002,2.071123e+001
4.667369e+002,2.321752e+001
4.677011e+002,2.514340e+001
4.686654e+002,2.570024e+001
4.696296e+002,2.460767e+001
4.705938e+002,2.251862e+001
4.715581e+002,1.890254e+001
4.725223e+002,1.524759e+001
4.734865e+002,1.269923e+001
4.744508e+002,1.165453e+001
4.754150e+002,1.148690e+001
4.763792e+002,1.035648e+001
4.773435e+002,8.759143e+000
4.783077e+002,8.597174e+000
4.792719e+002,1.082256e+001
4.802362e+002,1.466277e+001
4.812004e+002,1.558662e+001
4.821646e+002,9.601123e+000
4.831289e+002,5.410748e+000
4.840931e+002,4.090686e+000
4.850573e+002,5.061847e+000
4.860216e+002,7.048169e+000
4.869858e+002,1.231221e+001
4.879500e+002,1.528193e+001
4.889143e+002,1.256894e+001
4.898785e+002,6.727155e+000
4.908427e+002,1.791400e+000
4.918070e+002,1.227838e+000
4.927712e+002,3.095502e+000
4.937354e+002,3.897302e+000
4.946997e+002,3.853369e+000
4.956639e+002,3.469959e+000
4.966281e+002,3.250427e+000
4.975924e+002,3.221295e+000
4.985566e+002,2.906928e+000
4.995208e+002,1.683911e+000
5.004851e+002,1.051666e+000
5.014493e+002,2.651819e+000
5.024135e+002,7.368518e+000
5.033778e+002,1.002523e+001
5.043420e+002,8.807404e+000
5.053063e+002,7.157056e+000
5.062705e+002,6.702106e+000
5.072347e+002,7.638190e+000
5.081990e+002,8.401947e+000
5.091632e+002,7.034839e+000
5.101274e+002,5.193201e+000
5.110917e+002,3.720496e+000
5.120559e+002,2.885394e+000
5.130201e+002,2.604620e+000
5.139844e+002,2.853754e+000
5.149486e+002,3.479730e+000
5.159128e+002,3.303479e+000
5.168771e+002,1.957587e+000
5.178413e+002,1.647583e-001
5.188055e+002,-5.015625e-001
5.197698e+002,7.994324e-001
5.207340e+002,2.102264e+000
5.216982e+002,4.264691e+000
5.226625e+002,5.950311e+000
5.236267e+002,5.087115e+000
5.245909e+002,-2.534057e-001
5.255552e+002,-4.251672e+000
5.265194e+002,-3.187207e+000
5.274836e+002,-2.016785e-001
5.284479e+002,2.203510e+000
5.294121e+002,2.623993e+000
5.303763e+002,1.772003e+000
5.313406e+002,3.506103e-001
5.323048e+002,-1.161798e+000
5.332690e+002,-1.176959e+000
5.342333e+002,1.209125e+000
5.351975e+002,5.461102e+000
5.361617e+002,7.108881e+000
5.371260e+002,3.884155e+000
5.380902e+002,1.667950e+000
5.390544e+002,2.120410e+000
5.400187e+002,4.349317e+000
5.409829e+002,5.537506e+000
5.419471e+002,4.178576e+000
5.429114e+002,2.909918e+000
5.438756e+002,2.339142e+000
5.448398e+002,2.311505e+000
5.458041e+002,2.570935e+000
5.467683e+002,3.048669e+000
5.477325e+002,3.503076e+000
5.486968e+002,3.713599e+000
5.496610e+002,3.636322e+000
5.506252e+002,3.124622e+000
5.515895e+002,2.054059e+000
5.525537e+002,4.261719e-001
5.535179e+002,-1.003961e+000
5.544822e+002,-2.480304e+000
5.554464e+002,-3.276575e+000
5.564106e+002,-2.792310e+000
5.573749e+002,-1.048395e+000
5.583391e+002,3.234497e-001
5.593033e+002,1.205438e+000
5.602676e+002,1.721033e+000
5.612318e+002,1.773389e+000
5.621960e+002,1.444183e+000
5.631603e+002,9.312622e-001
5.641245e+002,2.806702e-001
5.650887e+002,-3.713013e-001
5.660530e+002,-1.226495e+000
5.670172e+002,-2.025995e+000
5.679814e+002,-2.178040e+000
5.689457e+002,-1.002795e+000
5.699099e+002,1.345624e+000
5.708741e+002,2.834900e+000
5.718384e+002,3.664667e+000
5.728026e+002,3.508325e+000
5.737668e+002,1.488092e+000
5.747311e+002,-3.227820e+000
5.756953e+002,-5.608685e+000
5.766595e+002,-3.823419e+000
5.776238e+002,-1.978479e+000
5.785880e+002,-1.802661e+000
5.795522e+002,-3.251910e+000
5.805165e+002,-4.600775e+000
5.814807e+002,-4.581207e+000
5.824449e+002,-4.139307e+000
5.834092e+002,-3.716077e+000
5.843734e+002,-3.366840e+000
5.853376e+002,-3.013709e+000
5.863019e+002,-2.578931e+000
5.872661e+002,-1.983600e+000
5.882303e+002,-8.192199e-001
5.891946e+002,9.695923e-001
5.901588e+002,2.366937e+000
5.911230e+002,2.046979e+000
5.920873e+002,-9.581970e-001
5.930515e+002,-1.805395e+000
5.940157e+002,1.301764e+000
5.949800e+002,4.075195e+000
5.959442e+002,4.033521e+000
5.969084e+002,1.112653e+000
5.978727e+002,-1.626489e+000
5.988369e+002,-2.278198e+000
5.998011e+002,-2.518359e+000
6.007654e+002,-2.904413e+000
6.017296e+002,-3.494391e+000
6.026938e+002,-4.143603e+000
6.036581e+002,-4.848670e+000
6.046223e+002,-5.233313e+000
6.055865e+002,-4.077155e+000
6.065508e+002,-1.510901e+000
6.075150e+002,6.884643e-001
6.084792e+002,4.096130e-001
6.094435e+002,-3.302722e+000
6.104077e+002,-4.366663e+000
6.113719e+002,-6.858032e-001
6.123362e+002,2.529614e+000
6.133004e+002,1.931763e+000
6.142646e+002,-2.501251e+000
6.152289e+002,-5.691510e+000
6.161931e+002,-3.931690e+000
6.171573e+002,-1.979163e+000
6.181216e+002,-1.383893e+000
6.190858e+002,-2.034955e+000
6.200500e+002,-3.095850e+000
6.210143e+002,-4.081000e+000
6.219785e+002,-4.547595e+000
6.229427e+002,-3.449158e+000
6.239070e+002,-1.159784e+000
6.248712e+002,7.148193e-001
6.258354e+002,5.544983e-001
6.267997e+002,-1.969537e+000
6.277639e+002,-2.278210e+000
6.287281e+002,1.289105e+000
6.296924e+002,4.192035e+000
6.306566e+002,3.854846e+000
6.316208e+002,6.238769e-001
6.325851e+002,-1.534375e+000
6.335493e+002,-9.788208e-002
6.345135e+002,1.436407e+000
6.354778e+002,2.169562e+000
6.364420e+002,2.187695e+000
6.374063e+002,1.932477e+000
6.383705e+002,1.676074e+000
6.393347e+002,1.453809e+000
6.402990e+002,1.273425e+000
6.412632e+002,1.197565e+000
6.422274e+002,1.377710e+000
6.431917e+002,1.924493e+000
6.441559e+002,2.787250e+000
6.451201e+002,3.142560e+000
6.460844e+002,2.622015e+000
6.470486e+002,2.376270e+000
6.480128e+002,3.281708e+000
6.489771e+002,4.892792e+000
6.499413e+002,5.199103e+000
6.509055e+002,2.537604e+000
6.518698e+002,1.189880e-001
6.528340e+002,-1.330572e+000
6.537982e+002,-1.988269e+000
6.547625e+002,-2.160809e+000
6.557267e+002,-2.010712e+000
6.566909e+002,-1.544177e+000
6.576552e+002,-3.152710e-001
6.586194e+002,1.057843e+000
6.595836e+002,1.318903e+000
6.605479e+002,-6.937256e-002
6.615121e+002,-2.289593e+000
6.624763e+002,-1.899286e+000
6.634406e+002,2.774298e+000
6.644048e+002,5.652539e+000
6.653690e+002,4.729505e+000
6.663333e+002,1.770587e+000
6.672975e+002,2.160034e-001
6.682617e+002,1.116217e+000
6.692260e+002,2.133142e+000
6.701902e+002,2.744940e+000
6.711544e+002,3.174304e+000
6.721187e+002,3.701141e+000
6.730829e+002,4.362335e+000
6.740471e+002,4.645545e+000
6.750114e+002,3.054724e+000
6.759756e+002,1.114917e+000
6.769398e+002,6.365601e-001
6.779041e+002,1.890979e+000
6.788683e+002,3.896338e+000
6.798325e+002,4.906598e+000
6.807968e+002,4.706744e+000
6.817610e+002,3.749500e+000
6.827252e+002,8.070191e-001
6.836895e+002,-1.879108e+000
6.846537e+002,-1.948730e+000
6.856179e+002,1.190930e+000
6.865822e+002,3.480194e+000
6.875464e+002,3.829822e+000
6.885106e+002,3.376117e+000
6.894749e+002,2.066925e+000
6.904391e+002,3.112366e-001
6.914034e+002,-1.048724e+000
6.923676e+002,-1.179578e+000
6.933318e+002,-4.299255e-001
6.942961e+002,9.755371e-001
6.952603e+002,2.709888e+000
6.962245e+002,3.759631e+000
6.971888e+002,3.144782e+000
6.981530e+002,7.963501e-001
6.991172e+002,-2.862549e-001
7.000815e+002,4.347534e-002
7.010457e+002,8.226624e-001
7.020099e+002,2.226123e+000
7.029742e+002,4.012091e+000
7.039384e+002,4.822992e+000
7.049026e+002,3.327527e+000
7.058669e+002,2.142944e+000
7.068311e+002,1.979126e+000
7.077953e+002,2.490100e+000
7.087596e+002,3.524200e+000
7.097238e+002,5.094892e+000
7.106880e+002,6.283868e+000
7.116523e+002,4.739245e+000
7.126165e+002,1.980585e+000
7.135807e+002,3.865234e-001
7.145450e+002,8.630005e-001
7.155092e+002,2.562482e+000
7.164734e+002,3.131091e+000
7.174377e+002,1.913910e+000
7.184019e+002,7.377869e-001
7.193661e+002,-7.780884e-001
7.203304e+002,-2.089996e+000
7.212946e+002,-2.491913e+000
7.222589e+002,-1.705200e+000
7.232231e+002,-8.555481e-001
7.241873e+002,-3.284546e-001
7.251516e+002,1.489197e-001
7.261158e+002,8.111572e-001
7.270800e+002,1.554694e+000
7.280443e+002,1.958765e+000
7.290085e+002,1.433051e+000
7.299727e+002,5.310791e-001
7.309370e+002,2.626709e-001
7.319012e+002,6.375549e-001
7.328654e+002,1.659576e+000
7.338297e+002,3.473834e+000
7.347939e+002,6.192114e+000
7.357581e+002,6.706030e+000
7.367224e+002,3.212268e+000
7.376866e+002,2.104614e-001
7.386508e+002,-9.136780e-001
7.396151e+002,-6.752197e-001
7.405793e+002,-5.304505e-001
7.415435e+002,-9.731628e-001
7.425078e+002,-1.265515e+000
7.434720e+002,-1.327673e+000
7.444362e+002,-1.066126e+000
7.454005e+002,-1.761841e-001
7.463647e+002,1.413416e+000
7.473289e+002,3.108600e+000
7.482932e+002,3.922913e+000
7.492574e+002,3.976160e+000
7.502216e+002,3.032398e+000
7.511859e+002,8.942810e-001
7.521501e+002,-1.676923e+000
7.531143e+002,-3.221051e+000
7.540786e+002,-3.124176e+000
7.550428e+002,-3.294055e+000
7.560070e+002,-4.360510e+000
7.569713e+002,-5.072107e+000
7.579355e+002,-4.392877e+000
7.588997e+002,-2.400720e+000
7.598640e+002,-7.013794e-001
7.608282e+002,-6.530029e-001
7.617924e+002,-5.883667e-001
7.627567e+002,5.095154e-001
7.637209e+002,2.291278e+000
7.646851e+002,3.773816e+000
7.656494e+002,4.122937e+000
7.666136e+002,4.041333e+000
7.675778e+002,7.419165e+000
7.685421e+002,1.369714e+001
7.695063e+002,1.760769e+001
7.704705e+002,1.623703e+001
7.714348e+002,1.089763e+001
7.723990e+002,6.851581e+000
7.733632e+002,5.082757e+000
7.743275e+002,3.176898e+000
7.752917e+002,5.076294e-001
7.762559e+002,-2.019336e+000
7.772202e+002,-3.675714e+000
7.781844e+002,-4.282190e+000
7.791486e+002,-4.089643e+000
7.801129e+002,-2.212903e+000
7.810771e+002,-3.111145e-001
7.820413e+002,2.698120e-001
7.830056e+002,-3.648315e-001
7.839698e+002,-1.190314e+000
7.849340e+002,-1.031537e+000
7.858983e+002,6.222534e-002
7.868625e+002,5.711243e-001
7.878267e+002,3.794433e-001
7.887910e+002,1.023132e-001
7.897552e+002,5.374756e-002
7.907194e+002,2.300293e-001
7.916837e+002,5.094665e-001
7.926479e+002,1.354968e+000
7.936121e+002,1.563177e+000
7.945764e+002,6.391602e-001
7.955406e+002,-8.931519e-001
7.965048e+002,-2.590216e+000
7.974691e+002,-4.234454e+000
7.984333e+002,-5.532495e+000
7.993975e+002,-6.152148e+000
8.003618e+002,-6.235834e+000
8.013260e+002,-5.498492e+000
8.022902e+002,-4.024945e+000
8.032545e+002,-2.539111e+000
8.042187e+002,-2.131018e+000
8.051829e+002,-3.043085e+000
8.061472e+002,-3.639758e+000
8.071114e+002,-4.295020e+000
8.080756e+002,-4.377710e+000
8.090399e+002,-3.139203e+000
8.100041e+002,-8.133057e-001
8.109683e+002,9.012573e-001
8.119326e+002,1.495917e+000
8.128968e+002,1.299329e+000
8.138610e+002,-3.228821e-001
8.148253e+002,-2.287555e+000
8.157895e+002,-3.148682e+000
8.167537e+002,-2.239478e+000
8.177180e+002,-6.307495e-001
8.186822e+002,-3.980286e-001
8.196464e+002,-9.729492e-001
8.206107e+002,-1.185522e+000
8.215749e+002,-7.960205e-001
8.225391e+002,1.251221e-002
8.235034e+002,1.016785e+000
8.244676e+002,2.366553e+000
8.254318e+002,3.358185e+000
8.263961e+002,4.067053e+000
8.273603e+002,4.590186e+000
8.283245e+002,5.111762e+000
8.292888e+002,5.474127e+000
8.302530e+002,5.046838e+000
8.312172e+002,2.907367e+000
8.321815e+002,9.535462e-001
8.331457e+002,8.348266e-001
8.341099e+002,1.576434e+000
8.350742e+002,1.756982e+000
8.360384e+002,7.142395e-001
8.370026e+002,-8.429993e-001
8.379669e+002,-1.179901e+000
8.389311e+002,-2.437012e-001
8.398953e+002,2.144531e-001
8.408596e+002,-2.118530e-002
8.418238e+002,-7.157043e-001
8.427880e+002,-1.761578e+000
8.437523e+002,-3.332349e+000
8.447165e+002,-4.275995e+000
8.456807e+002,-3.866638e+000
8.466450e+002,-3.461121e+000
8.476092e+002,-3.676904e+000
8.485734e+002,-4.289660e+000
8.495377e+002,-4.761200e+000
8.505019e+002,-4.824414e+000
8.514661e+002,-4.366651e+000
8.524304e+002,-2.692731e+000
8.533946e+002,-6.269653e-001
8.543588e+002,3.304932e-001
8.553231e+002,-3.571228e-001
8.562873e+002,-1.916760e+000
8.572515e+002,-2.626855e+000
8.582158e+002,-2.038568e+000
8.591800e+002,-1.977374e+000
8.601442e+002,-3.090857e+000
8.611085e+002,-4.110705e+000
8.620727e+002,-3.899560e+000
8.630369e+002,-2.545673e+000
8.640012e+002,-1.784698e+000
8.649654e+002,-3.124573e+000
8.659296e+002,-4.080048e+000
8.668939e+002,-3.154273e+000
8.678581e+002,-1.330237e+000
8.688223e+002,6.825562e-002
8.697866e+002,3.432800e-001
8.707508e+002,-1.061096e-001
8.717150e+002,-5.892761e-001
8.726793e+002,-1.126929e+000
8.736435e+002,-1.864496e+000
8.746077e+002,-2.933624e+000
8.755720e+002,-3.826459e+000
8.765362e+002,-3.618659e+000
8.775004e+002,-1.764233e+000
8.784647e+002,-1.224988e+000
8.794289e+002,-3.425397e+000
8.803931e+002,-5.293054e+000
8.813574e+002,-5.763257e+000
8.823216e+002,-5.220764e+000
8.832858e+002,-4.505652e+000
8.842501e+002,-3.889917e+000
8.852143e+002,-3.429040e+000
8.861785e+002,-3.332294e+000
8.871428e+002,-3.416608e+000
8.881070e+002,-3.425678e+000
8.890712e+002,-3.305963e+000
8.900355e+002,-3.227460e+000
8.909997e+002,-3.466669e+000
8.919639e+002,-4.072443e+000
8.929282e+002,-4.504388e+000
8.938924e+002,-4.742645e+000
8.948566e+002,-4.882172e+000
8.958209e+002,-4.993005e+000
8.967851e+002,-5.043958e+000
8.977493e+002,-4.895734e+000
8.987136e+002,-4.386371e+000
8.996778e+002,-3.965527e+000
9.006420e+002,-3.616779e+000
9.016063e+002,-3.501038e+000
9.025705e+002,-3.847772e+000
9.035347e+002,-4.647736e+000
9.044990e+002,-5.593713e+000
9.054632e+002,-6.394006e+000
9.064274e+002,-7.027069e+000
9.073917e+002,-7.396716e+000
9.083559e+002,-7.467828e+000
9.093201e+002,-7.309357e+000
9.102844e+002,-7.005615e+000
9.112486e+002,-6.553735e+000
9.122128e+002,-5.742279e+000
9.131771e+002,-3.767798e+000
9.141413e+002,-2.522424e+000
9.151055e+002,-2.705231e+000
9.160698e+002,-3.315259e+000
9.170340e+002,-3.294421e+000
9.179982e+002,-2.447888e+000
9.189625e+002,-1.715808e+000
9.199267e+002,-1.901056e+000
9.208909e+002,-2.556873e+000
9.218552e+002,-3.510339e+000
9.228194e+002,-4.544019e+000
9.237836e+002,-5.195636e+000
9.247479e+002,-5.096551e+000
9.257121e+002,-4.366260e+000
9.266763e+002,-3.674683e+000
9.276406e+002,-2.957007e+000
9.286048e+002,-2.479700e+000
9.295690e+002,-2.297705e+000
9.305333e+002,-2.340100e+000
9.314975e+002,-2.684216e+000
9.324617e+002,-3.405560e+000
9.334260e+002,-3.731097e+000
9.343902e+002,-2.700696e+000
9.353545e+002,-1.757324e+000
9.363187e+002,-1.752228e+000
9.372830e+002,-2.273047e+000
9.382472e+002,-2.431433e+000
9.392114e+002,-1.662549e+000
9.401757e+002,-3.595703e-001
9.411399e+002,4.851685e-001
9.421041e+002,8.984802e-001
9.430684e+002,1.227399e+000
9.440326e+002,1.558966e+000
9.449968e+002,1.665863e+000
9.459611e+002,1.139105e+000
9.469253e+002,-1.551086e-001
9.478895e+002,-7.610962e-001
9.488538e+002,8.063354e-002
9.498180e+002,8.076233e-001
9.507822e+002,9.196350e-001
9.517465e+002,6.427368e-001
9.527107e+002,2.798096e-001
9.536749e+002,-4.013672e-002
9.546392e+002,-5.381470e-002
9.556034e+002,8.668579e-001
9.565676e+002,2.103021e+000
9.575319e+002,3.036926e+000
9.584961e+002,3.573828e+000
9.594603e+002,3.620630e+000
9.604246e+002,2.984979e+000
9.613888e+002,1.630164e+000
9.623530e+002,8.775696e-001
9.633173e+002,5.730957e-001
9.642815e+002,1.047699e+000
9.652457e+002,2.732513e+000
9.662100e+002,5.114367e+000
9.671742e+002,7.442542e+000
9.681384e+002,9.518311e+000
9.691027e+002,1.201824e+001
9.700669e+002,1.074883e+001
9.710311e+002,1.435428e+001
9.719954e+002,3.282809e+001
9.729596e+002,6.105677e+001
9.739238e+002,8.901760e+001
9.748881e+002,1.095226e+002
9.758523e+002,1.201556e+002
9.768165e+002,1.102101e+002
9.777808e+002,7.438279e+001
9.787450e+002,4.610641e+001
9.797092e+002,3.053842e+001
9.806735e+002,2.210893e+001
9.816377e+002,1.645119e+001
9.826019e+002,1.361980e+001
9.835662e+002,1.212305e+001
9.845304e+002,1.288862e+001
9.854946e+002,1.356717e+001
9.864589e+002,1.302305e+001
9.874231e+002,1.210411e+001
9.883873e+002,1.191996e+001
9.893516e+002,1.282864e+001
9.903158e+002,1.418221e+001
9.912800e+002,1.514592e+001
9.922443e+002,1.596927e+001
9.932085e+002,1.712508e+001
9.941727e+002,1.857618e+001
9.951370e+002,2.115636e+001
9.961012e+002,2.498397e+001
9.970654e+002,3.012282e+001
9.980297e+002,3.735289e+001
9.989939e+002,3.879390e+001
9.999581e+002,5.763372e+001
1.000922e+003,9.168846e+001
1.001887e+003,1.457034e+002
1.002851e+003,2.505357e+002
1.003815e+003,3.877454e+002
1.004779e+003,4.757325e+002
1.005744e+003,4.482152e+002
1.006708e+003,3.550536e+002
1.007672e+003,2.626926e+002
1.008636e+003,1.760071e+002
1.009600e+003,1.106367e+002
1.010565e+003,7.358675e+001
1.011529e+003,5.652712e+001
1.012493e+003,4.402631e+001
1.013457e+003,3.718707e+001
1.014422e+003,3.219487e+001
1.015386e+003,3.003991e+001
1.016350e+003,2.807057e+001
1.017314e+003,2.471219e+001
1.018279e+003,2.083167e+001
1.019243e+003,1.839360e+001
1.020207e+003,1.823734e+001
1.021171e+003,1.872750e+001
1.022135e+003,1.893446e+001
1.023100e+003,1.889272e+001
1.024064e+003,1.849411e+001
1.025028e+003,1.775890e+001
1.025992e+003,1.684125e+001
1.026957e+003,1.589880e+001
1.027921e+003,1.498549e+001
1.028885e+003,1.418270e+001
1.029849e+003,1.316587e+001
1.030814e+003,1.304610e+001
1.031778e+003,1.488917e+001
1.032742e+003,1.678436e+001
1.033706e+003,1.665037e+001
1.034671e+003,1.451078e+001
1.035635e+003,1.285885e+001
1.036599e+003,1.275297e+001
1.037563e+003,1.326263e+001
1.038527e+003,1.391959e+001
1.039492e+003,1.476274e+001
1.040456e+003,1.620631e+001
1.041420e+003,1.820762e+001
1.042384e+003,1.980633e+001
1.043349e+003,1.941399e+001
1.044313e+003,1.708603e+001
1.045277e+003,1.650753e+001
1.046241e+003,1.811728e+001
1.047206e+003,1.986548e+001
1.048170e+003,2.101560e+001
1.049134e+003,2.158999e+001
1.050098e+003,2.155458e+001
1.051063e+003,2.074241e+001
1.052027e+003,2.001503e+001
1.052991e+003,1.922538e+001
1.053955e+003,1.879373e+001
1.054919e+003,1.934063e+001
1.055884e+003,2.041618e+001
1.056848e+003,2.110128e+001
1.057812e+003,2.087872e+001
1.058776e+003,2.014657e+001
1.059741e+003,1.941041e+001
1.060705e+003,1.868696e+001
1.061669e+003,1.864859e+001
1.062633e+003,1.953619e+001
1.063598e+003,2.056200e+001
1.064562e+003,2.113512e+001
1.065526e+003,2.132324e+001
1.066490e+003,2.123198e+001
1.067454e+003,2.033031e+001
1.068419e+003,1.999298e+001
1.069383e+003,2.070817e+001
1.070347e+003,2.174928e+001
1.071311e+003,2.291031e+001
1.072276e+003,2.392598e+001
1.073240e+003,2.414908e+001
1.074204e+003,2.292249e+001
1.075168e+003,2.101532e+001
1.076133e+003,2.009347e+001
1.077097e+003,1.997296e+001
1.078061e+003,2.022324e+001
1.079025e+003,2.070430e+001
1.079990e+003,2.151979e+001
1.080954e+003,2.322281e+001
1.081918e+003,2.619634e+001
1.082882e+003,2.735892e+001
1.083846e+003,2.411180e+001
1.084811e+003,2.184938e+001
1.085775e+003,2.246345e+001
1.086739e+003,2.405652e+001
1.087703e+003,2.453467e+001
1.088668e+003,2.354140e+001
1.089632e+003,2.239916e+001
1.090596e+003,2.201155e+001
1.091560e+003,2.234965e+001
1.092525e+003,2.346136e+001
1.093489e+003,2.511408e+001
1.094453e+003,2.647029e+001
1.095417e+003,2.713543e+001
1.096381e+003,2.749221e+001
1.097346e+003,2.834800e+001
1.098310e+003,3.002275e+001
1.099274e+003,3.104833e+001
1.100238e+003,3.174511e+001
1.101203e+003,3.154782e+001
1.102167e+003,2.917916e+001
1.103131e+003,2.626263e+001
1.104095e+003,2.506659e+001
1.105060e+003,2.613755e+001
1.106024e+003,2.778455e+001
1.106988e+003,2.882732e+001
1.107952e+003,2.943939e+001
1.108917e+003,2.963958e+001
1.109881e+003,2.957425e+001
1.110845e+003,2.995765e+001
1.111809e+003,3.121868e+001
1.112773e+003,3.277090e+001
1.113738e+003,3.325927e+001
1.114702e+003,3.241973e+001
1.115666e+003,3.152568e+001
1.116630e+003,3.030419e+001
1.117595e+003,2.920863e+001
1.118559e+003,2.805995e+001
1.119523e+003,2.727982e+001
1.120487e+003,2.758944e+001
1.121452e+003,2.918895e+001
1.122416e+003,3.128149e+001
1.123380e+003,3.346976e+001
1.124344e+003,3.535316e+001
1.125308e+003,3.638805e+001
1.126273e+003,3.677549e+001
1.127237e+003,3.726362e+001
1.128201e+003,3.830430e+001
1.129165e+003,3.927699e+001
1.130130e+003,3.844996e+001
1.131094e+003,3.440421e+001
1.132058e+003,3.283114e+001
1.133022e+003,3.562223e+001
1.133987e+003,3.812840e+001
1.134951e+003,3.868890e+001
1.135915e+003,3.822897e+001
1.136879e+003,3.830448e+001
1.137844e+003,3.927406e+001
1.138808e+003,3.979675e+001
1.139772e+003,3.810473e+001
1.140736e+003,3.586341e+001
1.141700e+003,3.571061e+001
1.142665e+003,3.715878e+001
1.143629e+003,3.842875e+001
1.144593e+003,3.866960e+001
1.145557e+003,3.837794e+001
1.146522e+003,3.838117e+001
1.147486e+003,3.849075e+001
1.148450e+003,3.916114e+001
1.149414e+003,4.156774e+001
1.150379e+003,4.322738e+001
1.151343e+003,4.295812e+001
1.152307e+003,4.196232e+001
1.153271e+003,4.178448e+001
1.154235e+003,4.257526e+001
1.155200e+003,4.290459e+001
1.156164e+003,4.146055e+001
1.157128e+003,3.968074e+001
1.158092e+003,3.953066e+001
1.159057e+003,4.057662e+001
1.160021e+003,4.188751e+001
1.160985e+003,4.310685e+001
1.161949e+003,4.409915e+001
1.162914e+003,4.469949e+001
1.163878e+003,4.494257e+001
1.164842e+003,4.498158e+001
1.165806e+003,4.379060e+001
1.166771e+003,4.364263e+001
1.167735e+003,4.605392e+001
1.168699e+003,4.871195e+001
1.169663e+003,4.912594e+001
1.170627e+003,4.750790e+001
1.171592e+003,4.644842e+001
1.172556e+003,4.765625e+001
1.173520e+003,4.981160e+001
1.174484e+003,5.157948e+001
1.175449e+003,5.263872e+001
1.176413e+003,5.160098e+001
1.177377e+003,4.813586e+001
1.178341e+003,4.498333e+001
1.179306e+003,4.520251e+001
1.180270e+003,4.848582e+001
1.181234e+003,5.067971e+001
1.182198e+003,5.141062e+001
1.183162e+003,5.144820e+001
1.184127e+003,5.022755e+001
1.185091e+003,4.904490e+001
1.186055e+003,4.874376e+001
1.187019e+003,4.922410e+001
1.187984e+003,5.010615e+001
1.188948e+003,5.118970e+001
1.189912e+003,5.197494e+001
1.190876e+003,5.153241e+001
1.191841e+003,5.050525e+001
1.192805e+003,5.049454e+001
1.193769e+003,5.159137e+001
1.194733e+003,5.306335e+001
1.195698e+003,5.468075e+001
1.196662e+003,5.614119e+001
1.197626e+003,5.657335e+001
1.198590e+003,5.563143e+001
1.199554e+003,5.484059e+001
1.200519e+003,5.435702e+001
1.201483e+003,5.425828e+001
1.202447e+003,5.454253e+001
1.203411e+003,5.523395e+001
1.204376e+003,5.665151e+001
1.205340e+003,5.856084e+001
1.206304e+003,5.979362e+001
1.207268e+003,5.931355e+001
1.208233e+003,5.787664e+001
1.209197e+003,5.714119e+001
1.210161e+003,5.695193e+001
1.211125e+003,5.733579e+001
1.212089e+003,5.856172e+001
1.213054e+003,5.967686e+001
1.214018e+003,5.960613e+001
1.214982e+003,5.856776e+001
1.215946e+003,5.777116e+001
1.216911e+003,5.663502e+001
1.217875e+003,5.695282e+001
1.218839e+003,6.089808e+001
1.219803e+003,6.459389e+001
1.220768e+003,6.470613e+001
1.221732e+003,6.225444e+001
1.222696e+003,6.036552e+001
1.223660e+003,6.078280e+001
1.224625e+003,6.243925e+001
1.225589e+003,6.343801e+001
1.226553e+003,6.370765e+001
1.227517e+003,6.488240e+001
1.228481e+003,6.775266e+001
1.229446e+003,6.973468e+001
1.230410e+003,6.901225e+001
1.231374e+003,6.697005e+001
1.232338e+003,6.603563e+001
1.233303e+003,6.648412e+001
1.234267e+003,6.670308e+001
1.235231e+003,6.554102e+001
1.236195e+003,6.469904e+001
1.237160e+003,6.510539e+001
1.238124e+003,6.624890e+001
1.239088e+003,6.788705e+001
1.240052e+003,6.972616e+001
1.241016e+003,7.104673e+001
1.241981e+003,7.113026e+001
1.242945e+003,7.020852e+001
1.243909e+003,6.940688e+001
1.244873e+003,6.888470e+001
1.245838e+003,6.826361e+001
1.246802e+003,6.675364e+001
1.247766e+003,6.594710e+001
1.248730e+003,6.724236e+001
1.249695e+003,6.976884e+001
1.250659e+003,7.168736e+001
1.251623e+003,7.258757e+001
1.252587e+003,7.289165e+001
1.253552e+003,7.221077e+001
1.254516e+003,7.165643e+001
1.255480e+003,7.293508e+001
1.256444e+003,7.513963e+001
1.257408e+003,7.589246e+001
1.258373e+003,7.433665e+001
1.259337e+003,7.223091e+001
1.260301e+003,7.208390e+001
1.261265e+003,7.396053e+001
1.262230e+003,7.537622e+001
1.263194e+003,7.582925e+001
1.264158e+003,7.609684e+001
1.265122e+003,7.625468e+001
1.266087e+003,7.628729e+001
1.267051e+003,7.587677e+001
1.268015e+003,7.545262e+001
1.268979e+003,7.605302e+001
1.269943e+003,7.809094e+001
1.270908e+003,8.041434e+001
1.271872e+003,8.179685e+001
1.272836e+003,8.258705e+001
1.273800e+003,8.401015e+001
1.274765e+003,8.594527e+001
1.275729e+003,8.645912e+001
1.276693e+003,8.412254e+001
1.277657e+003,8.090703e+001
1.278622e+003,7.992690e+001
1.279586e+003,8.126335e+001
1.280550e+003,8.247459e+001
1.281514e+003,8.384515e+001
1.282479e+003,8.466740e+001
1.283443e+003,8.416769e+001
1.284407e+003,8.350838e+001
1.285371e+003,8.337627e+001
1.286335e+003,8.380526e+001
1.287300e+003,8.474780e+001
1.288264e+003,8.621385e+001
1.289228e+003,8.790511e+001
1.290192e+003,8.936289e+001
1.291157e+003,9.050423e+001
1.292121e+003,9.046477e+001
1.293085e+003,8.875102e+001
1.294049e+003,8.702954e+001
1.295014e+003,8.592285e+001
1.295978e+003,8.528624e+001
1.296942e+003,8.481364e+001
1.297906e+003,8.457896e+001
1.298870e+003,8.519745e+001
1.299835e+003,8.710553e+001
1.300799e+003,8.893457e+001
1.301763e+003,8.998500e+001
1.302727e+003,9.039912e+001
1.303692e+003,8.998424e+001
1.304656e+003,8.921722e+001
1.305620e+003,8.917766e+001
1.306584e+003,9.042126e+001
1.307549e+003,9.230959e+001
1.308513e+003,9.370939e+001
1.309477e+003,9.455934e+001
1.310441e+003,9.484688e+001
1.311406e+003,9.392576e+001
1.312370e+003,9.357169e+001
1.313334e+003,9.465983e+001
1.314298e+003,9.590466e+001
1.315263e+003,9.620801e+001
1.316227e+003,9.567940e+001
1.317191e+003,9.488338e+001
1.318155e+003,9.398315e+001
1.319120e+003,9.347707e+001
1.320084e+003,9.408848e+001
1.321048e+003,9.536694e+001
1.322012e+003,9.655592e+001
1.322976e+003,9.757236e+001
1.323941e+003,9.780347e+001
1.324905e+003,9.678465e+001
1.325869e+003,9.546965e+001
1.326833e+003,9.527641e+001
1.327798e+003,9.615726e+001
1.328762e+003,9.659184e+001
1.329726e+003,9.570245e+001
1.330690e+003,9.572896e+001
1.331655e+003,9.813307e+001
1.332619e+003,1.007426e+002
1.333583e+003,1.020278e+002
1.334547e+003,1.023437e+002
1.335511e+003,1.026821e+002
1.336476e+003,1.034691e+002
1.337440e+003,1.045174e+002
1.338404e+003,1.057212e+002
1.339368e+003,1.069238e+002
1.340333e+003,1.060832e+002
1.341297e+003,1.017794e+002
1.342261e+003,9.957635e+001
1.343225e+003,1.017598e+002
1.344190e+003,1.045322e+002
1.345154e+003,1.049181e+002
1.346118e+003,1.039932e+002
1.347082e+003,1.048614e+002
1.348047e+003,1.083049e+002
1.349011e+003,1.108592e+002
1.349975e+003,1.098666e+002
1.350939e+003,1.077807e+002
1.351903e+003,1.069727e+002
1.352868e+003,1.071895e+002
1.353832e+003,1.080700e+002
1.354796e+003,1.094838e+002
1.355760e+003,1.111289e+002
1.356725e+003,1.129107e+002
1.357689e+003,1.145721e+002
1.358653e+003,1.146118e+002
1.359617e+003,1.119152e+002
1.360582e+003,1.108164e+002
1.361546e+003,1.134955e+002
1.362510e+003,1.154665e+002
1.363474e+003,1.144128e+002
1.364438e+003,1.127480e+002
1.365403e+003,1.132966e+002
1.366367e+003,1.158864e+002
1.367331e+003,1.182307e+002
1.368295e+003,1.188844e+002
1.369260e+003,1.183450e+002
1.370224e+003,1.173949e+002
1.371188e+003,1.162394e+002
1.372152e+003,1.158068e+002
1.373117e+003,1.159380e+002
1.374081e+003,1.164464e+002
1.375045e+003,1.177011e+002
1.376009e+003,1.190311e+002
1.376974e+003,1.198670e+002
1.377938e+003,1.202111e+002
1.378902e+003,1.196997e+002
1.379866e+003,1.177362e+002
1.380830e+003,1.162815e+002
1.381795e+003,1.171493e+002
1.382759e+003,1.188806e+002
1.383723e+003,1.206936e+002
1.384687e+003,1.223361e+002
1.385652e+003,1.230823e+002
1.386616e+003,1.226738e+002
1.387580e+003,1.221992e+002
1.388544e+003,1.230401e+002
1.389509e+003,1.249492e+002
1.390473e+003,1.261771e+002
1.391437e+003,1.267259e+002
1.392401e+003,1.269597e+002
1.393365e+003,1.265871e+002
1.394330e+003,1.261214e+002
1.395294e+003,1.259547e+002
1.396258e+003,1.255622e+002
1.397222e+003,1.236861e+002
1.398187e+003,1.209968e+002
1.399151e+003,1.206070e+002
1.400115e+003,1.246436e+002
1.401079e+003,1.299090e+002
1.402044e+003,1.302390e+002
1.403008e+003,1.255522e+002
1.403972e+003,1.233192e+002
1.404936e+003,1.244885e+002
1.405901e+003,1.258938e+002
1.406865e+003,1.262429e+002
1.407829e+003,1.264832e+002
1.408793e+003,1.277707e+002
1.409757e+003,1.299648e+002
1.410722e+003,1.320517e+002
1.411686e+003,1.336703e+002
1.412650e+003,1.349037e+002
1.413614e+003,1.362292e+002
1.414579e+003,1.370422e+002
1.415543e+003,1.357910e+002
1.416507e+003,1.336352e+002
1.417471e+003,1.339143e+002
1.418436e+003,1.375490e+002
1.419400e+003,1.411420e+002
1.420364e+003,1.413508e+002
1.421328e+003,1.390164e+002
1.422292e+003,1.369968e+002
1.423257e+003,1.348000e+002
1.424221e+003,1.342112e+002
1.425185e+003,1.368139e+002
1.426149e+003,1.393589e+002
1.427114e+003,1.415525e+002
1.428078e+003,1.432875e+002
1.429042e+003,1.439126e+002
1.430006e+003,1.437677e+002
1.430971e+003,1.440482e+002
1.431935e+003,1.453691e+002
1.432899e+003,1.469686e+002
1.433863e+003,1.477676e+002
1.434828e+003,1.479336e+002
1.435792e+003,1.484236e+002
1.436756e+003,1.493770e+002
1.437720e+003,1.495497e+002
1.438684e+003,1.485445e+002
1.439649e+003,1.475294e+002
1.440613e+003,1.470309e+002
1.441577e+003,1.470281e+002
1.442541e+003,1.471977e+002
1.443506e+003,1.474542e+002
1.444470e+003,1.486064e+002
1.445434e+003,1.516035e+002
1.446398e+003,1.546526e+002
1.447363e+003,1.546809e+002
1.448327e+003,1.527228e+002
1.449291e+003,1.514073e+002
1.450255e+003,1.509530e+002
1.451219e+003,1.515422e+002
1.452184e+003,1.537734e+002
1.453148e+003,1.563713e+002
1.454112e+003,1.577131e+002
1.455076e+003,1.579342e+002
1.456041e+003,1.579080e+002
1.457005e+003,1.576520e+002
1.457969e+003,1.579710e+002
1.458933e+003,1.599149e+002
1.459898e+003,1.617234e+002
1.460862e+003,1.621519e+002
1.461826e+003,1.616634e+002
1.462790e+003,1.607981e+002
1.463755e+003,1.598760e+002
1.464719e+003,1.596176e+002
1.465683e+003,1.606459e+002
1.466647e+003,1.620520e+002
1.467611e+003,1.612418e+002
1.468576e+003,1.574062e+002
1.469540e+003,1.568683e+002
1.470504e+003,1.628384e+002
1.471468e+003,1.675225e+002
1.472433e+003,1.697029e+002
1.473397e+003,1.704640e+002
1.474361e+003,1.700766e+002
1.475325e+003,1.689834e+002
1.476290e+003,1.671414e+002
1.477254e+003,1.648909e+002
1.478218e+003,1.637125e+002
1.479182e+003,1.648999e+002
1.480146e+003,1.674013e+002
1.481111e+003,1.687475e+002
1.482075e+003,1.687947e+002
1.483039e+003,1.679933e+002
1.484003e+003,1.651923e+002
1.484968e+003,1.634818e+002
1.485932e+003,1.642516e+002
1.486896e+003,1.659894e+002
1.487860e+003,1.675941e+002
1.488825e+003,1.688648e+002
1.489789e+003,1.698546e+002
1.490753e+003,1.706227e+002
1.491717e+003,1.709583e+002
1.492682e+003,1.704245e+002
1.493646e+003,1.698765e+002
1.494610e+003,1.713041e+002
1.495574e+003,1.738719e+002
1.496538e+003,1.749496e+002
1.497503e+003,1.742321e+002
1.498467e+003,1.728291e+002
1.499431e+003,1.702329e+002
1.500395e+003,1.679311e+002
1.501360e+003,1.686696e+002
1.502324e+003,1.717574e+002
1.503288e+003,1.729720e+002
1.504252e+003,1.710764e+002
1.505217e+003,1.695826e+002
1.506181e+003,1.706608e+002
1.507145e+003,1.722474e+002
1.508109e+003,1.725853e+002
1.509073e+003,1.723489e+002
1.510038e+003,1.729118e+002
1.511002e+003,1.742438e+002
1.511966e+003,1.745004e+002
1.512930e+003,1.723729e+002
1.513895e+003,1.695115e+002
1.514859e+003,1.686144e+002
1.515823e+003,1.695224e+002
1.516787e+003,1.707132e+002
1.517752e+003,1.727764e+002
1.518716e+003,1.741478e+002
1.519680e+003,1.746320e+002
1.520644e+003,1.737698e+002
1.521609e+003,1.695165e+002
1.522573e+003,1.649404e+002
1.523537e+003,1.644975e+002
1.524501e+003,1.677157e+002
1.525465e+003,1.700500e+002
1.526430e+003,1.688148e+002
1.527394e+003,1.661815e+002
1.528358e+003,1.657235e+002
1.529322e+003,1.672874e+002
1.530287e+003,1.672510e+002
1.531251e+003,1.642496e+002
1.532215e+003,1.625674e+002
1.533179e+003,1.624561e+002
1.534144e+003,1.631561e+002
1.535108e+003,1.652582e+002
1.536072e+003,1.673228e+002
1.537036e+003,1.680446e+002
1.538000e+003,1.673807e+002
1.538965e+003,1.655524e+002
1.539929e+003,1.627473e+002
1.540893e+003,1.599193e+002
1.541857e+003,1.582451e+002
1.542822e+003,1.576363e+002
1.543786e+003,1.570967e+002
1.544750e+003,1.563937e+002
1.545714e+003,1.561312e+002
1.546679e+003,1.563736e+002
1.547643e+003,1.567951e+002
1.548607e+003,1.577188e+002
1.549571e+003,1.586627e+002
1.550536e+003,1.592142e+002
1.551500e+003,1.590905e+002
1.552464e+003,1.578205e+002
1.553428e+003,1.555076e+002
1.554392e+003,1.533804e+002
1.555357e+003,1.522197e+002
1.556321e+003,1.518587e+002
1.557285e+003,1.525374e+002
1.558249e+003,1.542116e+002
1.559214e+003,1.546349e+002
1.560178e+003,1.536054e+002
1.561142e+003,1.518622e+002
1.562106e+003,1.490626e+002
1.563071e+003,1.459027e+002
1.564035e+003,1.426039e+002
1.564999e+003,1.398006e+002
1.565963e+003,1.388889e+002
1.566927e+003,1.399314e+002
1.567892e+003,1.411086e+002
1.568856e+003,1.416254e+002
1.569820e+003,1.416451e+002
1.570784e+003,1.412068e+002
1.571749e+003,1.404288e+002
1.572713e+003,1.395696e+002
1.573677e+003,1.387253e+002
1.574641e+003,1.383550e+002
1.575606e+003,1.389199e+002
1.576570e+003,1.390157e+002
1.577534e+003,1.372773e+002
1.578498e+003,1.346024e+002
1.579463e+003,1.327668e+002
1.580427e+003,1.316871e+002
1.581391e+003,1.296058e+002
1.582355e+003,1.256775e+002
1.583319e+003,1.222214e+002
1.584284e+003,1.206078e+002
1.585248e+003,1.207013e+002
1.586212e+003,1.232367e+002
1.587176e+003,1.266596e+002
1.588141e+003,1.269312e+002
1.589105e+003,1.233843e+002
1.590069e+003,1.194736e+002
1.591033e+003,1.169407e+002
1.591998e+003,1.155189e+002
1.592962e+003,1.152364e+002
1.593926e+003,1.158131e+002
1.594890e+003,1.157424e+002
1.595854e+003,1.148549e+002
1.596819e+003,1.140431e+002
1.597783e+003,1.136062e+002
1.598747e+003,1.131033e+002
1.599711e+003,1.125839e+002
1.600676e+003,1.115812e+002
1.601640e+003,1.091034e+002
1.602604e+003,1.056448e+002
1.603568e+003,1.033407e+002
1.604533e+003,1.030469e+002
1.605497e+003,1.026331e+002
1.606461e+003,9.930476e+001
1.607425e+003,9.464783e+001
1.608390e+003,9.360610e+001
1.609354e+003,9.639818e+001
1.610318e+003,9.751438e+001
1.611282e+003,9.519480e+001
1.612246e+003,9.299388e+001
1.613211e+003,9.299266e+001
1.614175e+003,9.324371e+001
1.615139e+003,9.235022e+001
1.616103e+003,9.100018e+001
1.617068e+003,9.055444e+001
1.618032e+003,9.098613e+001
1.618996e+003,9.066062e+001
1.619960e+003,8.851085e+001
1.620925e+003,8.563316e+001
1.621889e+003,8.375696e+001
1.622853e+003,8.267845e+001
1.623817e+003,8.066276e+001
1.624781e+003,7.752324e+001
1.625746e+003,7.511063e+001
1.626710e+003,7.363889e+001
1.627674e+003,7.300233e+001
1.628638e+003,7.362193e+001
1.629603e+003,7.439616e+001
1.630567e+003,7.444429e+001
1.631531e+003,7.405173e+001
1.632495e+003,7.439304e+001
1.633460e+003,7.553264e+001
1.634424e+003,7.506227e+001
1.635388e+003,7.076912e+001
1.636352e+003,6.521095e+001
1.637317e+003,6.343493e+001
1.638281e+003,6.511605e+001
1.639245e+003,6.528555e+001
1.640209e+003,6.337617e+001
1.641173e+003,6.162743e+001
1.642138e+003,6.067272e+001
1.643102e+003,6.000781e+001
1.644066e+003,5.993495e+001
1.645030e+003,5.952116e+001
1.645995e+003,5.721428e+001
1.646959e+003,5.386775e+001
1.647923e+003,5.185802e+001
1.648887e+003,5.188146e+001
1.649852e+003,5.251656e+001
1.650816e+003,5.269645e+001
1.651780e+003,5.250251e+001
1.652744e+003,5.210394e+001
1.653708e+003,5.149083e+001
1.654673e+003,5.054682e+001
1.655637e+003,4.920646e+001
1.656601e+003,4.770662e+001
1.657565e+003,4.571799e+001
1.658530e+003,4.420040e+001
1.659494e+003,4.424075e+001
1.660458e+003,4.451918e+001
1.661422e+003,4.363282e+001
1.662387e+003,4.169946e+001
1.663351e+003,3.914835e+001
1.664315e+003,3.622269e+001
1.665279e+003,3.446761e+001
1.666244e+003,3.582258e+001
1.667208e+003,3.831432e+001
1.668172e+003,3.726685e+001
1.669136e+003,3.298100e+001
1.670100e+003,3.061879e+001
1.671065e+003,3.079166e+001
1.672029e+003,3.198029e+001
1.672993e+003,3.490983e+001
1.673957e+003,3.715808e+001
1.674922e+003,3.686420e+001
1.675886e+003,3.527012e+001
1.676850e+003,3.331350e+001
1.677814e+003,3.134112e+001
1.678779e+003,3.011661e+001
1.679743e+003,2.988675e+001
1.680707e+003,2.960909e+001
1.681671e+003,2.825129e+001
1.682635e+003,2.655347e+001
1.683600e+003,2.607003e+001
1.684564e+003,2.656159e+001
1.685528e+003,2.606954e+001
1.686492e+003,2.414589e+001
1.687457e+003,2.285411e+001
1.688421e+003,2.327501e+001
1.689385e+003,2.393179e+001
1.690349e+003,2.386588e+001
1.691314e+003,2.337938e+001
1.692278e+003,2.278026e+001
1.693242e+003,2.194727e+001
1.694206e+003,2.018536e+001
1.695171e+003,1.715856e+001
1.696135e+003,1.525128e+001
1.697099e+003,1.661218e+001
1.698063e+003,1.921264e+001
1.699027e+003,2.103154e+001
1.699992e+003,2.192014e+001
1.700956e+003,2.068814e+001
1.701920e+003,1.730818e+001
1.702884e+003,1.582487e+001
1.703849e+003,1.825547e+001
1.704813e+003,2.034719e+001
1.705777e+003,1.814460e+001
1.706741e+003,1.437423e+001
1.707706e+003,1.385240e+001
1.708670e+003,1.570715e+001
1.709634e+003,1.638942e+001
1.710598e+003,1.524550e+001
1.711563e+003,1.427668e+001
1.712527e+003,1.480898e+001
1.713491e+003,1.527465e+001
1.714455e+003,1.414197e+001
1.715419e+003,1.224991e+001
1.716384e+003,1.082576e+001
1.717348e+003,1.001715e+001
1.718312e+003,1.009080e+001
1.719276e+003,1.112363e+001
1.720241e+003,1.165311e+001
1.721205e+003,1.047816e+001
1.722169e+003,8.729449e+000
1.723133e+003,8.235559e+000
1.724098e+003,8.903833e+000
1.725062e+003,9.626673e+000
1.726026e+003,1.047012e+001
1.726990e+003,1.086581e+001
1.727954e+003,1.030651e+001
1.728919e+003,9.810669e+000
1.729883e+003,1.019977e+001
1.730847e+003,1.057971e+001
1.731811e+003,9.880377e+000
1.732776e+003,8.472919e+000
1.733740e+003,7.180097e+000
1.734704e+003,6.281311e+000
1.735668e+003,6.026202e+000
1.736633e+003,6.543231e+000
1.737597e+003,6.929181e+000
1.738561e+003,5.890991e+000
1.739525e+003,4.016315e+000
1.740490e+003,4.071259e+000
1.741454e+003,7.078753e+000
1.742418e+003,8.037341e+000
1.743382e+003,4.852942e+000
1.744346e+003,2.868420e+000
1.745311e+003,3.928680e+000
1.746275e+003,5.270196e+000
1.747239e+003,5.440619e+000
1.748203e+003,4.878870e+000
1.749168e+003,4.009906e+000
1.750132e+003,3.112705e+000
1.751096e+003,2.597098e+000
1.752060e+003,2.558591e+000
1.753025e+003,2.546500e+000
1.753989e+003,2.155881e+000
1.754953e+003,1.591058e+000
1.755917e+003,1.329483e+000
1.756881e+003,1.373947e+000
1.757846e+003,1.066034e+000
1.758810e+003,-5.828857e-002
1.759774e+003,-4.714356e-002
1.760738e+003,2.698215e+000
1.761703e+003,4.642041e+000
1.762667e+003,4.073438e+000
1.763631e+003,2.699167e+000
1.764595e+003,1.848907e+000
1.765560e+003,1.271570e+000
1.766524e+003,-1.653748e-002
1.767488e+003,-1.945923e+000
1.768452e+003,-3.009421e+000
1.769417e+003,-2.340183e+000
1.770381e+003,-9.811615e-001
1.771345e+003,1.647369e-001
1.772309e+003,9.655823e-001
1.773273e+003,9.597321e-001
1.774238e+003,2.019348e-001
1.775202e+003,-4.324249e-001
1.776166e+003,-8.063904e-001
1.777130e+003,-1.054117e+000
1.778095e+003,-1.236957e+000
1.779059e+003,-1.237674e+000
1.780023e+003,-9.901886e-001
1.780987e+003,-4.993347e-001
1.781952e+003,4.977112e-001
1.782916e+003,1.730551e+000
1.783880e+003,1.815958e+000
1.784844e+003,2.647186e-001
1.785808e+003,-8.122040e-001
1.786773e+003,1.324005e-001
1.787737e+003,1.085721e+000
1.788701e+003,6.839599e-002
1.789665e+003,-1.658194e+000
1.790630e+003,-1.994232e+000
1.791594e+003,-1.279724e+000
1.792558e+003,-1.477182e+000
1.793522e+003,-2.979333e+000
1.794487e+003,-3.940179e+000
1.795451e+003,-3.152902e+000
1.796415e+003,-1.785379e+000
1.797379e+003,-1.462317e+000
1.798344e+003,-1.983649e+000
1.799308e+003,-2.236066e+000
1.800272e+003,-2.246487e+000
1.801236e+003,-1.994244e+000
1.802201e+003,-6.087158e-001
1.803165e+003,-1.791351e-001
1.804129e+003,-2.283316e+000
1.805093e+003,-3.911166e+000
1.806057e+003,-2.745551e+000
1.807022e+003,-8.075897e-001
1.807986e+003,-6.426209e-001
1.808950e+003,-1.726444e+000
1.809914e+003,-1.950855e+000
1.810879e+003,-8.110840e-001
1.811843e+003,4.511200e-001
1.812807e+003,9.269470e-001
1.813771e+003,5.637268e-001
1.814736e+003,-9.780884e-001
1.815700e+003,-3.315335e+000
1.816664e+003,-4.229718e+000
1.817628e+003,-3.586499e+000
1.818593e+003,-3.118350e+000
1.819557e+003,-3.091159e+000
1.820521e+003,-2.865039e+000
1.821485e+003,-1.909464e+000
1.822449e+003,-1.115512e+000
1.823414e+003,-1.274460e+000
1.824378e+003,-1.956253e+000
1.825342e+003,-2.672311e+000
1.826306e+003,-3.346283e+000
1.827271e+003,-3.991889e+000
1.828235e+003,-4.650885e+000
1.829199e+003,-4.901041e+000
1.830163e+003,-4.233920e+000
1.831128e+003,-3.408322e+000
1.832092e+003,-3.119699e+000
1.833056e+003,-3.080417e+000
1.834020e+003,-2.871817e+000
1.834984e+003,-2.513110e+000
1.835949e+003,-1.962744e+000
1.836913e+003,-1.274747e+000
1.837877e+003,-1.339386e+000
1.838841e+003,-2.721488e+000
1.839806e+003,-3.800336e+000
1.840770e+003,-2.562784e+000
1.841734e+003,-1.296051e-001
1.842698e+003,9.863282e-003
1.843663e+003,-2.500793e+000
1.844627e+003,-3.652838e+000
1.845591e+003,-2.219898e+000
1.846555e+003,-1.395746e+000
1.847520e+003,-2.000995e+000
1.848484e+003,-2.361374e+000
1.849448e+003,-1.238831e+000
1.850412e+003,-1.025757e-001
1.851376e+003,-3.226776e-001
1.852341e+003,-1.387912e+000
1.853305e+003,-2.537036e+000
1.854269e+003,-3.453143e+000
1.855233e+003,-3.759131e+000
1.856198e+003,-3.279700e+000
1.857162e+003,-2.544559e+000
1.858126e+003,-2.077341e+000
1.859090e+003,-1.704968e+000
1.860055e+003,-1.028101e+000
1.861019e+003,-1.842743e-001
1.861983e+003,2.745239e-001
1.862947e+003,3.427887e-001
1.863911e+003,-2.528778e-001
1.864876e+003,-1.791913e+000
1.865840e+003,-2.847440e+000
1.866804e+003,-2.467255e+000
1.867768e+003,-1.604382e+000
1.868733e+003,-1.470453e+000
1.869697e+003,-1.678897e+000
1.870661e+003,-8.359619e-001
1.871625e+003,1.069827e+000
1.872590e+003,2.092737e+000
1.873554e+003,1.709934e+000
1.874518e+003,1.130392e+000
1.875482e+003,3.579956e-001
1.876447e+003,-9.617309e-002
1.877411e+003,4.865234e-001
1.878375e+003,1.248416e+000
1.879339e+003,9.521850e-001
1.880303e+003,3.515015e-002
1.881268e+003,-1.221680e-001
1.882232e+003,5.440674e-001
1.883196e+003,5.758697e-001
1.884160e+003,-7.386719e-001
1.885125e+003,-2.071393e+000
1.886089e+003,-1.932822e+000
1.887053e+003,-7.992859e-001
1.888017e+003,1.879211e-001
1.888982e+003,1.045541e+000
1.889946e+003,1.555731e+000
1.890910e+003,1.743961e+000
1.891874e+003,1.470377e+000
1.892839e+003,5.589477e-001
1.893803e+003,-5.836700e-001
1.894767e+003,-2.240445e+000
1.895731e+003,-3.444943e+000
1.896695e+003,-3.139255e+000
1.897660e+003,-1.937518e+000
1.898624e+003,-4.814880e-001
1.899588e+003,1.033167e+000
1.900552e+003,1.433243e+000
1.901517e+003,1.679993e-001
1.902481e+003,-1.087207e+000
1.903445e+003,-1.980878e+000
1.904409e+003,-2.207397e+000
1.905374e+003,-9.373047e-001
1.906338e+003,6.409454e-001
1.907302e+003,1.150238e+000
1.908266e+003,7.316772e-001
1.909230e+003,-3.494690e-001
1.910195e+003,-1.687448e+000
1.911159e+003,-2.221146e+000
1.912123e+003,-1.509433e+000
1.913087e+003,-2.961029e-001
1.914052e+003,7.279693e-001
1.915016e+003,1.358701e+000
1.915980e+003,1.106216e+000
1.916944e+003,6.401978e-002
1.917909e+003,-5.790680e-001
1.918873e+003,-7.721710e-001
1.919837e+003,-7.007751e-001
1.920801e+003,-2.507843e-001
1.921766e+003,3.369446e-002
1.922730e+003,-1.570587e-001
1.923694e+003,-4.561951e-001
1.924658e+003,-7.685059e-001
1.925622e+003,-8.686829e-001
1.926587e+003,-1.857666e-001
1.927551e+003,9.516479e-001
1.928515e+003,1.335678e+000
1.929479e+003,8.014923e-001
1.930444e+003,7.153320e-003
1.931408e+003,-1.404663e+000
1.932372e+003,-2.266449e+000
1.933336e+003,-1.899231e+000
1.934301e+003,-9.025909e-001
1.935265e+003,9.891297e-001
1.936229e+003,2.707532e+000
1.937193e+003,2.153580e+000
1.938157e+003,2.060913e-001
1.939122e+003,-8.759765e-002
1.940086e+003,1.750595e+000
1.941050e+003,3.152841e+000
1.942014e+003,2.572525e+000
1.942979e+003,1.414163e+000
1.943943e+003,1.484549e+000
1.944907e+003,2.166092e+000
1.945871e+003,1.467343e+000
1.946836e+003,-4.816437e-001
1.947800e+003,-1.298624e+000
1.948764e+003,-8.401672e-001
1.949728e+003,-5.328247e-001
1.950693e+003,-8.028992e-001
1.951657e+003,-6.723877e-001
1.952621e+003,7.827362e-001
1.953585e+003,2.012579e+000
1.954549e+003,1.193961e+000
1.955514e+003,-6.777802e-001
1.956478e+003,-1.480640e+000
1.957442e+003,-1.267584e+000
1.958406e+003,-8.723419e-001
1.959371e+003,-4.210510e-001
1.960335e+003,4.677490e-001
1.961299e+003,2.549384e+000
1.962263e+003,4.126428e+000
1.963228e+003,4.530786e+000
1.964192e+003,4.304099e+000
1.965156e+003,3.580835e+000
1.966120e+003,2.639423e+000
1.967084e+003,1.530689e+000
1.968049e+003,5.775360e-001
1.969013e+003,3.574677e-001
1.969977e+003,9.416138e-001
1.970941e+003,2.007407e+000
1.971906e+003,3.445721e+000
1.972870e+003,4.480014e+000
1.973834e+003,4.206460e+000
1.974798e+003,3.102820e+000
1.975763e+003,1.502872e+000
1.976727e+003,-1.902527e-001
1.977691e+003,-5.165008e-001
1.978655e+003,4.243713e-001
1.979620e+003,1.447354e+000
1.980584e+003,2.269965e+000
1.981548e+003,2.534305e+000
1.982512e+003,1.989163e+000
1.983476e+003,1.201364e+000
1.984441e+003,7.217895e-001
1.985405e+003,6.496002e-001
1.986369e+003,1.330713e+000
1.987333e+003,2.762225e+000
1.988298e+003,3.239514e+000
1.989262e+003,2.117685e+000
1.990226e+003,1.767017e+000
1.991190e+003,2.812036e+000
1.992155e+003,3.671753e+000
1.993119e+003,4.151697e+000
1.994083e+003,4.152225e+000
1.995047e+003,3.313550e+000
1.996011e+003,2.175580e+000
1.996976e+003,1.195190e+000
1.997940e+003,4.339661e-001
1.998904e+003,-2.496216e-001
1.999868e+003,-8.119965e-001
2.000833e+003,-1.279877e-001
2.001797e+003,2.854617e+000
2.002761e+003,5.005850e+000
2.003725e+003,4.154666e+000
2.004690e+003,3.247943e+000
2.005654e+003,4.631692e+000
2.006618e+003,6.480646e+000
2.007582e+003,7.017444e+000
2.008547e+003,6.495465e+000
2.009511e+003,5.259860e+000
2.010475e+003,3.791870e+000
2.011439e+003,3.035022e+000
2.012403e+003,3.264066e+000
2.013368e+003,3.948474e+000
2.014332e+003,4.773770e+000
2.015296e+003,5.321793e+000
2.016260e+003,4.602377e+000
2.017225e+003,3.504669e+000
2.018189e+003,4.584863e+000
2.019153e+003,7.084412e+000
2.020117e+003,7.824328e+000
2.021082e+003,6.706030e+000
2.022046e+003,5.683347e+000
2.023010e+003,5.282660e+000
2.023974e+003,4.839831e+000
2.024938e+003,3.938232e+000
2.025903e+003,3.283221e+000
2.026867e+003,3.699817e+000
2.027831e+003,4.589303e+000
2.028795e+003,4.472083e+000
2.029760e+003,3.452637e+000
2.030724e+003,3.582983e+000
2.031688e+003,5.397250e+000
2.032652e+003,6.133722e+000
2.033617e+003,5.271573e+000
2.034581e+003,4.307404e+000
2.035545e+003,3.123657e+000
2.036509e+003,2.788223e+000
2.037474e+003,4.445938e+000
2.038438e+003,6.561646e+000
2.039402e+003,7.820142e+000
2.040366e+003,8.298456e+000
2.041330e+003,7.966510e+000
2.042295e+003,6.886841e+000
2.043259e+003,6.005292e+000
2.044223e+003,5.374988e+000
2.045187e+003,5.055600e+000
2.046152e+003,5.297607e+000
2.047116e+003,5.486938e+000
2.048080e+003,5.336835e+000
2.049044e+003,5.061847e+000
2.050009e+003,4.458160e+000
2.050973e+003,4.167276e+000
2.051937e+003,5.527997e+000
2.052901e+003,7.598218e+000
2.053865e+003,7.858813e+000
2.054830e+003,6.169427e+000
2.055794e+003,5.187716e+000
2.056758e+003,6.153772e+000
2.057722e+003,7.205560e+000
2.058687e+003,6.714624e+000
2.059651e+003,6.059744e+000
2.060615e+003,6.512793e+000
2.061579e+003,7.597534e+000
2.062544e+003,9.402155e+000
2.063508e+003,1.110690e+001
2.064472e+003,1.059019e+001
2.065436e+003,8.301239e+000
2.066401e+003,6.839404e+000
2.067365e+003,6.931897e+000
2.068329e+003,7.116882e+000
2.069293e+003,6.478241e+000
2.070258e+003,5.746377e+000
2.071222e+003,5.799685e+000
2.072186e+003,6.339313e+000
2.073150e+003,6.714661e+000
2.074115e+003,6.980658e+000
2.075079e+003,7.375257e+000
2.076043e+003,7.859143e+000
2.077007e+003,8.413874e+000
2.077971e+003,9.045691e+000
2.078936e+003,9.169165e+000
2.079900e+003,8.546637e+000
2.080864e+003,7.431256e+000
2.081828e+003,5.936408e+000
2.082792e+003,4.687256e+000
2.083757e+003,4.563571e+000
2.084721e+003,5.412744e+000
2.085685e+003,6.925855e+000
2.086649e+003,9.203705e+000
2.087614e+003,9.891797e+000
2.088578e+003,8.597034e+000
2.089542e+003,7.610559e+000
2.090506e+003,7.149793e+000
2.091471e+003,6.958099e+000
2.092435e+003,7.140180e+000
2.093399e+003,7.245526e+000
2.094363e+003,6.959943e+000
2.095328e+003,6.431549e+000
2.096292e+003,5.520303e+000
2.097256e+003,4.630868e+000
2.098220e+003,5.589767e+000
2.099185e+003,8.803388e+000
2.100149e+003,1.011538e+001
2.101113e+003,7.864496e+000
2.102077e+003,6.688605e+000
2.103042e+003,8.024554e+000
2.104006e+003,8.507306e+000
2.104970e+003,6.183694e+000
2.105934e+003,4.309171e+000
2.106898e+003,5.101581e+000
2.107863e+003,6.753632e+000
2.108827e+003,7.700671e+000
2.109791e+003,7.993518e+000
2.110755e+003,7.403424e+000
2.111719e+003,6.066827e+000
2.112684e+003,6.554199e+000
2.113648e+003,1.048572e+001
2.114612e+003,1.264555e+001
2.115576e+003,1.078342e+001
2.116541e+003,8.548322e+000
2.117505e+003,6.657898e+000
2.118469e+003,5.502246e+000
2.119433e+003,5.776498e+000
2.120398e+003,6.510553e+000
2.121362e+003,6.654376e+000
2.122326e+003,6.460608e+000
2.123290e+003,6.649463e+000
2.124255e+003,7.250549e+000
2.125219e+003,7.873163e+000
2.126183e+003,8.426722e+000
2.127147e+003,8.488586e+000
2.128112e+003,7.527344e+000
2.129076e+003,6.636987e+000
2.130040e+003,6.402448e+000
2.131004e+003,6.431488e+000
2.131969e+003,6.498474e+000
2.132933e+003,6.537207e+000
2.133897e+003,6.603387e+000
2.134861e+003,6.639917e+000
2.135825e+003,6.453467e+000
2.136790e+003,6.060446e+000
2.137754e+003,5.567239e+000
2.138718e+003,5.078827e+000
2.139682e+003,5.121497e+000
2.140646e+003,6.188165e+000
2.141611e+003,7.185065e+000
2.142575e+003,7.104895e+000
2.143539e+003,6.557959e+000
2.144503e+003,6.159955e+000
2.145468e+003,5.774545e+000
2.146432e+003,4.900659e+000
2.147396e+003,3.957962e+000
2.148360e+003,3.836813e+000
2.149325e+003,4.487067e+000
2.150289e+003,5.461853e+000
2.151253e+003,6.468561e+000
2.152217e+003,7.062610e+000
2.153182e+003,7.020551e+000
2.154146e+003,6.408237e+000
2.155110e+003,4.949277e+000
2.156074e+003,3.452600e+000
2.157039e+003,3.036227e+000
2.158003e+003,3.121606e+000
2.158967e+003,2.551962e+000
2.159931e+003,1.917993e+000
2.160896e+003,3.140832e+000
2.161860e+003,5.542148e+000
2.162824e+003,6.281754e+000
2.163788e+003,4.904761e+000
2.164752e+003,3.292535e+000
2.165717e+003,2.415122e+000
2.166681e+003,1.715546e+000
2.167645e+003,6.351654e-001
2.168609e+003,-1.786133e-001
2.169573e+003,4.611725e-001
2.170538e+003,1.846081e+000
2.171502e+003,2.935727e+000
2.172466e+003,3.447461e+000
2.173430e+003,2.217807e+000
2.174395e+003,-3.708191e-002
2.175359e+003,-6.933106e-001
2.176323e+003,4.279175e-001
2.177287e+003,1.518579e+000
2.178252e+003,1.766470e+000
2.179216e+003,1.193402e+000
2.180180e+003,-1.873444e-001
2.181144e+003,-1.429852e+000
2.182109e+003,-1.395657e+000
2.183073e+003,-5.157257e-001
2.184037e+003,8.369080e-001
2.185001e+003,2.207889e+000
2.185966e+003,2.297134e+000
2.186930e+003,1.449139e+000
2.187894e+003,9.171723e-001
2.188858e+003,7.064850e-001
2.189823e+003,-5.139831e-001
2.190787e+003,-2.791299e+000
2.191751e+003,-3.412033e+000
2.192715e+003,-1.008466e+000
2.193679e+003,1.505298e+000
2.194644e+003,1.289191e+000
2.195608e+003,-1.692261e-001
2.196572e+003,-6.684387e-001
2.197536e+003,-4.791992e-001
2.198500e+003,-3.820801e-003
2.199465e+003,5.461823e-001
2.200429e+003,5.484589e-001
2.201393e+003,-9.033203e-003
2.202357e+003,-1.275763e+000
2.203322e+003,-2.966483e+000
2.204286e+003,-3.515656e+000
2.205250e+003,-2.462778e+000
2.206214e+003,-1.285812e+000
2.207179e+003,-9.915863e-001
2.208143e+003,-1.136224e+000
2.209107e+003,-1.305310e+000
2.210071e+003,-1.341833e+000
2.211036e+003,-6.927490e-001
2.212000e+003,1.817169e-001
2.212964e+003,9.393921e-002
2.213928e+003,-7.588867e-001
2.214893e+003,-1.821814e+000
2.215857e+003,-2.840512e+000
2.216821e+003,-3.455603e+000
2.217785e+003,-3.572568e+000
2.218750e+003,-3.066125e+000
2.219714e+003,-1.974915e+000
2.220678e+003,-1.216943e+000
2.221642e+003,-1.557419e+000
2.222606e+003,-2.142761e+000
2.223571e+003,-1.823767e+000
2.224535e+003,-1.088333e+000
2.225499e+003,-7.099060e-001
2.226463e+003,-6.065338e-001
2.227427e+003,-5.603393e-001
2.228392e+003,-6.552612e-001
2.229356e+003,-1.478516e+000
2.230320e+003,-2.676428e+000
2.231284e+003,-2.582938e+000
2.232249e+003,-1.068472e+000
2.233213e+003,-1.972717e-001
2.234177e+003,-1.004608e+000
2.235141e+003,-2.248966e+000
2.236106e+003,-2.977878e+000
2.237070e+003,-3.265573e+000
2.238034e+003,-2.960168e+000
2.238998e+003,-2.533099e+000
2.239963e+003,-2.576062e+000
2.240927e+003,-2.984372e+000
2.241891e+003,-3.934558e+000
2.242855e+003,-4.888617e+000
2.243820e+003,-4.446765e+000
2.244784e+003,-2.969467e+000
2.245748e+003,-2.359436e+000
2.246712e+003,-3.039203e+000
2.247677e+003,-3.666702e+000
2.248641e+003,-3.540903e+000
2.249605e+003,-2.859818e+000
2.250569e+003,-1.426459e+000
2.251533e+003,-9.027100e-002
2.252498e+003,4.772034e-001
2.253462e+003,4.229523e-001
2.254426e+003,-6.258850e-001
2.255390e+003,-1.757446e+000
2.256354e+003,-1.545706e+000
2.257319e+003,-6.280823e-001
2.258283e+003,-2.209137e-001
2.259247e+003,-5.180115e-001
2.260211e+003,-1.519397e+000
2.261176e+003,-3.053461e+000
2.262140e+003,-3.740311e+000
2.263104e+003,-2.727725e+000
2.264068e+003,-1.902499e+000
2.265033e+003,-2.908453e+000
2.265997e+003,-3.623035e+000
2.266961e+003,-1.910364e+000
2.267925e+003,-4.071960e-001
2.268890e+003,-1.808792e+000
2.269854e+003,-3.971210e+000
2.270818e+003,-4.346838e+000
2.271782e+003,-3.713620e+000
2.272747e+003,-3.727145e+000
2.273711e+003,-4.402704e+000
2.274675e+003,-4.888397e+000
2.275639e+003,-5.017297e+000
2.276604e+003,-5.408975e+000
2.277568e+003,-6.911819e+000
2.278532e+003,-7.195483e+000
2.279496e+003,-4.283768e+000
2.280460e+003,-2.120255e+000
2.281425e+003,-2.458038e+000
2.282389e+003,-3.526083e+000
2.283353e+003,-4.827530e+000
2.284317e+003,-5.799741e+000
2.285281e+003,-5.641253e+000
2.286246e+003,-5.024457e+000
2.287210e+003,-5.537988e+000
2.288174e+003,-6.794861e+000
2.289138e+003,-5.851343e+000
2.290103e+003,-1.701639e+000
2.291067e+003,-3.595490e-001
2.292031e+003,-4.062982e+000
2.292995e+003,-6.203082e+000
2.293960e+003,-5.627810e+000
2.294924e+003,-5.244494e+000
2.295888e+003,-5.931104e+000
2.296852e+003,-6.525757e+000
2.297817e+003,-6.468286e+000
2.298781e+003,-6.021646e+000
2.299745e+003,-5.172965e+000
2.300709e+003,-4.443964e+000
2.301674e+003,-4.885681e+000
2.302638e+003,-6.218604e+000
2.303602e+003,-6.996610e+000
2.304566e+003,-7.242645e+000
2.305531e+003,-6.734686e+000
2.306495e+003,-5.250693e+000
2.307459e+003,-4.500421e+000
2.308423e+003,-4.748929e+000
2.309387e+003,-4.884940e+000
2.310352e+003,-4.614224e+000
2.311316e+003,-4.427148e+000
2.312280e+003,-4.548746e+000
2.313244e+003,-4.665283e+000
2.314208e+003,-4.542291e+000
2.315173e+003,-4.241708e+000
2.316137e+003,-3.646725e+000
2.317101e+003,-3.371530e+000
2.318065e+003,-6.082388e+000
2.319030e+003,-1.035203e+001
2.319994e+003,-9.715490e+000
2.320958e+003,-5.446313e+000
2.321922e+003,-2.575079e+000
2.322887e+003,-1.639609e+000
2.323851e+003,-2.544699e+000
2.324815e+003,-4.784576e+000
2.325779e+003,-6.516171e+000
2.326744e+003,-7.028711e+000
2.327708e+003,-7.247153e+000
2.328672e+003,-7.779779e+000
2.329636e+003,-7.876840e+000
2.330601e+003,-6.434991e+000
2.331565e+003,-4.859567e+000
2.332529e+003,-4.837094e+000
2.333493e+003,-5.447757e+000
2.334458e+003,-5.974640e+000
2.335422e+003,-6.155563e+000
2.336386e+003,-5.375146e+000
2.337350e+003,-4.203314e+000
2.338314e+003,-3.501202e+000
2.339279e+003,-3.435745e+000
2.340243e+003,-4.057449e+000
2.341207e+003,-5.287311e+000
2.342171e+003,-6.603354e+000
2.343135e+003,-7.982373e+000
2.344100e+003,-8.708310e+000
2.345064e+003,-8.332117e+000
2.346028e+003,-7.558362e+000
2.346992e+003,-5.915280e+000
2.347957e+003,-4.820193e+000
2.348921e+003,-5.390860e+000
2.349885e+003,-6.315534e+000
2.350849e+003,-7.001205e+000
2.351814e+003,-7.246939e+000
2.352778e+003,-6.505918e+000
2.353742e+003,-5.267362e+000
2.354706e+003,-4.618713e+000
2.355671e+003,-4.532126e+000
2.356635e+003,-5.115622e+000
2.357599e+003,-6.887784e+000
2.358563e+003,-7.049857e+000
2.359528e+003,-4.760959e+000
2.360492e+003,-3.799698e+000
2.361456e+003,-4.978509e+000
2.362420e+003,-5.698862e+000
2.363385e+003,-5.084219e+000
2.364349e+003,-4.596399e+000
2.365313e+003,-5.027417e+000
2.366277e+003,-5.711761e+000
2.367241e+003,-6.034925e+000
2.368206e+003,-6.361853e+000
2.369170e+003,-7.412829e+000
2.370134e+003,-8.604391e+000
2.371098e+003,-7.923090e+000
2.372063e+003,-5.929212e+000
2.373027e+003,-4.711450e+000
2.373991e+003,-4.278601e+000
2.374955e+003,-4.977463e+000
2.375919e+003,-6.417422e+000
2.376884e+003,-7.229788e+000
2.377848e+003,-7.186383e+000
2.378812e+003,-6.565539e+000
2.379776e+003,-5.630594e+000
2.380741e+003,-5.347806e+000
2.381705e+003,-6.283514e+000
2.382669e+003,-6.795957e+000
2.383633e+003,-5.242172e+000
2.384598e+003,-3.537189e+000
2.385562e+003,-3.048911e+000
2.386526e+003,-3.279568e+000
2.387490e+003,-4.478055e+000
2.388455e+003,-5.430191e+000
2.389419e+003,-4.222400e+000
2.390383e+003,-2.668906e+000
2.391347e+003,-3.787564e+000
2.392312e+003,-6.382205e+000
2.393276e+003,-7.013113e+000
2.394240e+003,-5.746234e+000
2.395204e+003,-6.015915e+000
2.396168e+003,-8.892191e+000
2.397133e+003,-9.853846e+000
2.398097e+003,-7.373193e+000
2.399061e+003,-5.496976e+000
2.400025e+003,-4.226676e+000
2.400990e+003,-4.094348e+000
2.401954e+003,-5.952646e+000
2.402918e+003,-7.049914e+000
2.403882e+003,-5.874372e+000
2.404846e+003,-4.302167e+000
2.405811e+003,-3.822708e+000
2.406775e+003,-3.803339e+000
2.407739e+003,-3.345309e+000
2.408703e+003,-2.806656e+000
2.409668e+003,-3.254627e+000
2.410632e+003,-4.401801e+000
2.411596e+003,-4.691278e+000
2.412560e+003,-4.396771e+000
2.413525e+003,-4.669418e+000
2.414489e+003,-5.442862e+000
2.415453e+003,-6.450372e+000
2.416417e+003,-7.298602e+000
2.417382e+003,-6.536218e+000
2.418346e+003,-4.258307e+000
2.419310e+003,-2.871967e+000
2.420274e+003,-3.411938e+000
2.421239e+003,-4.488623e+000
2.422203e+003,-5.469354e+000
2.423167e+003,-5.859540e+000
2.424131e+003,-4.943891e+000
2.425095e+003,-3.792892e+000
2.426060e+003,-2.509003e+000
2.427024e+003,-1.954459e+000
2.427988e+003,-3.764041e+000
2.428952e+003,-5.661713e+000
2.429917e+003,-4.830313e+000
2.430881e+003,-2.951456e+000
2.431845e+003,-2.763254e+000
2.432809e+003,-3.997003e+000
2.433773e+003,-5.346304e+000
2.434738e+003,-6.769516e+000
2.435702e+003,-6.849607e+000
2.436666e+003,-5.184836e+000
2.437630e+003,-3.419830e+000
2.438595e+003,-1.172208e+000
2.439559e+003,-9.230499e-001
2.440523e+003,-3.384729e+000
2.441487e+003,-4.500632e+000
2.442452e+003,-3.036008e+000
2.443416e+003,-1.140753e+000
2.444380e+003,9.740905e-002
2.445344e+003,-1.694580e-001
2.446309e+003,-2.755527e+000
2.447273e+003,-4.828690e+000
2.448237e+003,-2.189807e+000
2.449201e+003,2.009692e+000
2.450166e+003,2.783112e+000
2.451130e+003,1.459854e+000
2.452094e+003,-5.147613e-001
2.453058e+003,-2.622815e+000
2.454022e+003,-4.349612e+000
2.454987e+003,-5.608398e+000
2.455951e+003,-6.223666e+000
2.456915e+003,-6.379651e+000
2.457879e+003,-6.388272e+000
2.458844e+003,-6.383426e+000
2.459808e+003,-6.851538e+000
2.460772e+003,-8.077448e+000
2.461736e+003,-8.415726e+000
2.462700e+003,-7.057166e+000
2.463665e+003,-5.653525e+000
2.464629e+003,-3.712119e+000
2.465593e+003,-2.727008e+000
2.466557e+003,-3.251065e+000
2.467522e+003,-4.448343e+000
2.468486e+003,-6.552054e+000
2.469450e+003,-7.420697e+000
2.470414e+003,-5.170239e+000
2.471379e+003,-2.437576e+000
2.472343e+003,-2.431686e+000
2.473307e+003,-3.901147e+000
2.474271e+003,-4.292017e+000
2.475236e+003,-3.937250e+000
2.476200e+003,-3.996341e+000
2.477164e+003,-4.195145e+000
2.478128e+003,-3.310831e+000
2.479093e+003,-2.014719e+000
2.480057e+003,-2.470227e+000
2.481021e+003,-4.141428e+000
2.481985e+003,-4.995969e+000
2.482949e+003,-4.866599e+000
2.483914e+003,-4.785150e+000
2.484878e+003,-5.061865e+000
2.485842e+003,-5.498407e+000
2.486806e+003,-6.102640e+000
2.487771e+003,-6.362088e+000
2.488735e+003,-5.985202e+000
2.489699e+003,-5.399628e+000
2.490663e+003,-4.341110e+000
2.491627e+003,-3.715625e+000
2.492592e+003,-4.442374e+000
2.493556e+003,-4.605658e+000
2.494520e+003,-2.674240e+000
2.495484e+003,-1.112238e+000
2.496449e+003,-2.286868e+000
2.497413e+003,-4.215888e+000
2.498377e+003,-3.966922e+000
2.499341e+003,-2.333728e+000
2.500306e+003,-1.179681e+000
2.501270e+003,-5.957855e-001
2.502234e+003,-1.501578e+000
2.503198e+003,-3.310571e+000
2.504163e+003,-3.729047e+000
2.505127e+003,-3.227746e+000
2.506091e+003,-3.959360e+000
2.507055e+003,-5.325592e+000
2.508020e+003,-4.309009e+000
2.508984e+003,-1.202255e+000
2.509948e+003,3.262787e-001
2.510912e+003,-7.150177e-001
2.511876e+003,-1.574228e+000
2.512841e+003,-1.076608e+000
2.513805e+003,-8.387543e-001
2.514769e+003,-1.929297e+000
2.515733e+003,-2.531579e+000
2.516698e+003,-1.322339e+000
2.517662e+003,-9.407654e-001
2.518626e+003,-2.952344e+000
2.519590e+003,-4.430667e+000
2.520554e+003,-3.846167e+000
2.521519e+003,-2.241312e+000
2.522483e+003,-2.058624e-001
2.523447e+003,1.088034e+000
2.524411e+003,-2.638336e-001
2.525376e+003,-2.764761e+000
2.526340e+003,-2.449420e+000
2.527304e+003,-4.541046e-001
2.528268e+003,-3.395447e-001
2.529233e+003,-1.472562e+000
2.530197e+003,-2.870746e+000
2.531161e+003,-3.981476e+000
2.532125e+003,-3.755685e+000
2.533090e+003,-2.534213e+000
2.534054e+003,-9.909424e-001
2.535018e+003,4.412750e-001
2.535982e+003,7.935883e-001
2.536947e+003,-7.753296e-002
2.537911e+003,-4.929474e-001
2.538875e+003,2.748566e-001
2.539839e+003,5.007172e-001
2.540803e+003,-1.036270e+000
2.541768e+003,-1.268521e+000
2.542732e+003,9.527527e-001
2.543696e+003,2.135312e+000
2.544660e+003,1.128909e+000
2.545625e+003,1.958710e-001
2.546589e+003,3.952606e-001
2.547553e+003,8.250580e-001
2.548517e+003,7.851837e-001
2.549482e+003,4.756165e-001
2.550446e+003,8.225403e-002
2.551410e+003,-1.316101e-001
2.552374e+003,2.278626e-001
2.553339e+003,1.008948e+000
2.554303e+003,2.813629e+000
2.555267e+003,4.169467e+000
2.556231e+003,2.558417e+000
2.557196e+003,-2.032745e-001
2.558160e+003,-2.089978e+000
2.559124e+003,-2.915225e+000
2.560088e+003,-2.426990e+000
2.561052e+003,-1.096985e+000
2.562017e+003,-5.057861e-001
2.562981e+003,-7.192718e-001
2.563945e+003,-3.365296e-001
2.564909e+003,9.509064e-001
2.565874e+003,9.707489e-001
2.566838e+003,-4.808258e-001
2.567802e+003,-1.395056e+000
2.568766e+003,-1.590839e+000
2.569730e+003,-1.973364e+000
2.570695e+003,-2.632278e+000
2.571659e+003,-2.308933e+000
2.572623e+003,-7.137604e-001
2.573587e+003,1.265286e+000
2.574552e+003,3.101181e+000
2.575516e+003,3.612180e+000
2.576480e+003,1.556552e+000
2.577444e+003,-4.680969e-001
2.578409e+003,-7.332550e-001
2.579373e+003,-5.868591e-001
2.580337e+003,-7.474731e-001
2.581301e+003,-6.088989e-001
2.582266e+003,8.117279e-001
2.583230e+003,1.920297e+000
2.584194e+003,1.319080e+000
2.585158e+003,3.341705e-001
2.586123e+003,3.579071e-001
2.587087e+003,6.718506e-001
2.588051e+003,-2.887268e-002
2.589015e+003,-1.264752e+000
2.589979e+003,-1.610278e+000
2.590944e+003,-1.203918e+000
2.591908e+003,-1.062531e-001
2.592872e+003,1.065262e+000
2.593836e+003,2.092133e-001
2.594801e+003,-1.565704e+000
2.595765e+003,-1.396881e+000
2.596729e+003,1.498108e-002
2.597693e+003,3.677368e-002
2.598657e+003,-1.212042e+000
2.599622e+003,-1.443012e+000
2.600586e+003,-2.656616e-001
2.601550e+003,3.595673e-001
2.602514e+003,-1.415985e-001
2.603479e+003,-4.273102e-001
2.604443e+003,-5.368042e-001
2.605407e+003,-2.218323e-001
2.606371e+003,7.309418e-001
2.607336e+003,1.066052e+000
2.608300e+003,4.906036e-001
2.609264e+003,7.416077e-002
2.610228e+003,1.588684e-001
2.611193e+003,-2.912354e-001
2.612157e+003,-1.825674e+000
2.613121e+003,-3.337409e+000
2.614085e+003,-4.075363e+000
2.615050e+003,-4.088068e+000
2.616014e+003,-2.793509e+000
2.616978e+003,-1.689923e+000
2.617942e+003,-2.170935e+000
2.618906e+003,-2.514999e+000
2.619871e+003,-8.316620e-001
2.620835e+003,3.741089e-001
2.621799e+003,-1.404239e+000
2.622763e+003,-3.575174e+000
2.623728e+003,-3.755310e+000
2.624692e+003,-2.817587e+000
2.625656e+003,-2.098410e+000
2.626620e+003,-1.484241e+000
2.627584e+003,-4.748810e-001
2.628549e+003,5.836945e-001
2.629513e+003,4.805176e-001
2.630477e+003,-4.461609e-001
2.631441e+003,-2.108634e+000
2.632406e+003,-3.606430e+000
2.633370e+003,-2.949066e+000
2.634334e+003,-1.043381e+000
2.635298e+003,2.478332e-002
2.636263e+003,2.312195e-001
2.637227e+003,7.114868e-001
2.638191e+003,1.561853e+000
2.639155e+003,1.455701e+000
2.640120e+003,5.751648e-002
2.641084e+003,-2.060669e-001
2.642048e+003,8.278961e-001
2.643012e+003,1.728159e+000
2.643977e+003,2.452319e+000
2.644941e+003,2.481601e+000
2.645905e+003,1.798743e+000
2.646869e+003,7.870728e-001
2.647833e+003,-2.721832e-001
2.648798e+003,-5.106384e-001
2.649762e+003,3.671234e-001
2.650726e+003,1.589868e+000
2.651690e+003,2.962884e+000
2.652655e+003,3.435699e+000
2.653619e+003,1.774167e+000
2.654583e+003,4.237885e-001
2.655547e+003,-3.439026e-002
2.656511e+003,1.617157e-001
2.657476e+003,1.237906e+000
2.658440e+003,2.163644e+000
2.659404e+003,2.627786e+000
2.660368e+003,2.052441e+000
2.661333e+003,-3.971558e-002
2.662297e+003,-1.135226e+000
2.663261e+003,1.388590e+000
2.664225e+003,4.535672e+000
2.665190e+003,4.591849e+000
2.666154e+003,3.023901e+000
2.667118e+003,1.896423e-001
2.668082e+003,-1.807422e+000
2.669047e+003,9.243774e-003
2.670011e+003,2.325644e+000
2.670975e+003,2.010919e+000
2.671939e+003,5.796601e-001
2.672904e+003,-6.867065e-001
2.673868e+003,-1.045041e+000
2.674832e+003,9.978485e-001
2.675796e+003,3.755615e+000
2.676760e+003,2.584573e+000
2.677725e+003,-1.281113e+000
2.678689e+003,-3.172238e+000
2.679653e+003,-3.277625e+000
2.680617e+003,-1.393115e+000
2.681582e+003,1.232977e+000
2.682546e+003,2.402673e+000
2.683510e+003,2.330823e+000
2.684474e+003,1.313361e+000
2.685438e+003,1.975403e-002
2.686403e+003,-2.879211e-001
2.687367e+003,4.438385e-001
2.688331e+003,1.778906e+000
2.689295e+003,3.766736e+000
2.690260e+003,4.071637e+000
2.691224e+003,2.378256e+000
2.692188e+003,1.747464e+000
2.693152e+003,2.137070e+000
2.694117e+003,2.334506e+000
2.695081e+003,2.176218e+000
2.696045e+003,1.392456e+000
2.697009e+003,2.083832e-001
2.697974e+003,-5.809601e-001
2.698938e+003,-7.017151e-001
2.699902e+003,1.060577e-001
2.700866e+003,2.023434e+000
2.701831e+003,3.017816e+000
2.702795e+003,1.779184e+000
2.703759e+003,1.155341e+000
2.704723e+003,1.477466e+000
2.705688e+003,2.131335e+000
2.706652e+003,3.186404e+000
2.707616e+003,3.086664e+000
2.708580e+003,1.508063e+000
2.709544e+003,4.003815e-001
2.710509e+003,5.353912e-001
2.711473e+003,1.135190e+000
2.712437e+003,1.738654e+000
2.713401e+003,2.387137e+000
2.714365e+003,3.509262e+000
2.715330e+003,3.682709e+000
2.716294e+003,9.809173e-001
2.717258e+003,-9.743835e-001
2.718222e+003,-1.212830e-001
2.719187e+003,4.454712e-001
2.720151e+003,-5.863830e-001
2.721115e+003,-7.378815e-001
2.722079e+003,1.395792e+000
2.723044e+003,2.786789e+000
2.724008e+003,1.127475e+000
2.724972e+003,-6.755493e-001
2.725936e+003,4.569824e-001
2.726901e+003,2.416473e+000
2.727865e+003,3.126102e+000
2.728829e+003,3.296503e+000
2.729793e+003,3.266159e+000
2.730758e+003,3.192123e+000
2.731722e+003,3.516672e+000
2.732686e+003,3.306650e+000
2.733650e+003,1.266531e+000
2.734615e+003,-2.023163e-001
2.735579e+003,1.179971e+000
2.736543e+003,3.188223e+000
2.737507e+003,2.784125e+000
2.738471e+003,1.331982e+000
2.739436e+003,1.343185e+000
2.740400e+003,2.055566e+000
2.741364e+003,2.433377e+000
2.742328e+003,2.514676e+000
2.743292e+003,2.160855e+000
2.744257e+003,1.727182e+000
2.745221e+003,1.548633e+000
2.746185e+003,1.546667e+000
2.747149e+003,1.473175e+000
2.748114e+003,1.621625e+000
2.749078e+003,2.585355e+000
2.750042e+003,3.879498e+000
2.751006e+003,4.096274e+000
2.751971e+003,3.595721e+000
2.752935e+003,3.652908e+000
2.753899e+003,3.978165e+000
2.754863e+003,3.899316e+000
2.755828e+003,3.708169e+000
2.756792e+003,4.182358e+000
2.757756e+003,4.663794e+000
2.758720e+003,3.631012e+000
2.759685e+003,1.983487e+000
2.760649e+003,2.150592e+000
2.761613e+003,3.468570e+000
2.762577e+003,3.628952e+000
2.763542e+003,2.866635e+000
2.764506e+003,3.471152e+000
2.765470e+003,4.948425e+000
2.766434e+003,4.389575e+000
2.767398e+003,2.567026e+000
2.768363e+003,1.086789e+000
2.769327e+003,3.795685e-001
2.770291e+003,1.452374e+000
2.771255e+003,3.455145e+000
2.772219e+003,4.278689e+000
2.773184e+003,3.900501e+000
2.774148e+003,3.682071e+000
2.775112e+003,3.625644e+000
2.776076e+003,3.147708e+000
2.777041e+003,2.255954e+000
2.778005e+003,1.750998e+000
2.778969e+003,1.602515e+000
2.779933e+003,1.672537e+000
2.780898e+003,1.880566e+000
2.781862e+003,2.009940e+000
2.782826e+003,2.125949e+000
2.783790e+003,2.606018e+000
2.784755e+003,3.343344e+000
2.785719e+003,3.551642e+000
2.786683e+003,3.171475e+000
2.787647e+003,3.788519e+000
2.788612e+003,5.664160e+000
2.789576e+003,5.586261e+000
2.790540e+003,3.677405e+000
2.791504e+003,3.551849e+000
2.792469e+003,4.816327e+000
2.793433e+003,3.922110e+000
2.794397e+003,1.476001e+000
2.795361e+003,1.255414e+000
2.796325e+003,3.224167e+000
2.797290e+003,4.517426e+000
2.798254e+003,4.563928e+000
2.799218e+003,3.638953e+000
2.800182e+003,1.367657e+000
2.801146e+003,1.299573e+000
2.802111e+003,3.762039e+000
2.803075e+003,5.459790e+000
2.804039e+003,6.212451e+000
2.805003e+003,6.451648e+000
2.805968e+003,6.269318e+000
2.806932e+003,6.046509e+000
2.807896e+003,5.826752e+000
2.808860e+003,4.948260e+000
2.809825e+003,3.434021e+000
2.810789e+003,2.743854e+000
2.811753e+003,3.308102e+000
2.812717e+003,3.469147e+000
2.813682e+003,2.888782e+000
2.814646e+003,3.962485e+000
2.815610e+003,6.659088e+000
2.816574e+003,7.426349e+000
2.817539e+003,6.215106e+000
2.818503e+003,4.682220e+000
2.819467e+003,3.286957e+000
2.820431e+003,1.989938e+000
2.821396e+003,9.978516e-001
2.822360e+003,1.340979e+000
2.823324e+003,3.403397e+000
2.824288e+003,4.211960e+000
2.825252e+003,3.091159e+000
2.826217e+003,2.824317e+000
2.827181e+003,3.459033e+000
2.828145e+003,4.417935e+000
2.829109e+003,5.432452e+000
2.830073e+003,5.566541e+000
2.831038e+003,4.877814e+000
2.832002e+003,3.908695e+000
2.832966e+003,2.988083e+000
2.833930e+003,2.784372e+000
2.834895e+003,3.433035e+000
2.835859e+003,3.762549e+000
2.836823e+003,3.620026e+000
2.837787e+003,3.464771e+000
2.838752e+003,3.285120e+000
2.839716e+003,3.724252e+000
2.840680e+003,4.607663e+000
2.841644e+003,4.382358e+000
2.842609e+003,3.238406e+000
2.843573e+003,2.894315e+000
2.844537e+003,3.306488e+000
2.845501e+003,2.540122e+000
2.846466e+003,3.840851e-001
2.847430e+003,2.220764e-002
2.848394e+003,2.009872e+000
2.849358e+003,3.080350e+000
2.850323e+003,3.236212e+000
2.851287e+003,2.707282e+000
2.852251e+003,1.687946e+000
2.853215e+003,1.419049e+000
2.854179e+003,1.755112e+000
2.855144e+003,1.553607e+000
2.856108e+003,9.651154e-001
2.857072e+003,1.373889e+000
2.858036e+003,2.762369e+000
2.859000e+003,2.944888e+000
2.859965e+003,1.778430e+000
2.860929e+003,2.126401e+000
2.861893e+003,4.000186e+000
2.862857e+003,4.926025e+000
2.863822e+003,5.023822e+000
2.864786e+003,4.543143e+000
2.865750e+003,3.861588e+000
2.866714e+003,3.846155e+000
2.867679e+003,4.329413e+000
2.868643e+003,4.868933e+000
2.869607e+003,5.292792e+000
2.870571e+003,5.050079e+000
2.871536e+003,4.236969e+000
2.872500e+003,3.502072e+000
2.873464e+003,2.821127e+000
2.874428e+003,3.184402e+000
2.875393e+003,4.168405e+000
2.876357e+003,3.922318e+000
2.877321e+003,3.241913e+000
2.878285e+003,4.395730e+000
2.879250e+003,6.331628e+000
2.880214e+003,6.396020e+000
2.881178e+003,5.167853e+000
2.882142e+003,5.371918e+000
2.883106e+003,6.243500e+000
2.884071e+003,4.064185e+000
2.885035e+003,-4.237366e-002
2.885999e+003,5.648865e-001
2.886963e+003,3.829571e+000
2.887927e+003,5.259875e+000
2.888892e+003,5.417700e+000
2.889856e+003,5.029181e+000
2.890820e+003,4.687494e+000
2.891784e+003,5.469647e+000
2.892749e+003,6.401709e+000
2.893713e+003,5.795844e+000
2.894677e+003,4.391925e+000
2.895641e+003,3.794989e+000
2.896606e+003,3.772333e+000
2.897570e+003,3.992648e+000
2.898534e+003,4.109241e+000
2.899498e+003,2.986252e+000
2.900463e+003,1.947916e+000
2.901427e+003,3.129303e+000
2.902391e+003,4.651593e+000
2.903355e+003,4.184695e+000
2.904320e+003,3.258460e+000
2.905284e+003,3.497769e+000
2.906248e+003,3.895941e+000
2.907212e+003,2.905221e+000
2.908177e+003,1.528775e+000
2.909141e+003,9.198700e-001
2.910105e+003,1.359180e+000
2.911069e+003,4.543384e+000
2.912033e+003,7.106280e+000
2.912998e+003,5.711334e+000
2.913962e+003,3.867523e+000
2.914926e+003,3.709885e+000
2.915890e+003,3.634955e+000
2.916854e+003,2.438391e+000
2.917819e+003,1.264386e+000
2.918783e+003,1.217770e+000
2.919747e+003,1.893808e+000
2.920711e+003,3.619504e+000
2.921676e+003,4.808988e+000
2.922640e+003,4.080829e+000
2.923604e+003,3.122229e+000
2.924568e+003,2.485580e+000
2.925533e+003,1.921851e+000
2.926497e+003,1.180481e+000
2.927461e+003,1.760937e+000
2.928425e+003,4.611923e+000
2.929390e+003,5.576996e+000
2.930354e+003,7.861481e-001
2.931318e+003,-2.882202e+000
2.932282e+003,8.594635e-001
2.933247e+003,3.538949e+000
2.934211e+003,3.235745e+000
2.935175e+003,3.511502e+000
2.936139e+003,4.272870e+000
2.937104e+003,4.347095e+000
2.938068e+003,3.635208e+000
2.939032e+003,2.914932e+000
2.939996e+003,2.542926e+000
2.940960e+003,3.138342e+000
2.941925e+003,4.873840e+000
2.942889e+003,5.478198e+000
2.943853e+003,3.811453e+000
2.944817e+003,2.331348e+000
2.945781e+003,8.762360e-001
2.946746e+003,1.406689e+000
2.947710e+003,3.748239e+000
2.948674e+003,4.755560e+000
2.949638e+003,4.331201e+000
2.950603e+003,3.809274e+000
2.951567e+003,3.586719e+000
2.952531e+003,3.830045e+000
2.953495e+003,4.489871e+000
2.954460e+003,5.172766e+000
2.955424e+003,5.880890e+000
2.956388e+003,3.938968e+000
2.957352e+003,-1.691467e-001
2.958317e+003,-1.594339e+000
2.959281e+003,-8.385407e-001
2.960245e+003,1.145581e+000
2.961209e+003,3.189600e+000
2.962174e+003,3.234335e+000
2.963138e+003,2.044931e+000
2.964102e+003,1.469846e+000
2.965066e+003,1.632669e+000
2.966031e+003,2.786636e+000
2.966995e+003,4.497958e+000
2.967959e+003,5.740491e+000
2.968923e+003,6.135797e+000
2.969887e+003,4.016074e+000
2.970852e+003,1.532120e+000
2.971816e+003,1.237247e+000
2.972780e+003,2.086612e+000
2.973744e+003,3.541260e+000
2.974708e+003,4.490533e+000
2.975673e+003,3.884601e+000
2.976637e+003,3.071585e+000
2.977601e+003,3.705512e+000
2.978565e+003,4.589758e+000
2.979530e+003,4.013476e+000
2.980494e+003,3.188608e+000
2.981458e+003,3.259204e+000
2.982422e+003,3.160925e+000
2.983387e+003,2.083606e+000
2.984351e+003,1.169708e+000
2.985315e+003,8.547729e-001
2.986279e+003,7.042023e-001
2.987244e+003,4.852600e-001
2.988208e+003,3.351929e-001
2.989172e+003,3.335175e-001
2.990136e+003,2.759643e-001
2.991101e+003,-3.119568e-001
2.992065e+003,-3.133240e-002
2.993029e+003,1.818832e+000
2.993993e+003,3.320956e+000
2.994958e+003,4.258990e+000
2.995922e+003,4.472763e+000
2.996886e+003,4.044940e+000
2.997850e+003,3.314938e+000
2.998814e+003,2.516626e+000
2.999779e+003,2.233572e+000
3.000743e+003,2.600110e+000
3.001707e+003,2.696295e+000
3.002671e+003,2.465445e+000
3.003635e+003,1.978702e+000
3.004600e+003,1.275272e+000
3.005564e+003,1.522058e+000
3.006528e+003,2.332690e+000
3.007492e+003,2.409653e+000
3.008457e+003,1.900461e+000
3.009421e+003,1.432400e+000
3.010385e+003,9.766876e-001
3.011349e+003,2.117310e-001
3.012314e+003,-7.590698e-001
3.013278e+003,-1.816101e+000
3.014242e+003,-2.642853e+000
3.015206e+003,-1.855811e+000
3.016171e+003,-3.998810e-001
3.017135e+003,2.226501e-001
3.018099e+003,5.039886e-001
3.019063e+003,1.306433e+000
3.020028e+003,1.653448e+000
3.020992e+003,5.105225e-001
3.021956e+003,-7.164429e-001
3.022920e+003,-8.518311e-001
3.023885e+003,-3.150696e-001
3.024849e+003,6.076142e-001
3.025813e+003,1.432965e+000
3.026777e+003,1.873672e+000
3.027741e+003,1.797366e+000
3.028706e+003,2.988037e-001
3.029670e+003,-6.120605e-002
3.030634e+003,1.678839e+000
3.031598e+003,2.374493e+000
3.032563e+003,1.070010e+000
3.033527e+003,3.487000e-001
3.034491e+003,1.272009e+000
3.035455e+003,2.157819e+000
3.036420e+003,2.260336e+000
3.037384e+003,2.395419e+000
3.038348e+003,2.950263e+000
3.039312e+003,2.506573e+000
3.040277e+003,1.066867e+000
3.041241e+003,-3.391724e-002
3.042205e+003,-6.805145e-001
3.043169e+003,-1.285910e+000
3.044134e+003,-1.521338e+000
3.045098e+003,3.346832e-001
3.046062e+003,3.427619e+000
3.047026e+003,3.475363e+000
3.047990e+003,1.116312e+000
3.048955e+003,-6.370147e-001
3.049919e+003,-1.564853e+000
3.050883e+003,2.465271e-001
3.051847e+003,2.772583e+000
3.052812e+003,2.171429e+000
3.053776e+003,6.503479e-001
3.054740e+003,9.521515e-001
3.055704e+003,2.028394e+000
3.056668e+003,3.200714e+000
3.057633e+003,3.080695e+000
3.058597e+003,-1.937164e-001
3.059561e+003,-3.414084e+000
3.060525e+003,-1.936996e+000
3.061490e+003,3.546020e-001
3.062454e+003,8.308258e-001
3.063418e+003,6.521209e-001
3.064382e+003,-2.398895e-001
3.065347e+003,-2.258179e-001
3.066311e+003,1.188190e+000
3.067275e+003,2.068103e+000
3.068239e+003,1.648047e+000
3.069204e+003,-7.991944e-002
3.070168e+003,-3.170389e+000
3.071132e+003,-4.733313e+000
3.072096e+003,-3.018021e+000
3.073061e+003,-1.916794e+000
3.074025e+003,-1.533932e+000
3.074989e+003,-3.895874e-001
3.075953e+003,1.210007e+000
3.076917e+003,1.449924e+000
3.077882e+003,5.981262e-001
3.078846e+003,-2.855805e-001
3.079810e+003,-7.724152e-001
3.080774e+003,-2.711914e-001
3.081739e+003,9.040161e-001
3.082703e+003,2.157056e+000
3.083667e+003,2.972970e+000
3.084631e+003,7.259796e-001
3.085595e+003,-2.121182e+000
3.086560e+003,-1.272717e+000
3.087524e+003,7.578033e-001
3.088488e+003,2.103635e+000
3.089452e+003,2.207675e+000
3.090417e+003,5.528656e-001
3.091381e+003,-1.097418e+000
3.092345e+003,-1.365427e+000
3.093309e+003,-1.350055e+000
3.094274e+003,-2.106686e+000
3.095238e+003,-2.745795e+000
3.096202e+003,-2.856574e+000
3.097166e+003,-2.282953e+000
3.098131e+003,-8.565460e-001
3.099095e+003,4.347809e-001
3.100059e+003,1.370294e+000
3.101023e+003,1.446606e+000
3.101988e+003,7.774811e-001
3.102952e+003,4.179810e-001
3.103916e+003,5.707642e-001
3.104880e+003,2.696899e-001
3.105844e+003,-5.775787e-001
3.106809e+003,-7.191895e-001
3.107773e+003,-2.927094e-001
3.108737e+003,-1.248795e+000
3.109701e+003,-2.873224e+000
3.110666e+003,-3.541287e+000
3.111630e+003,-3.259818e+000
3.112594e+003,-1.621783e+000
3.113558e+003,1.599731e-002
3.114522e+003,-5.006409e-002
3.115487e+003,-9.180695e-001
3.116451e+003,-1.333731e+000
3.117415e+003,-1.512097e+000
3.118379e+003,-1.712412e+000
3.119344e+003,-1.901813e+000
3.120308e+003,-2.175928e+000
3.121272e+003,-2.294852e+000
3.122236e+003,-1.990369e+000
3.123201e+003,-2.266449e+000
3.124165e+003,-3.404578e+000
3.125129e+003,-3.527524e+000
3.126093e+003,-2.071222e+000
3.127058e+003,-1.559265e+000
3.128022e+003,-3.257379e+000
3.128986e+003,-3.882507e+000
3.129950e+003,-2.670404e+000
3.130915e+003,-1.515710e+000
3.131879e+003,-5.128937e-001
3.132843e+003,-1.127548e+000
3.133807e+003,-2.653986e+000
3.134771e+003,-2.802042e+000
3.135736e+003,-2.100534e+000
3.136700e+003,-2.348004e+000
3.137664e+003,-3.105487e+000
3.138628e+003,-3.311505e+000
3.139593e+003,-3.312329e+000
3.140557e+003,-4.362875e+000
3.141521e+003,-5.108481e+000
3.142485e+003,-2.763037e+000
3.143449e+003,-8.860473e-002
3.144414e+003,1.555103e+000
3.145378e+003,1.193988e+000
3.146342e+003,-1.953870e+000
3.147306e+003,-4.102701e+000
3.148271e+003,-3.533423e+000
3.149235e+003,-3.101111e+000
3.150199e+003,-4.457535e+000
3.151163e+003,-4.822067e+000
3.152128e+003,-1.618799e+000
3.153092e+003,-1.148447e+000
3.154056e+003,-3.980026e+000
3.155020e+003,-4.959641e+000
3.155985e+003,-4.137851e+000
3.156949e+003,-3.278128e+000
3.157913e+003,-2.726386e+000
3.158877e+003,-2.490518e+000
3.159842e+003,-2.761130e+000
3.160806e+003,-4.127627e+000
3.161770e+003,-5.713541e+000
3.162734e+003,-4.815839e+000
3.163698e+003,-3.029944e+000
3.164663e+003,-4.323349e+000
3.165627e+003,-6.081573e+000
3.166591e+003,-5.650690e+000
3.167555e+003,-4.358975e+000
3.168520e+003,-2.562567e+000
3.169484e+003,-2.295569e+000
3.170448e+003,-4.494843e+000
3.171412e+003,-5.473700e+000
3.172376e+003,-3.079578e+000
3.173341e+003,-1.051108e+000
3.174305e+003,-1.414294e+000
3.175269e+003,-2.176193e+000
3.176233e+003,-3.319717e+000
3.177198e+003,-3.140954e+000
3.178162e+003,-1.888837e+000
3.179126e+003,-1.631708e+000
3.180090e+003,-2.345047e+000
3.181055e+003,-3.465054e+000
3.182019e+003,-4.636111e+000
3.182983e+003,-5.337149e+000
3.183947e+003,-5.567041e+000
3.184912e+003,-5.244174e+000
3.185876e+003,-4.642969e+000
3.186840e+003,-4.145712e+000
3.187804e+003,-4.036059e+000
3.188769e+003,-4.903052e+000
3.189733e+003,-5.786523e+000
3.190697e+003,-6.125528e+000
3.191661e+003,-6.810412e+000
3.192625e+003,-8.190793e+000
3.193590e+003,-7.703330e+000
3.194554e+003,-4.168952e+000
3.195518e+003,-2.214383e+000
3.196482e+003,-4.699487e+000
3.197447e+003,-6.042517e+000
3.198411e+003,-5.579376e+000
3.199375e+003,-5.559812e+000
3.200339e+003,-5.855048e+000
3.201303e+003,-4.881192e+000
3.202268e+003,-3.359180e+000
3.203232e+003,-3.352451e+000
3.204196e+003,-4.395239e+000
3.205160e+003,-5.194318e+000
3.206125e+003,-5.345148e+000
3.207089e+003,-3.868668e+000
3.208053e+003,-2.160953e+000
3.209017e+003,-2.963544e+000
3.209982e+003,-4.271939e+000
3.210946e+003,-5.136527e+000
3.211910e+003,-4.452371e+000
3.212874e+003,-1.348883e+000
3.213839e+003,1.106415e-001
3.214803e+003,-1.326962e+000
3.215767e+003,-3.760275e+000
3.216731e+003,-6.134225e+000
3.217696e+003,-6.442483e+000
3.218660e+003,-3.522732e+000
3.219624e+003,-2.411304e+000
3.220588e+003,-3.175635e+000
3.221552e+003,-3.189587e+000
3.222517e+003,-2.799460e+000
3.223481e+003,-3.273639e+000
3.224445e+003,-4.278082e+000
3.225409e+003,-5.224960e+000
3.226374e+003,-5.895053e+000
3.227338e+003,-6.190759e+000
3.228302e+003,-6.098352e+000
3.229266e+003,-5.520117e+000
3.230230e+003,-4.893610e+000
3.231195e+003,-4.802155e+000
3.232159e+003,-4.556659e+000
3.233123e+003,-3.442099e+000
3.234087e+003,-3.243536e+000
3.235052e+003,-4.240036e+000
3.236016e+003,-4.954727e+000
3.236980e+003,-5.104529e+000
3.237944e+003,-5.402856e+000
3.238909e+003,-5.867880e+000
3.239873e+003,-5.024918e+000
3.240837e+003,-3.153332e+000
3.241801e+003,-3.235055e+000
3.242766e+003,-4.605423e+000
3.243730e+003,-4.492319e+000
3.244694e+003,-3.848462e+000
3.245658e+003,-3.824274e+000
3.246623e+003,-4.438742e+000
3.247587e+003,-6.013425e+000
3.248551e+003,-6.679871e+000
3.249515e+003,-5.218414e+000
3.250479e+003,-3.778427e+000
3.251444e+003,-4.050821e+000
3.252408e+003,-4.153589e+000
3.253372e+003,-1.969571e+000
3.254336e+003,-2.433627e+000
3.255301e+003,-6.111417e+000
3.256265e+003,-5.868631e+000
3.257229e+003,-2.519543e+000
3.258193e+003,-2.522757e+000
3.259157e+003,-5.144989e+000
3.260122e+003,-5.944534e+000
3.261086e+003,-5.171768e+000
3.262050e+003,-4.443280e+000
3.263014e+003,-3.861325e+000
3.263979e+003,-3.886178e+000
3.264943e+003,-3.885745e+000
3.265907e+003,-2.448236e+000
3.266871e+003,-1.714615e+000
3.267836e+003,-3.352960e+000
3.268800e+003,-4.524564e+000
3.269764e+003,-4.406531e+000
3.270728e+003,-4.529468e+000
3.271693e+003,-5.400754e+000
3.272657e+003,-6.150903e+000
3.273621e+003,-6.489618e+000
3.274585e+003,-5.767007e+000
3.275550e+003,-3.921411e+000
3.276514e+003,-3.346707e+000
3.277478e+003,-3.548318e+000
3.278442e+003,-3.204684e+000
3.279406e+003,-2.619263e+000
3.280371e+003,-2.024130e+000
3.281335e+003,-2.111035e+000
3.282299e+003,-3.563739e+000
3.283263e+003,-4.806201e+000
3.284228e+003,-4.368613e+000
3.285192e+003,-3.322238e+000
3.286156e+003,-2.133862e+000
3.287120e+003,-1.470441e+000
3.288084e+003,-1.693845e+000
3.289049e+003,-1.546817e+000
3.290013e+003,-9.677826e-001
3.290977e+003,-4.498352e-001
3.291941e+003,-1.811768e-001
3.292906e+003,-5.480102e-001
3.293870e+003,-1.289130e+000
3.294834e+003,-1.374298e+000
3.295798e+003,-1.206628e+000
3.296763e+003,-2.022189e+000
3.297727e+003,-3.209729e+000
3.298691e+003,-3.888281e+000
3.299655e+003,-4.194986e+000
3.300620e+003,-4.434448e+000
3.301584e+003,-3.762756e+000
3.302548e+003,-1.876349e+000
3.303512e+003,-6.737641e-001
3.304477e+003,-7.447449e-001
3.305441e+003,-7.047852e-001
3.306405e+003,-6.693725e-002
3.307369e+003,-5.491486e-001
3.308333e+003,-2.331537e+000
3.309298e+003,-5.128418e-001
3.310262e+003,2.974319e+000
3.311226e+003,1.603131e+000
3.312190e+003,-1.546869e+000
3.313155e+003,-1.989002e+000
3.314119e+003,-1.164816e+000
3.315083e+003,-3.192535e-001
3.316047e+003,2.385162e-001
3.317011e+003,2.516266e-001
3.317976e+003,-1.623993e-001
3.318940e+003,-1.550598e+000
3.319904e+003,-1.691751e+000
3.320868e+003,8.936463e-002
3.321833e+003,1.099692e+000
3.322797e+003,1.206781e+000
3.323761e+003,7.728119e-001
3.324725e+003,5.868835e-002
3.325690e+003,-6.744812e-001
3.326654e+003,-1.139420e+000
3.327618e+003,-9.025818e-001
3.328582e+003,-3.447052e-001
3.329547e+003,-6.953125e-002
3.330511e+003,-6.436157e-002
3.331475e+003,-7.426636e-001
3.332439e+003,-9.695495e-001
3.333404e+003,2.645874e-003
3.334368e+003,2.509460e-001
3.335332e+003,-5.145813e-001
3.336296e+003,-4.461365e-001
3.337260e+003,5.926086e-001
3.338225e+003,1.019440e-001
3.339189e+003,-2.115279e+000
3.340153e+003,-2.156396e+000
3.341117e+003,-5.126435e-001
3.342082e+003,6.242066e-002
3.343046e+003,2.708954e-001
3.344010e+003,1.670306e+000
3.344974e+003,2.637125e+000
3.345938e+003,1.784073e+000
3.346903e+003,3.930206e-001
3.347867e+003,-9.121658e-001
3.348831e+003,-4.588333e-001
3.349795e+003,2.737186e+000
3.350760e+003,4.033789e+000
3.351724e+003,6.242676e-001
3.352688e+003,1.393677e-001
3.353652e+003,2.169534e+000
3.354617e+003,1.989560e+000
3.355581e+003,7.747467e-001
3.356545e+003,2.004001e+000
3.357509e+003,3.753485e+000
3.358474e+003,3.363168e+000
3.359438e+003,1.593631e+000
3.360402e+003,-1.074710e+000
3.361366e+003,-2.187675e+000
3.362331e+003,1.889420e+000
3.363295e+003,4.839645e+000
3.364259e+003,3.657336e+000
3.365223e+003,3.231610e+000
3.366188e+003,3.846091e+000
3.367152e+003,4.335251e+000
3.368116e+003,4.401758e+000
3.369080e+003,3.537643e+000
3.370044e+003,2.341922e+000
3.371009e+003,2.319498e+000
3.371973e+003,2.955035e+000
3.372937e+003,3.378525e+000
3.373901e+003,3.539075e+000
3.374865e+003,2.683414e+000
3.375830e+003,2.888937e+000
3.376794e+003,5.797418e+000
3.377758e+003,5.887036e+000
3.378722e+003,2.554550e+000
3.379687e+003,1.884753e+000
3.380651e+003,4.554334e+000
3.381615e+003,4.982108e+000
3.382579e+003,2.993471e+000
3.383544e+003,3.606619e+000
3.384508e+003,5.872717e+000
3.385472e+003,6.735345e+000
3.386436e+003,6.747674e+000
3.387401e+003,6.087973e+000
3.388365e+003,5.524155e+000
3.389329e+003,5.414786e+000
3.390293e+003,5.486450e+000
3.391258e+003,5.605997e+000
3.392222e+003,5.581616e+000
3.393186e+003,5.354123e+000
3.394150e+003,5.451856e+000
3.395115e+003,5.911059e+000
3.396079e+003,6.110745e+000
3.397043e+003,6.109186e+000
3.398007e+003,5.606393e+000
3.398971e+003,5.573697e+000
3.399936e+003,8.455014e+000
3.400900e+003,1.034041e+001
3.401864e+003,8.717984e+000
3.402828e+003,6.975836e+000
3.403792e+003,7.452835e+000
3.404757e+003,7.965009e+000
3.405721e+003,7.138190e+000
3.406685e+003,6.797992e+000
3.407649e+003,7.002054e+000
3.408614e+003,8.208551e+000
3.409578e+003,9.885119e+000
3.410542e+003,1.115029e+001
3.411506e+003,1.122663e+001
3.412471e+003,8.576770e+000
3.413435e+003,6.363464e+000
3.414399e+003,7.765433e+000
3.415363e+003,9.801214e+000
3.416328e+003,9.568930e+000
3.417292e+003,9.071737e+000
3.418256e+003,8.969065e+000
3.419220e+003,8.578394e+000
3.420185e+003,8.003977e+000
3.421149e+003,8.553070e+000
3.422113e+003,9.657428e+000
3.423077e+003,8.945285e+000
3.424042e+003,7.904442e+000
3.425006e+003,9.685461e+000
3.425970e+003,1.209212e+001
3.426934e+003,1.161078e+001
