7.140112e+001,5.174402e+001
7.236536e+001,5.161782e+001
7.332959e+001,5.286704e+001
7.429382e+001,5.421059e+001
7.525806e+001,5.602910e+001
7.622229e+001,5.611144e+001
7.718652e+001,5.264814e+001
7.815076e+001,4.361306e+001
7.911499e+001,3.743060e+001
8.007922e+001,3.224810e+001
8.104346e+001,2.986513e+001
8.200769e+001,3.252691e+001
8.297192e+001,4.519543e+001
8.393616e+001,5.671794e+001
8.490039e+001,6.536720e+001
8.586462e+001,7.072975e+001
8.682886e+001,7.267309e+001
8.779310e+001,6.875938e+001
8.875733e+001,6.242319e+001
8.972157e+001,5.492601e+001
9.068580e+001,4.701412e+001
9.165003e+001,3.917811e+001
9.261427e+001,3.403481e+001
9.357850e+001,3.079648e+001
9.454273e+001,2.919877e+001
9.550697e+001,2.929423e+001
9.647120e+001,3.213522e+001
9.743543e+001,3.300730e+001
9.839967e+001,3.081868e+001
9.936390e+001,2.756369e+001
1.003281e+002,2.565526e+001
1.012924e+002,2.686206e+001
1.022566e+002,2.732061e+001
1.032208e+002,2.614191e+001
1.041851e+002,2.384971e+001
1.051493e+002,2.172355e+001
1.061135e+002,2.116113e+001
1.070778e+002,2.096113e+001
1.080420e+002,2.079978e+001
1.090062e+002,2.049393e+001
1.099705e+002,1.997092e+001
1.109347e+002,1.824679e+001
1.118989e+002,1.613866e+001
1.128632e+002,1.527034e+001
1.138274e+002,1.687149e+001
1.147916e+002,2.152401e+001
1.157559e+002,2.360125e+001
1.167201e+002,2.260112e+001
1.176843e+002,2.029586e+001
1.186486e+002,1.878024e+001
1.196128e+002,1.843978e+001
1.205770e+002,1.853394e+001
1.215413e+002,1.951185e+001
1.225055e+002,2.087167e+001
1.234697e+002,2.158838e+001
1.244340e+002,2.073079e+001
1.253982e+002,1.910115e+001
1.263624e+002,1.573479e+001
1.273267e+002,1.113901e+001
1.282909e+002,7.516187e+000
1.292551e+002,1.142220e+001
1.302194e+002,1.802954e+001
1.311836e+002,2.353452e+001
1.321478e+002,2.545651e+001
1.331121e+002,2.357524e+001
1.340763e+002,1.993564e+001
1.350405e+002,1.431826e+001
1.360048e+002,8.925512e+000
1.369690e+002,6.027283e+000
1.379332e+002,6.993951e+000
1.388975e+002,9.046991e+000
1.398617e+002,1.348611e+001
1.408259e+002,1.851545e+001
1.417902e+002,2.127416e+001
1.427544e+002,1.867905e+001
1.437186e+002,1.553934e+001
1.446829e+002,1.260688e+001
1.456471e+002,1.020579e+001
1.466113e+002,8.439569e+000
1.475756e+002,7.241199e+000
1.485398e+002,6.999316e+000
1.495040e+002,8.925427e+000
1.504683e+002,1.318075e+001
1.514325e+002,1.882591e+001
1.523967e+002,1.980927e+001
1.533610e+002,1.723262e+001
1.543252e+002,1.456401e+001
1.552894e+002,1.446631e+001
1.562537e+002,1.840560e+001
1.572179e+002,1.996353e+001
1.581821e+002,1.731987e+001
1.591464e+002,1.396609e+001
1.601106e+002,1.378699e+001
1.610748e+002,2.085408e+001
1.620391e+002,2.539855e+001
1.630033e+002,2.428236e+001
1.639676e+002,1.967196e+001
1.649318e+002,1.498220e+001
1.658960e+002,1.337846e+001
1.668603e+002,1.302617e+001
1.678245e+002,1.296584e+001
1.687887e+002,1.295926e+001
1.697530e+002,1.298702e+001
1.707172e+002,1.299050e+001
1.716814e+002,1.297346e+001
1.726457e+002,1.305344e+001
1.736099e+002,1.331306e+001
1.745741e+002,1.377949e+001
1.755384e+002,1.317265e+001
1.765026e+002,1.038130e+001
1.774668e+002,8.024206e+000
1.784311e+002,7.752923e+000
1.793953e+002,1.055339e+001
1.803595e+002,1.257883e+001
1.813238e+002,1.323520e+001
1.822880e+002,1.304121e+001
1.832522e+002,1.235406e+001
1.842165e+002,1.133209e+001
1.851807e+002,9.970062e+000
1.861449e+002,7.570227e+000
1.871092e+002,4.979718e+000
1.880734e+002,3.334253e+000
1.890376e+002,4.419800e+000
1.900019e+002,7.491925e+000
1.909661e+002,1.010756e+001
1.919303e+002,1.209126e+001
1.928946e+002,1.361098e+001
1.938588e+002,1.513043e+001
1.948230e+002,1.663606e+001
1.957873e+002,1.815929e+001
1.967515e+002,1.892611e+001
1.977157e+002,1.907799e+001
1.986800e+002,2.225173e+001
1.996442e+002,2.853135e+001
2.006084e+002,3.760596e+001
2.015727e+002,5.337941e+001
2.025369e+002,7.661586e+001
2.035011e+002,9.255505e+001
2.044654e+002,8.693704e+001
2.054296e+002,7.361066e+001
2.063938e+002,5.862597e+001
2.073581e+002,4.618274e+001
2.083223e+002,3.774380e+001
2.092865e+002,3.615658e+001
2.102508e+002,3.961362e+001
2.112150e+002,4.606456e+001
2.121792e+002,5.350673e+001
2.131435e+002,6.254228e+001
2.141077e+002,6.730354e+001
2.150719e+002,6.654800e+001
2.160362e+002,6.292763e+001
2.170004e+002,6.016708e+001
2.179646e+002,5.791616e+001
2.189289e+002,5.745486e+001
2.198931e+002,5.763588e+001
2.208573e+002,5.952976e+001
2.218216e+002,6.537624e+001
2.227858e+002,8.156915e+001
2.237500e+002,9.717128e+001
2.247143e+002,1.105686e+002
2.256785e+002,1.198523e+002
2.266427e+002,1.224631e+002
2.276070e+002,1.082462e+002
2.285712e+002,8.562238e+001
2.295354e+002,6.473129e+001
2.304997e+002,4.865030e+001
2.314639e+002,3.701473e+001
2.324281e+002,2.832113e+001
2.333924e+002,2.272211e+001
2.343566e+002,1.825247e+001
2.353208e+002,1.418311e+001
2.362851e+002,1.041169e+001
2.372493e+002,7.872540e+000
2.382135e+002,6.932269e+000
2.391778e+002,6.541742e+000
2.401420e+002,6.494928e+000
2.411062e+002,6.861566e+000
2.420705e+002,6.593170e+000
2.430347e+002,4.567621e+000
2.439989e+002,2.062695e+000
2.449632e+002,-3.710937e-003
2.459274e+002,-9.299866e-001
2.468916e+002,-9.731933e-001
2.478559e+002,-9.027893e-001
2.488201e+002,-7.337158e-001
2.497843e+002,-4.586487e-001
2.507486e+002,-6.073608e-002
2.517128e+002,5.443543e-001
2.526770e+002,9.403626e-001
2.536413e+002,7.612488e-001
2.546055e+002,5.114197e-001
2.555697e+002,1.089807e+000
2.565340e+002,3.802478e+000
2.574982e+002,5.526794e+000
2.584625e+002,5.482721e+000
2.594267e+002,4.508868e+000
2.603909e+002,4.092481e+000
2.613552e+002,5.875916e+000
2.623194e+002,7.274506e+000
2.632836e+002,6.728570e+000
2.642479e+002,4.763641e+000
2.652121e+002,2.777191e+000
2.661763e+002,3.265381e+000
2.671406e+002,4.867169e+000
2.681048e+002,5.357855e+000
2.690690e+002,4.376471e+000
2.700333e+002,2.444904e+000
2.709975e+002,1.754761e+000
2.719617e+002,2.798108e+000
2.729260e+002,3.453973e+000
2.738902e+002,2.913074e+000
2.748544e+002,1.199701e+000
2.758187e+002,3.824646e-001
2.767829e+002,1.606555e+000
2.777471e+002,2.557990e+000
2.787114e+002,2.475616e+000
2.796756e+002,1.281103e+000
2.806398e+002,9.838867e-003
2.816041e+002,-1.356964e+000
2.825683e+002,-2.119116e+000
2.835325e+002,-1.196765e+000
2.844968e+002,1.617816e+000
2.854610e+002,4.758569e+000
2.864252e+002,3.588678e+000
2.873895e+002,1.533508e-001
2.883537e+002,-2.570880e+000
2.893179e+002,-2.689392e+000
2.902822e+002,1.867065e-002
2.912464e+002,1.524103e+000
2.922106e+002,1.932269e+000
2.931749e+002,1.619257e+000
2.941391e+002,4.859436e-001
2.951033e+002,-2.126709e+000
2.960676e+002,-3.474304e+000
2.970318e+002,-2.678168e+000
2.979960e+002,-1.279956e+000
2.989603e+002,-4.063843e-001
2.999245e+002,-7.132385e-001
3.008887e+002,-9.206238e-001
3.018530e+002,4.179749e-001
3.028172e+002,2.110675e+000
3.037814e+002,2.862347e+000
3.047457e+002,1.537225e+000
3.057099e+002,-9.354126e-001
3.066741e+002,-1.391467e+000
3.076384e+002,-2.879456e-001
3.086026e+002,9.354126e-001
3.095668e+002,6.554748e-001
3.105311e+002,-1.790845e+000
3.114953e+002,-3.377734e+000
3.124595e+002,-3.999298e+000
3.134238e+002,-4.034601e+000
3.143880e+002,-3.973584e+000
3.153522e+002,-4.170624e+000
3.163165e+002,-3.554773e+000
3.172807e+002,-1.440228e+000
3.182449e+002,1.334637e+000
3.192092e+002,3.914966e+000
3.201734e+002,5.872583e+000
3.211376e+002,6.979028e+000
3.221019e+002,7.065106e+000
3.230661e+002,6.472382e+000
3.240303e+002,5.635071e+000
3.249946e+002,5.029468e+000
3.259588e+002,4.657172e+000
3.269230e+002,4.264771e+000
3.278873e+002,3.835199e+000
3.288515e+002,3.609546e+000
3.298157e+002,4.038739e+000
3.307800e+002,5.942365e+000
3.317442e+002,7.245813e+000
3.327084e+002,7.246478e+000
3.336727e+002,6.759735e+000
3.346369e+002,7.324237e+000
3.356011e+002,1.055384e+001
3.365654e+002,1.309734e+001
3.375296e+002,1.353428e+001
3.384938e+002,1.292086e+001
3.394581e+002,1.290364e+001
3.404223e+002,1.497374e+001
3.413865e+002,1.818531e+001
3.423508e+002,2.134539e+001
3.433150e+002,2.466347e+001
3.442792e+002,2.871493e+001
3.452435e+002,3.451377e+001
3.462077e+002,4.220487e+001
3.471719e+002,4.954254e+001
3.481362e+002,5.575270e+001
3.491004e+002,6.250327e+001
3.500646e+002,7.347656e+001
3.510289e+002,8.642081e+001
3.519931e+002,1.090992e+002
3.529573e+002,1.445071e+002
3.539216e+002,1.889176e+002
3.548858e+002,2.379929e+002
3.558500e+002,3.070094e+002
3.568143e+002,3.546619e+002
3.577785e+002,3.650261e+002
3.587427e+002,3.454375e+002
3.597070e+002,3.082206e+002
3.606712e+002,2.585630e+002
3.616354e+002,2.060902e+002
3.625997e+002,1.618248e+002
3.635639e+002,1.265305e+002
3.645281e+002,9.943470e+001
3.654924e+002,7.898838e+001
3.664566e+002,6.712492e+001
3.674208e+002,5.704969e+001
3.683851e+002,4.894843e+001
3.693493e+002,4.251604e+001
3.703135e+002,3.723635e+001
3.712778e+002,3.431334e+001
3.722420e+002,3.131252e+001
3.732062e+002,2.740335e+001
3.741705e+002,2.343593e+001
3.751347e+002,2.088822e+001
3.760989e+002,2.155292e+001
3.770632e+002,2.234022e+001
3.780274e+002,2.137996e+001
3.789916e+002,1.927184e+001
3.799559e+002,1.705034e+001
3.809201e+002,1.579398e+001
3.818844e+002,1.554123e+001
3.828486e+002,1.586411e+001
3.838128e+002,1.671090e+001
3.847771e+002,1.775184e+001
3.857413e+002,1.849006e+001
3.867055e+002,1.876571e+001
3.876698e+002,1.923816e+001
3.886340e+002,1.954547e+001
3.895982e+002,2.008963e+001
3.905625e+002,2.168353e+001
3.915267e+002,2.582671e+001
3.924909e+002,2.837229e+001
3.934552e+002,2.784097e+001
3.944194e+002,2.594518e+001
3.953836e+002,2.454554e+001
3.963479e+002,2.486682e+001
3.973121e+002,2.559721e+001
3.982763e+002,2.574509e+001
3.992406e+002,2.537780e+001
4.002048e+002,2.430369e+001
4.011690e+002,2.226688e+001
4.021333e+002,1.972631e+001
4.030975e+002,1.963917e+001
4.040617e+002,2.196203e+001
4.050260e+002,2.514895e+001
4.059902e+002,2.758268e+001
4.069544e+002,2.860987e+001
4.079187e+002,3.076056e+001
4.088829e+002,3.384677e+001
4.098471e+002,3.778876e+001
4.108114e+002,4.245443e+001
4.117756e+002,4.771606e+001
4.127398e+002,5.437432e+001
4.137041e+002,6.563500e+001
4.146683e+002,7.627273e+001
4.156325e+002,8.232104e+001
4.165968e+002,8.170005e+001
4.175610e+002,7.676109e+001
4.185252e+002,7.016322e+001
4.194895e+002,6.300563e+001
4.204537e+002,5.636138e+001
4.214179e+002,5.096693e+001
4.223822e+002,4.691185e+001
4.233464e+002,4.639281e+001
4.243106e+002,4.934785e+001
4.252749e+002,5.310671e+001
4.262391e+002,5.589523e+001
4.272033e+002,5.744769e+001
4.281676e+002,6.233754e+001
4.291318e+002,7.079899e+001
4.300960e+002,8.230639e+001
4.310603e+002,9.647542e+001
4.320245e+002,1.132380e+002
4.329887e+002,1.335825e+002
4.339530e+002,1.617028e+002
4.349172e+002,1.917012e+002
4.358814e+002,2.240095e+002
4.368457e+002,2.565450e+002
4.378099e+002,2.849252e+002
4.387741e+002,2.999130e+002
4.397384e+002,3.025104e+002
4.407026e+002,2.945613e+002
4.416668e+002,2.754888e+002
4.426311e+002,2.483560e+002
4.435953e+002,2.234247e+002
4.445595e+002,1.998369e+002
4.455238e+002,1.803778e+002
4.464880e+002,1.661621e+002
4.474522e+002,1.560841e+002
4.484165e+002,1.482747e+002
4.493807e+002,1.451093e+002
4.503449e+002,1.406723e+002
4.513092e+002,1.328627e+002
4.522734e+002,1.226559e+002
4.532376e+002,1.113689e+002
4.542019e+002,9.964701e+001
4.551661e+002,8.851376e+001
4.561303e+002,7.853085e+001
4.570946e+002,6.989429e+001
4.580588e+002,6.297651e+001
4.590230e+002,5.819464e+001
4.599873e+002,5.584174e+001
4.609515e+002,5.424968e+001
4.619157e+002,5.344456e+001
4.628800e+002,5.300448e+001
4.638442e+002,5.237139e+001
4.648084e+002,5.102799e+001
4.657727e+002,5.128848e+001
4.667369e+002,5.374563e+001
4.677011e+002,5.704905e+001
4.686654e+002,6.078811e+001
4.696296e+002,6.487830e+001
4.705938e+002,6.800952e+001
4.715581e+002,6.937820e+001
4.725223e+002,6.937428e+001
4.734865e+002,6.794191e+001
4.744508e+002,6.519741e+001
4.754150e+002,6.151516e+001
4.763792e+002,5.737148e+001
4.773435e+002,5.293388e+001
4.783077e+002,4.864719e+001
4.792719e+002,4.463936e+001
4.802362e+002,4.096655e+001
4.812004e+002,3.787751e+001
4.821646e+002,3.561211e+001
4.831289e+002,3.356542e+001
4.840931e+002,3.172141e+001
4.850573e+002,2.998491e+001
4.860216e+002,2.811975e+001
4.869858e+002,2.589246e+001
4.879500e+002,2.412619e+001
4.889143e+002,2.324523e+001
4.898785e+002,2.289377e+001
4.908427e+002,2.245425e+001
4.918070e+002,2.126000e+001
4.927712e+002,2.001663e+001
4.937354e+002,1.974843e+001
4.946997e+002,2.032345e+001
4.956639e+002,2.152386e+001
4.966281e+002,2.316630e+001
4.975924e+002,2.531686e+001
4.985566e+002,2.599905e+001
4.995208e+002,2.412116e+001
5.004851e+002,2.270522e+001
5.014493e+002,2.423979e+001
5.024135e+002,2.948627e+001
5.033778e+002,3.417008e+001
5.043420e+002,3.799581e+001
5.053063e+002,4.128731e+001
5.062705e+002,4.457778e+001
5.072347e+002,4.772965e+001
5.081990e+002,4.911927e+001
5.091632e+002,4.508256e+001
5.101274e+002,3.983034e+001
5.110917e+002,3.588139e+001
5.120559e+002,3.368690e+001
5.130201e+002,3.216317e+001
5.139844e+002,2.908742e+001
5.149486e+002,2.451730e+001
5.159128e+002,2.016503e+001
5.168771e+002,1.618364e+001
5.178413e+002,1.264432e+001
5.188055e+002,9.717102e+000
5.197698e+002,7.651080e+000
5.207340e+002,5.912158e+000
5.216982e+002,4.378766e+000
5.226625e+002,3.164825e+000
5.236267e+002,2.503961e+000
5.245909e+002,2.660785e+000
5.255552e+002,2.800439e+000
5.265194e+002,2.358496e+000
5.274836e+002,1.785345e+000
5.284479e+002,1.637488e+000
5.294121e+002,2.199085e+000
5.303763e+002,2.897821e+000
5.313406e+002,1.585333e+000
5.323048e+002,-6.881164e-001
5.332690e+002,-1.482245e+000
5.342333e+002,4.911072e-001
5.351975e+002,4.712756e+000
5.361617e+002,6.896301e+000
5.371260e+002,6.044787e+000
5.380902e+002,4.840088e+000
5.390544e+002,3.178601e+000
5.400187e+002,1.354370e+000
5.409829e+002,4.855530e-001
5.419471e+002,1.888470e+000
5.429114e+002,3.122174e+000
5.438756e+002,3.495190e+000
5.448398e+002,3.237482e+000
5.458041e+002,2.728210e+000
5.467683e+002,2.149573e+000
5.477325e+002,1.726483e+000
5.486968e+002,1.775488e+000
5.496610e+002,2.129266e+000
5.506252e+002,2.499603e+000
5.515895e+002,2.649017e+000
5.525537e+002,2.571112e+000
5.535179e+002,2.400928e+000
5.544822e+002,2.183545e+000
5.554464e+002,1.933594e+000
5.564106e+002,1.648938e+000
5.573749e+002,1.304297e+000
5.583391e+002,8.143494e-001
5.593033e+002,-4.721069e-002
5.602676e+002,-7.565368e-001
5.612318e+002,-1.355157e+000
5.621960e+002,-1.707025e+000
5.631603e+002,-1.416272e+000
5.641245e+002,4.781006e-001
5.650887e+002,2.328625e+000
5.660530e+002,2.600922e+000
5.670172e+002,1.693323e+000
5.679814e+002,6.056336e-001
5.689457e+002,4.132324e-001
5.699099e+002,1.050104e+000
5.708741e+002,1.381409e+000
5.718384e+002,1.508771e+000
5.728026e+002,1.225049e+000
5.737668e+002,7.188110e-002
5.747311e+002,-2.350427e+000
5.756953e+002,-3.648816e+000
5.766595e+002,-3.178906e+000
5.776238e+002,-2.441852e+000
5.785880e+002,-1.900562e+000
5.795522e+002,-1.617523e+000
5.805165e+002,-1.425183e+000
5.814807e+002,-1.068433e+000
5.824449e+002,-9.031311e-001
5.834092e+002,-1.510620e+000
5.843734e+002,-2.573291e+000
5.853376e+002,-3.193573e+000
5.863019e+002,-2.151337e+000
5.872661e+002,5.162353e-002
5.882303e+002,4.424866e-001
5.891946e+002,-1.025848e+000
5.901588e+002,-2.705731e+000
5.911230e+002,-2.749182e+000
5.920873e+002,-3.863220e-001
5.930515e+002,4.546570e-001
5.940157e+002,-9.242615e-001
5.949800e+002,-2.539612e+000
5.959442e+002,-3.682471e+000
5.969084e+002,-4.257501e+000
5.978727e+002,-4.129126e+000
5.988369e+002,-2.176642e+000
5.998011e+002,-2.828918e-001
6.007654e+002,9.598206e-001
6.017296e+002,1.416022e+000
6.026938e+002,1.031366e+000
6.036581e+002,-5.726929e-001
6.046223e+002,-2.694891e+000
6.055865e+002,-3.262488e+000
6.065508e+002,-2.329566e+000
6.075150e+002,-8.670044e-001
6.084792e+002,8.574219e-002
6.094435e+002,3.957520e-001
6.104077e+002,9.421142e-001
6.113719e+002,2.280200e+000
6.123362e+002,3.165979e+000
6.133004e+002,2.334247e+000
6.142646e+002,-1.772583e-001
6.152289e+002,-1.297626e+000
6.161931e+002,2.442853e+000
6.171573e+002,5.867541e+000
6.181216e+002,6.848535e+000
6.190858e+002,5.856799e+000
6.200500e+002,4.635809e+000
6.210143e+002,4.674579e+000
6.219785e+002,5.777143e+000
6.229427e+002,7.558167e+000
6.239070e+002,9.782837e+000
6.248712e+002,1.146134e+001
6.258354e+002,1.155847e+001
6.267997e+002,9.771942e+000
6.277639e+002,1.033923e+001
6.287281e+002,1.466951e+001
6.296924e+002,1.871836e+001
6.306566e+002,2.074253e+001
6.316208e+002,2.086102e+001
6.325851e+002,2.055562e+001
6.335493e+002,1.984008e+001
6.345135e+002,1.922709e+001
6.354778e+002,1.889569e+001
6.364420e+002,1.872946e+001
6.374063e+002,1.855704e+001
6.383705e+002,1.833688e+001
6.393347e+002,1.778907e+001
6.402990e+002,1.637227e+001
6.412632e+002,1.443274e+001
6.422274e+002,1.268875e+001
6.431917e+002,1.166505e+001
6.441559e+002,1.133075e+001
6.451201e+002,1.139893e+001
6.460844e+002,1.256693e+001
6.470486e+002,1.282164e+001
6.480128e+002,1.084319e+001
6.489771e+002,7.287610e+000
6.499413e+002,4.991651e+000
6.509055e+002,5.496649e+000
6.518698e+002,6.001361e+000
6.528340e+002,5.599451e+000
6.537982e+002,4.874329e+000
6.547625e+002,4.694519e+000
6.557267e+002,5.610284e+000
6.566909e+002,6.848981e+000
6.576552e+002,7.101959e+000
6.586194e+002,6.888892e+000
6.595836e+002,7.149890e+000
6.605479e+002,8.341535e+000
6.615121e+002,1.005930e+001
6.624763e+002,1.041886e+001
6.634406e+002,8.601886e+000
6.644048e+002,7.512329e+000
6.653690e+002,7.997717e+000
6.663333e+002,9.207586e+000
6.672975e+002,9.499603e+000
6.682617e+002,8.124298e+000
6.692260e+002,7.348419e+000
6.701902e+002,7.968512e+000
6.711544e+002,9.075091e+000
6.721187e+002,9.978430e+000
6.730829e+002,1.040530e+001
6.740471e+002,1.056107e+001
6.750114e+002,1.063754e+001
6.759756e+002,1.072121e+001
6.769398e+002,1.099542e+001
6.779041e+002,1.143921e+001
6.788683e+002,1.176032e+001
6.798325e+002,1.142515e+001
6.807968e+002,1.024384e+001
6.817610e+002,8.901672e+000
6.827252e+002,6.508026e+000
6.836895e+002,4.649585e+000
6.846537e+002,5.112439e+000
6.856179e+002,8.424860e+000
6.865822e+002,1.096725e+001
6.875464e+002,1.193616e+001
6.885106e+002,1.202021e+001
6.894749e+002,1.080128e+001
6.904391e+002,8.820355e+000
6.914034e+002,7.472852e+000
6.923676e+002,8.245105e+000
6.933318e+002,1.021779e+001
6.942961e+002,1.218701e+001
6.952603e+002,1.402508e+001
6.962245e+002,1.554198e+001
6.971888e+002,1.656416e+001
6.981530e+002,1.705976e+001
6.991172e+002,1.673340e+001
7.000815e+002,1.449489e+001
7.010457e+002,1.345442e+001
7.020099e+002,1.557703e+001
7.029742e+002,2.013123e+001
7.039384e+002,2.350339e+001
7.049026e+002,2.449503e+001
7.058669e+002,2.466146e+001
7.068311e+002,2.367792e+001
7.077953e+002,2.246015e+001
7.087596e+002,2.233167e+001
7.097238e+002,2.408970e+001
7.106880e+002,2.614531e+001
7.116523e+002,2.515118e+001
7.126165e+002,2.283128e+001
7.135807e+002,2.190881e+001
7.145450e+002,2.341401e+001
7.155092e+002,2.637669e+001
7.164734e+002,2.812157e+001
7.174377e+002,2.828271e+001
7.184019e+002,2.752273e+001
7.193661e+002,2.492346e+001
7.203304e+002,2.192464e+001
7.212946e+002,2.011098e+001
7.222589e+002,1.985314e+001
7.232231e+002,1.984492e+001
7.241873e+002,1.998492e+001
7.251516e+002,1.991573e+001
7.261158e+002,1.917765e+001
7.270800e+002,1.789950e+001
7.280443e+002,1.672773e+001
7.290085e+002,1.642128e+001
7.299727e+002,1.669545e+001
7.309370e+002,1.693967e+001
7.319012e+002,1.710919e+001
7.328654e+002,1.700663e+001
7.338297e+002,1.642746e+001
7.347939e+002,1.533882e+001
7.357581e+002,1.428954e+001
7.367224e+002,1.286423e+001
7.376866e+002,1.196218e+001
7.386508e+002,1.206804e+001
7.396151e+002,1.288025e+001
7.405793e+002,1.361568e+001
7.415435e+002,1.424640e+001
7.425078e+002,1.448133e+001
7.434720e+002,1.345977e+001
7.444362e+002,1.235220e+001
7.454005e+002,1.249485e+001
7.463647e+002,1.445681e+001
7.473289e+002,1.739705e+001
7.482932e+002,2.040823e+001
7.492574e+002,2.314470e+001
7.502216e+002,2.417857e+001
7.511859e+002,2.303587e+001
7.521501e+002,2.071162e+001
7.531143e+002,1.900295e+001
7.540786e+002,1.810859e+001
7.550428e+002,1.760528e+001
7.560070e+002,1.734204e+001
7.569713e+002,1.748413e+001
7.579355e+002,1.855387e+001
7.588997e+002,2.040191e+001
7.598640e+002,2.141066e+001
7.608282e+002,1.958966e+001
7.617924e+002,1.782525e+001
7.627567e+002,1.768878e+001
7.637209e+002,1.878924e+001
7.646851e+002,2.019238e+001
7.656494e+002,2.114944e+001
7.666136e+002,2.175941e+001
7.675778e+002,2.256141e+001
7.685421e+002,2.353600e+001
7.695063e+002,2.404608e+001
7.704705e+002,2.357751e+001
7.714348e+002,2.249305e+001
7.723990e+002,2.229687e+001
7.733632e+002,2.392920e+001
7.743275e+002,2.496506e+001
7.752917e+002,2.482825e+001
7.762559e+002,2.439947e+001
7.772202e+002,2.438113e+001
7.781844e+002,2.494695e+001
7.791486e+002,2.586934e+001
7.801129e+002,2.747837e+001
7.810771e+002,2.902137e+001
7.820413e+002,2.998059e+001
7.830056e+002,3.034659e+001
7.839698e+002,3.025398e+001
7.849340e+002,2.977332e+001
7.858983e+002,2.902587e+001
7.868625e+002,3.030625e+001
7.878267e+002,3.421038e+001
7.887910e+002,3.758522e+001
7.897552e+002,3.828065e+001
7.907194e+002,3.671646e+001
7.916837e+002,3.619366e+001
7.926479e+002,3.768296e+001
7.936121e+002,3.934103e+001
7.945764e+002,4.120242e+001
7.955406e+002,4.280573e+001
7.965048e+002,4.347567e+001
7.974691e+002,4.298486e+001
7.984333e+002,4.261457e+001
7.993975e+002,4.437831e+001
8.003618e+002,4.697885e+001
8.013260e+002,4.916515e+001
8.022902e+002,5.068894e+001
8.032545e+002,5.194420e+001
8.042187e+002,5.354927e+001
8.051829e+002,5.560543e+001
8.061472e+002,5.768415e+001
8.071114e+002,5.946616e+001
8.080756e+002,6.149798e+001
8.090399e+002,6.386478e+001
8.100041e+002,6.668524e+001
8.109683e+002,7.064915e+001
8.119326e+002,7.693750e+001
8.128968e+002,8.310133e+001
8.138610e+002,8.817252e+001
8.148253e+002,9.262669e+001
8.157895e+002,9.684281e+001
8.167537e+002,1.010885e+002
8.177180e+002,1.056735e+002
8.186822e+002,1.117288e+002
8.196464e+002,1.185945e+002
8.206107e+002,1.250165e+002
8.215749e+002,1.307209e+002
8.225391e+002,1.352149e+002
8.235034e+002,1.377182e+002
8.244676e+002,1.379467e+002
8.254318e+002,1.365850e+002
8.263961e+002,1.335611e+002
8.273603e+002,1.298998e+002
8.283245e+002,1.259042e+002
8.292888e+002,1.215394e+002
8.302530e+002,1.165523e+002
8.312172e+002,1.102151e+002
8.321815e+002,1.043289e+002
8.331457e+002,1.004811e+002
8.341099e+002,9.774657e+001
8.350742e+002,9.460435e+001
8.360384e+002,9.039665e+001
8.370026e+002,8.612660e+001
8.379669e+002,8.447083e+001
8.389311e+002,8.553696e+001
8.398953e+002,8.470266e+001
8.408596e+002,8.079439e+001
8.418238e+002,7.583099e+001
8.427880e+002,7.225020e+001
8.437523e+002,7.038670e+001
8.447165e+002,6.825729e+001
8.456807e+002,6.513151e+001
8.466450e+002,6.227395e+001
8.476092e+002,6.012628e+001
8.485734e+002,5.852180e+001
8.495377e+002,5.708426e+001
8.505019e+002,5.563128e+001
8.514661e+002,5.437309e+001
8.524304e+002,5.377430e+001
8.533946e+002,5.346011e+001
8.543588e+002,5.279434e+001
8.553231e+002,5.153961e+001
8.562873e+002,5.002348e+001
8.572515e+002,4.898268e+001
8.582158e+002,4.871716e+001
8.591800e+002,4.793981e+001
8.601442e+002,4.533630e+001
8.611085e+002,4.343147e+001
8.620727e+002,4.475819e+001
8.630369e+002,4.903141e+001
8.640012e+002,5.177184e+001
8.649654e+002,5.031848e+001
8.659296e+002,4.821251e+001
8.668939e+002,4.640236e+001
8.678581e+002,4.518830e+001
8.688223e+002,4.506503e+001
8.697866e+002,4.618769e+001
8.707508e+002,4.763679e+001
8.717150e+002,4.723818e+001
8.726793e+002,4.542645e+001
8.736435e+002,4.441528e+001
8.746077e+002,4.476065e+001
8.755720e+002,4.537861e+001
8.765362e+002,4.474308e+001
8.775004e+002,4.245231e+001
8.784647e+002,4.068978e+001
8.794289e+002,3.963425e+001
8.803931e+002,3.884562e+001
8.813574e+002,3.809951e+001
8.823216e+002,3.752337e+001
8.832858e+002,3.771724e+001
8.842501e+002,3.937120e+001
8.852143e+002,4.044402e+001
8.861785e+002,3.796318e+001
8.871428e+002,3.404379e+001
8.881070e+002,3.101704e+001
8.890712e+002,2.959473e+001
8.900355e+002,2.913787e+001
8.909997e+002,2.867420e+001
8.919639e+002,2.823281e+001
8.929282e+002,2.770390e+001
8.938924e+002,2.702792e+001
8.948566e+002,2.634490e+001
8.958209e+002,2.575050e+001
8.967851e+002,2.521873e+001
8.977493e+002,2.457908e+001
8.987136e+002,2.350797e+001
8.996778e+002,2.276045e+001
9.006420e+002,2.284788e+001
9.016063e+002,2.321689e+001
9.025705e+002,2.351429e+001
9.035347e+002,2.356197e+001
9.044990e+002,2.321095e+001
9.054632e+002,2.212873e+001
9.064274e+002,2.040360e+001
9.073917e+002,1.872756e+001
9.083559e+002,1.713958e+001
9.093201e+002,1.589236e+001
9.102844e+002,1.526201e+001
9.112486e+002,1.520202e+001
9.122128e+002,1.495009e+001
9.131771e+002,1.414057e+001
9.141413e+002,1.363525e+001
9.151055e+002,1.402101e+001
9.160698e+002,1.443987e+001
9.170340e+002,1.378099e+001
9.179982e+002,1.184256e+001
9.189625e+002,1.007762e+001
9.199267e+002,9.896555e+000
9.208909e+002,1.038152e+001
9.218552e+002,1.105978e+001
9.228194e+002,1.163613e+001
9.237836e+002,1.130678e+001
9.247479e+002,9.410334e+000
9.257121e+002,6.482312e+000
9.266763e+002,5.777392e+000
9.276406e+002,8.576477e+000
9.286048e+002,1.074806e+001
9.295690e+002,1.225375e+001
9.305333e+002,1.275807e+001
9.314975e+002,1.142454e+001
9.324617e+002,7.959262e+000
9.334260e+002,5.073031e+000
9.343902e+002,4.284451e+000
9.353545e+002,4.067639e+000
9.363187e+002,3.974579e+000
9.372830e+002,3.939865e+000
9.382472e+002,3.994171e+000
9.392114e+002,4.175644e+000
9.401757e+002,4.592374e+000
9.411399e+002,5.581415e+000
9.421041e+002,7.016565e+000
9.430684e+002,8.214075e+000
9.440326e+002,9.080652e+000
9.449968e+002,9.532956e+000
9.459611e+002,9.304642e+000
9.469253e+002,8.235782e+000
9.478895e+002,7.898795e+000
9.488538e+002,8.820618e+000
9.498180e+002,9.968890e+000
9.507822e+002,1.136679e+001
9.517465e+002,1.267917e+001
9.527107e+002,1.348218e+001
9.536749e+002,1.361851e+001
9.546392e+002,1.347542e+001
9.556034e+002,1.337006e+001
9.565676e+002,1.327777e+001
9.575319e+002,1.311001e+001
9.584961e+002,1.292818e+001
9.594603e+002,1.306681e+001
9.604246e+002,1.389132e+001
9.613888e+002,1.538305e+001
9.623530e+002,1.651827e+001
9.633173e+002,1.623610e+001
9.642815e+002,1.702888e+001
9.652457e+002,1.914820e+001
9.662100e+002,2.263022e+001
9.671742e+002,2.714759e+001
9.681384e+002,3.254264e+001
9.691027e+002,4.030829e+001
9.700669e+002,5.268708e+001
9.710311e+002,6.698531e+001
9.719954e+002,8.514632e+001
9.729596e+002,1.037089e+002
9.739238e+002,1.157053e+002
9.748881e+002,1.164456e+002
9.758523e+002,1.081513e+002
9.768165e+002,9.745432e+001
9.777808e+002,8.367160e+001
9.787450e+002,7.133453e+001
9.797092e+002,6.070469e+001
9.806735e+002,5.183959e+001
9.816377e+002,4.499433e+001
9.826019e+002,4.021159e+001
9.835662e+002,3.658730e+001
9.845304e+002,3.471202e+001
9.854946e+002,3.318752e+001
9.864589e+002,3.136362e+001
9.874231e+002,2.969437e+001
9.883873e+002,2.858199e+001
9.893516e+002,2.822091e+001
9.903158e+002,2.884170e+001
9.912800e+002,3.106134e+001
9.922443e+002,3.471191e+001
9.932085e+002,3.801573e+001
9.941727e+002,4.082745e+001
9.951370e+002,4.466707e+001
9.961012e+002,5.046100e+001
9.970654e+002,5.800762e+001
9.980297e+002,6.654567e+001
9.989939e+002,7.240262e+001
9.999581e+002,8.646722e+001
1.000922e+003,1.051217e+002
1.001887e+003,1.354056e+002
1.002851e+003,1.868045e+002
1.003815e+003,2.565269e+002
1.004779e+003,3.341580e+002
1.005744e+003,4.249301e+002
1.006708e+003,4.953357e+002
1.007672e+003,4.929266e+002
1.008636e+003,4.376990e+002
1.009600e+003,3.674270e+002
1.010565e+003,2.977633e+002
1.011529e+003,2.325824e+002
1.012493e+003,1.808108e+002
1.013457e+003,1.451521e+002
1.014422e+003,1.168223e+002
1.015386e+003,9.688802e+001
1.016350e+003,8.085570e+001
1.017314e+003,6.737956e+001
1.018279e+003,5.636037e+001
1.019243e+003,4.828669e+001
1.020207e+003,4.371051e+001
1.021171e+003,4.046948e+001
1.022135e+003,3.739262e+001
1.023100e+003,3.436776e+001
1.024064e+003,3.099402e+001
1.025028e+003,2.742334e+001
1.025992e+003,2.446154e+001
1.026957e+003,2.284728e+001
1.027921e+003,2.242196e+001
1.028885e+003,2.188034e+001
1.029849e+003,2.122413e+001
1.030814e+003,2.044068e+001
1.031778e+003,1.917711e+001
1.032742e+003,1.791907e+001
1.033706e+003,1.732141e+001
1.034671e+003,1.743277e+001
1.035635e+003,1.731933e+001
1.036599e+003,1.633607e+001
1.037563e+003,1.541927e+001
1.038527e+003,1.519454e+001
1.039492e+003,1.525193e+001
1.040456e+003,1.488000e+001
1.041420e+003,1.393501e+001
1.042384e+003,1.317235e+001
1.043349e+003,1.379463e+001
1.044313e+003,1.575560e+001
1.045277e+003,1.668988e+001
1.046241e+003,1.645243e+001
1.047206e+003,1.579989e+001
1.048170e+003,1.463214e+001
1.049134e+003,1.338980e+001
1.050098e+003,1.336274e+001
1.051063e+003,1.523302e+001
1.052027e+003,1.657438e+001
1.052991e+003,1.638453e+001
1.053955e+003,1.558599e+001
1.054919e+003,1.421854e+001
1.055884e+003,1.271894e+001
1.056848e+003,1.190588e+001
1.057812e+003,1.228977e+001
1.058776e+003,1.316678e+001
1.059741e+003,1.276428e+001
1.060705e+003,1.130477e+001
1.061669e+003,1.099496e+001
1.062633e+003,1.247075e+001
1.063598e+003,1.400821e+001
1.064562e+003,1.376817e+001
1.065526e+003,1.195634e+001
1.066490e+003,1.120612e+001
1.067454e+003,1.250560e+001
1.068419e+003,1.357678e+001
1.069383e+003,1.342814e+001
1.070347e+003,1.316491e+001
1.071311e+003,1.418623e+001
1.072276e+003,1.619858e+001
1.073240e+003,1.721446e+001
1.074204e+003,1.546346e+001
1.075168e+003,1.247675e+001
1.076133e+003,1.208386e+001
1.077097e+003,1.355409e+001
1.078061e+003,1.431288e+001
1.079025e+003,1.341499e+001
1.079990e+003,1.199763e+001
1.080954e+003,1.185843e+001
1.081918e+003,1.330435e+001
1.082882e+003,1.392010e+001
1.083846e+003,1.223930e+001
1.084811e+003,1.130436e+001
1.085775e+003,1.258137e+001
1.086739e+003,1.436267e+001
1.087703e+003,1.459827e+001
1.088668e+003,1.303242e+001
1.089632e+003,1.154314e+001
1.090596e+003,1.182778e+001
1.091560e+003,1.297957e+001
1.092525e+003,1.308366e+001
1.093489e+003,1.237030e+001
1.094453e+003,1.181683e+001
1.095417e+003,1.187223e+001
1.096381e+003,1.235333e+001
1.097346e+003,1.289383e+001
1.098310e+003,1.349491e+001
1.099274e+003,1.415775e+001
1.100238e+003,1.551468e+001
1.101203e+003,1.621850e+001
1.102167e+003,1.550072e+001
1.103131e+003,1.402590e+001
1.104095e+003,1.249379e+001
1.105060e+003,1.114450e+001
1.106024e+003,1.026710e+001
1.106988e+003,1.016124e+001
1.107952e+003,1.080000e+001
1.108917e+003,1.249413e+001
1.109881e+003,1.481451e+001
1.110845e+003,1.591605e+001
1.111809e+003,1.464254e+001
1.112773e+003,1.230741e+001
1.113738e+003,1.228087e+001
1.114702e+003,1.603858e+001
1.115666e+003,1.790520e+001
1.116630e+003,1.666136e+001
1.117595e+003,1.530548e+001
1.118559e+003,1.457857e+001
1.119523e+003,1.449221e+001
1.120487e+003,1.515766e+001
1.121452e+003,1.658444e+001
1.122416e+003,1.788816e+001
1.123380e+003,1.821841e+001
1.124344e+003,1.793717e+001
1.125308e+003,1.765867e+001
1.126273e+003,1.735955e+001
1.127237e+003,1.661645e+001
1.128201e+003,1.511091e+001
1.129165e+003,1.356248e+001
1.130130e+003,1.382032e+001
1.131094e+003,1.677302e+001
1.132058e+003,1.863926e+001
1.133022e+003,1.882355e+001
1.133987e+003,1.891324e+001
1.134951e+003,1.973857e+001
1.135915e+003,2.069557e+001
1.136879e+003,2.056440e+001
1.137844e+003,1.909665e+001
1.138808e+003,1.804231e+001
1.139772e+003,1.926440e+001
1.140736e+003,2.113450e+001
1.141700e+003,2.136322e+001
1.142665e+003,2.038525e+001
1.143629e+003,1.960549e+001
1.144593e+003,1.972217e+001
1.145557e+003,2.037139e+001
1.146522e+003,2.084924e+001
1.147486e+003,2.113367e+001
1.148450e+003,2.097546e+001
1.149414e+003,1.987431e+001
1.150379e+003,1.914495e+001
1.151343e+003,1.955089e+001
1.152307e+003,2.027346e+001
1.153271e+003,2.006540e+001
1.154235e+003,1.877397e+001
1.155200e+003,1.774608e+001
1.156164e+003,1.792524e+001
1.157128e+003,1.911656e+001
1.158092e+003,2.139884e+001
1.159057e+003,2.419802e+001
1.160021e+003,2.595513e+001
1.160985e+003,2.604637e+001
1.161949e+003,2.537200e+001
1.162914e+003,2.529453e+001
1.163878e+003,2.592933e+001
1.164842e+003,2.632299e+001
1.165806e+003,2.596343e+001
1.166771e+003,2.595678e+001
1.167735e+003,2.668271e+001
1.168699e+003,2.764389e+001
1.169663e+003,2.823197e+001
1.170627e+003,2.853616e+001
1.171592e+003,2.943725e+001
1.172556e+003,3.170843e+001
1.173520e+003,3.420755e+001
1.174484e+003,3.523457e+001
1.175449e+003,3.519991e+001
1.176413e+003,3.437702e+001
1.177377e+003,3.281630e+001
1.178341e+003,3.197886e+001
1.179306e+003,3.371352e+001
1.180270e+003,3.773494e+001
1.181234e+003,4.025321e+001
1.182198e+003,4.049847e+001
1.183162e+003,4.037895e+001
1.184127e+003,4.005620e+001
1.185091e+003,3.949806e+001
1.186055e+003,3.843294e+001
1.187019e+003,3.721803e+001
1.187984e+003,3.676510e+001
1.188948e+003,3.748383e+001
1.189912e+003,3.808703e+001
1.190876e+003,3.633844e+001
1.191841e+003,3.357255e+001
1.192805e+003,3.358685e+001
1.193769e+003,3.653650e+001
1.194733e+003,3.864495e+001
1.195698e+003,3.713497e+001
1.196662e+003,3.354464e+001
1.197626e+003,3.208963e+001
1.198590e+003,3.353182e+001
1.199554e+003,3.424111e+001
1.200519e+003,3.293694e+001
1.201483e+003,3.193657e+001
1.202447e+003,3.232820e+001
1.203411e+003,3.325578e+001
1.204376e+003,3.345747e+001
1.205340e+003,3.267890e+001
1.206304e+003,3.192029e+001
1.207268e+003,3.229700e+001
1.208233e+003,3.322583e+001
1.209197e+003,3.244410e+001
1.210161e+003,3.014663e+001
1.211125e+003,2.811039e+001
1.212089e+003,2.662064e+001
1.213054e+003,2.575607e+001
1.214018e+003,2.580412e+001
1.214982e+003,2.677906e+001
1.215946e+003,2.809808e+001
1.216911e+003,3.019678e+001
1.217875e+003,3.155001e+001
1.218839e+003,3.124232e+001
1.219803e+003,3.052813e+001
1.220768e+003,3.028671e+001
1.221732e+003,3.056428e+001
1.222696e+003,3.110441e+001
1.223660e+003,3.171780e+001
1.224625e+003,3.218417e+001
1.225589e+003,3.204640e+001
1.226553e+003,3.125261e+001
1.227517e+003,3.083924e+001
1.228481e+003,3.088891e+001
1.229446e+003,3.117918e+001
1.230410e+003,3.192568e+001
1.231374e+003,3.268597e+001
1.232338e+003,3.251290e+001
1.233303e+003,3.129859e+001
1.234267e+003,3.073278e+001
1.235231e+003,3.206556e+001
1.236195e+003,3.326357e+001
1.237160e+003,3.318319e+001
1.238124e+003,3.229896e+001
1.239088e+003,3.091064e+001
1.240052e+003,2.936222e+001
1.241016e+003,2.837870e+001
1.241981e+003,2.865544e+001
1.242945e+003,2.992677e+001
1.243909e+003,3.099244e+001
1.244873e+003,3.175377e+001
1.245838e+003,3.260413e+001
1.246802e+003,3.400234e+001
1.247766e+003,3.495079e+001
1.248730e+003,3.449655e+001
1.249695e+003,3.326939e+001
1.250659e+003,3.271415e+001
1.251623e+003,3.320758e+001
1.252587e+003,3.383976e+001
1.253552e+003,3.419937e+001
1.254516e+003,3.418362e+001
1.255480e+003,3.319374e+001
1.256444e+003,3.185361e+001
1.257408e+003,3.185698e+001
1.258373e+003,3.380845e+001
1.259337e+003,3.612683e+001
1.260301e+003,3.653373e+001
1.261265e+003,3.503930e+001
1.262230e+003,3.422883e+001
1.263194e+003,3.469393e+001
1.264158e+003,3.484991e+001
1.265122e+003,3.422982e+001
1.266087e+003,3.366982e+001
1.267051e+003,3.382516e+001
1.268015e+003,3.453428e+001
1.268979e+003,3.521886e+001
1.269943e+003,3.563174e+001
1.270908e+003,3.608992e+001
1.271872e+003,3.699209e+001
1.272836e+003,3.814826e+001
1.273800e+003,3.919590e+001
1.274765e+003,4.010796e+001
1.275729e+003,4.058010e+001
1.276693e+003,4.040544e+001
1.277657e+003,3.983360e+001
1.278622e+003,3.916093e+001
1.279586e+003,3.835142e+001
1.280550e+003,3.759850e+001
1.281514e+003,3.649569e+001
1.282479e+003,3.639152e+001
1.283443e+003,3.867211e+001
1.284407e+003,4.100108e+001
1.285371e+003,4.151177e+001
1.286335e+003,4.039344e+001
1.287300e+003,3.864005e+001
1.288264e+003,3.687867e+001
1.289228e+003,3.562676e+001
1.290192e+003,3.573427e+001
1.291157e+003,3.714373e+001
1.292121e+003,3.811002e+001
1.293085e+003,3.832220e+001
1.294049e+003,3.884734e+001
1.295014e+003,4.056408e+001
1.295978e+003,4.250236e+001
1.296942e+003,4.341885e+001
1.297906e+003,4.338419e+001
1.298870e+003,4.341734e+001
1.299835e+003,4.388420e+001
1.300799e+003,4.406085e+001
1.301763e+003,4.302969e+001
1.302727e+003,4.183494e+001
1.303692e+003,4.137612e+001
1.304656e+003,4.177502e+001
1.305620e+003,4.300527e+001
1.306584e+003,4.499043e+001
1.307549e+003,4.701192e+001
1.308513e+003,4.766376e+001
1.309477e+003,4.669600e+001
1.310441e+003,4.598953e+001
1.311406e+003,4.585513e+001
1.312370e+003,4.563484e+001
1.313334e+003,4.469836e+001
1.314298e+003,4.411840e+001
1.315263e+003,4.531889e+001
1.316227e+003,4.771456e+001
1.317191e+003,4.918878e+001
1.318155e+003,4.880220e+001
1.319120e+003,4.777981e+001
1.320084e+003,4.728355e+001
1.321048e+003,4.716223e+001
1.322012e+003,4.723594e+001
1.322976e+003,4.744538e+001
1.323941e+003,4.715772e+001
1.324905e+003,4.580718e+001
1.325869e+003,4.449739e+001
1.326833e+003,4.533923e+001
1.327798e+003,4.828065e+001
1.328762e+003,4.917525e+001
1.329726e+003,4.629350e+001
1.330690e+003,4.390175e+001
1.331655e+003,4.309918e+001
1.332619e+003,4.318776e+001
1.333583e+003,4.398449e+001
1.334547e+003,4.521725e+001
1.335511e+003,4.678237e+001
1.336476e+003,4.849983e+001
1.337440e+003,4.977393e+001
1.338404e+003,4.984959e+001
1.339368e+003,4.886622e+001
1.340333e+003,4.767124e+001
1.341297e+003,4.565955e+001
1.342261e+003,4.509917e+001
1.343225e+003,4.768951e+001
1.344190e+003,5.032214e+001
1.345154e+003,5.052559e+001
1.346118e+003,4.922129e+001
1.347082e+003,4.892644e+001
1.348047e+003,5.025003e+001
1.349011e+003,5.097663e+001
1.349975e+003,4.925188e+001
1.350939e+003,4.697397e+001
1.351903e+003,4.585866e+001
1.352868e+003,4.580950e+001
1.353832e+003,4.709750e+001
1.354796e+003,4.966753e+001
1.355760e+003,5.167206e+001
1.356725e+003,5.117153e+001
1.357689e+003,4.879419e+001
1.358653e+003,4.725165e+001
1.359617e+003,4.642428e+001
1.360582e+003,4.682204e+001
1.361546e+003,5.032961e+001
1.362510e+003,5.274660e+001
1.363474e+003,5.179714e+001
1.364438e+003,4.979742e+001
1.365403e+003,4.920752e+001
1.366367e+003,5.018121e+001
1.367331e+003,5.137740e+001
1.368295e+003,5.194746e+001
1.369260e+003,5.218182e+001
1.370224e+003,5.268595e+001
1.371188e+003,5.350801e+001
1.372152e+003,5.363094e+001
1.373117e+003,5.253497e+001
1.374081e+003,5.185819e+001
1.375045e+003,5.253035e+001
1.376009e+003,5.364198e+001
1.376974e+003,5.433295e+001
1.377938e+003,5.459309e+001
1.378902e+003,5.437751e+001
1.379866e+003,5.345596e+001
1.380830e+003,5.263907e+001
1.381795e+003,5.255780e+001
1.382759e+003,5.281881e+001
1.383723e+003,5.328505e+001
1.384687e+003,5.383677e+001
1.385652e+003,5.402480e+001
1.386616e+003,5.369397e+001
1.387580e+003,5.364611e+001
1.388544e+003,5.512500e+001
1.389509e+003,5.776866e+001
1.390473e+003,5.818818e+001
1.391437e+003,5.483842e+001
1.392401e+003,5.291747e+001
1.393365e+003,5.332197e+001
1.394330e+003,5.438923e+001
1.395294e+003,5.622764e+001
1.396258e+003,5.780702e+001
1.397222e+003,5.762972e+001
1.398187e+003,5.600066e+001
1.399151e+003,5.504028e+001
1.400115e+003,5.618336e+001
1.401079e+003,5.807904e+001
1.402044e+003,5.816222e+001
1.403008e+003,5.640807e+001
1.403972e+003,5.566574e+001
1.404936e+003,5.640271e+001
1.405901e+003,5.707356e+001
1.406865e+003,5.684234e+001
1.407829e+003,5.654642e+001
1.408793e+003,5.730872e+001
1.409757e+003,5.888281e+001
1.410722e+003,5.991390e+001
1.411686e+003,5.994279e+001
1.412650e+003,5.956207e+001
1.413614e+003,5.868504e+001
1.414579e+003,5.823082e+001
1.415543e+003,5.959284e+001
1.416507e+003,6.213739e+001
1.417471e+003,6.427003e+001
1.418436e+003,6.545171e+001
1.419400e+003,6.560148e+001
1.420364e+003,6.439514e+001
1.421328e+003,6.230875e+001
1.422292e+003,6.108213e+001
1.423257e+003,6.067019e+001
1.424221e+003,6.105045e+001
1.425185e+003,6.351334e+001
1.426149e+003,6.513626e+001
1.427114e+003,6.424819e+001
1.428078e+003,6.300399e+001
1.429042e+003,6.364681e+001
1.430006e+003,6.577154e+001
1.430971e+003,6.747070e+001
1.431935e+003,6.776327e+001
1.432899e+003,6.732944e+001
1.433863e+003,6.713361e+001
1.434828e+003,6.722221e+001
1.435792e+003,6.762886e+001
1.436756e+003,6.843035e+001
1.437720e+003,6.901176e+001
1.438684e+003,6.934544e+001
1.439649e+003,6.963954e+001
1.440613e+003,7.009729e+001
1.441577e+003,7.056197e+001
1.442541e+003,7.074332e+001
1.443506e+003,7.053819e+001
1.444470e+003,6.984657e+001
1.445434e+003,6.842975e+001
1.446398e+003,6.738213e+001
1.447363e+003,6.860930e+001
1.448327e+003,7.121645e+001
1.449291e+003,7.284820e+001
1.450255e+003,7.333528e+001
1.451219e+003,7.409871e+001
1.452184e+003,7.627836e+001
1.453148e+003,7.843132e+001
1.454112e+003,7.829689e+001
1.455076e+003,7.632291e+001
1.456041e+003,7.556074e+001
1.457005e+003,7.687780e+001
1.457969e+003,7.771981e+001
1.458933e+003,7.582860e+001
1.459898e+003,7.437286e+001
1.460862e+003,7.643243e+001
1.461826e+003,7.965535e+001
1.462790e+003,7.986000e+001
1.463755e+003,7.683943e+001
1.464719e+003,7.466518e+001
1.465683e+003,7.643166e+001
1.466647e+003,8.011078e+001
1.467611e+003,8.085373e+001
1.468576e+003,7.808761e+001
1.469540e+003,7.634415e+001
1.470504e+003,7.600166e+001
1.471468e+003,7.632570e+001
1.472433e+003,7.765022e+001
1.473397e+003,7.909334e+001
1.474361e+003,8.089970e+001
1.475325e+003,8.213120e+001
1.476290e+003,8.064068e+001
1.477254e+003,7.657670e+001
1.478218e+003,7.328734e+001
1.479182e+003,7.350050e+001
1.480146e+003,7.610354e+001
1.481111e+003,7.873701e+001
1.482075e+003,8.152367e+001
1.483039e+003,8.221971e+001
1.484003e+003,7.944510e+001
1.484968e+003,7.709940e+001
1.485932e+003,7.616179e+001
1.486896e+003,7.597765e+001
1.487860e+003,7.616756e+001
1.488825e+003,7.652434e+001
1.489789e+003,7.679454e+001
1.490753e+003,7.694292e+001
1.491717e+003,7.722234e+001
1.492682e+003,7.803293e+001
1.493646e+003,7.854574e+001
1.494610e+003,7.653300e+001
1.495574e+003,7.307460e+001
1.496538e+003,7.207064e+001
1.497503e+003,7.431154e+001
1.498467e+003,7.610036e+001
1.499431e+003,7.490398e+001
1.500395e+003,7.273332e+001
1.501360e+003,7.231969e+001
1.502324e+003,7.333540e+001
1.503288e+003,7.378457e+001
1.504252e+003,7.307893e+001
1.505217e+003,7.300142e+001
1.506181e+003,7.538564e+001
1.507145e+003,7.752868e+001
1.508109e+003,7.702088e+001
1.509073e+003,7.500249e+001
1.510038e+003,7.287103e+001
1.511002e+003,7.107279e+001
1.511966e+003,7.045056e+001
1.512930e+003,7.172037e+001
1.513895e+003,7.375356e+001
1.514859e+003,7.447091e+001
1.515823e+003,7.382869e+001
1.516787e+003,7.350008e+001
1.517752e+003,7.376707e+001
1.518716e+003,7.395927e+001
1.519680e+003,7.372699e+001
1.520644e+003,7.344189e+001
1.521609e+003,7.319064e+001
1.522573e+003,7.303137e+001
1.523537e+003,7.325967e+001
1.524501e+003,7.374487e+001
1.525465e+003,7.383282e+001
1.526430e+003,7.311400e+001
1.527394e+003,7.195422e+001
1.528358e+003,7.094663e+001
1.529322e+003,7.011499e+001
1.530287e+003,6.974938e+001
1.531251e+003,7.008952e+001
1.532215e+003,7.056182e+001
1.533179e+003,7.157849e+001
1.534144e+003,7.210056e+001
1.535108e+003,7.169096e+001
1.536072e+003,7.058490e+001
1.537036e+003,6.817592e+001
1.538000e+003,6.543479e+001
1.538965e+003,6.521510e+001
1.539929e+003,6.851115e+001
1.540893e+003,7.199762e+001
1.541857e+003,7.184198e+001
1.542822e+003,6.909711e+001
1.543786e+003,6.799603e+001
1.544750e+003,6.929849e+001
1.545714e+003,6.946381e+001
1.546679e+003,6.766658e+001
1.547643e+003,6.583064e+001
1.548607e+003,6.435871e+001
1.549571e+003,6.339753e+001
1.550536e+003,6.305463e+001
1.551500e+003,6.320648e+001
1.552464e+003,6.388865e+001
1.553428e+003,6.508160e+001
1.554392e+003,6.594035e+001
1.555357e+003,6.568582e+001
1.556321e+003,6.474619e+001
1.557285e+003,6.413294e+001
1.558249e+003,6.381700e+001
1.559214e+003,6.256335e+001
1.560178e+003,5.976497e+001
1.561142e+003,5.774321e+001
1.562106e+003,5.727887e+001
1.563071e+003,5.774187e+001
1.564035e+003,5.922706e+001
1.564999e+003,6.115172e+001
1.565963e+003,6.222402e+001
1.566927e+003,6.220256e+001
1.567892e+003,6.120299e+001
1.568856e+003,5.887656e+001
1.569820e+003,5.691719e+001
1.570784e+003,5.804125e+001
1.571749e+003,6.064046e+001
1.572713e+003,6.054215e+001
1.573677e+003,5.781730e+001
1.574641e+003,5.571265e+001
1.575606e+003,5.527226e+001
1.576570e+003,5.549774e+001
1.577534e+003,5.624335e+001
1.578498e+003,5.689772e+001
1.579463e+003,5.583995e+001
1.580427e+003,5.317960e+001
1.581391e+003,5.136312e+001
1.582355e+003,5.109950e+001
1.583319e+003,5.175018e+001
1.584284e+003,5.397445e+001
1.585248e+003,5.590379e+001
1.586212e+003,5.438912e+001
1.587176e+003,5.072835e+001
1.588141e+003,4.881344e+001
1.589105e+003,4.948285e+001
1.590069e+003,5.037231e+001
1.591033e+003,5.006275e+001
1.591998e+003,4.902433e+001
1.592962e+003,4.766171e+001
1.593926e+003,4.612593e+001
1.594890e+003,4.531375e+001
1.595854e+003,4.539954e+001
1.596819e+003,4.594664e+001
1.597783e+003,4.726856e+001
1.598747e+003,4.815986e+001
1.599711e+003,4.755255e+001
1.600676e+003,4.614896e+001
1.601640e+003,4.454641e+001
1.602604e+003,4.298322e+001
1.603568e+003,4.191917e+001
1.604533e+003,4.151281e+001
1.605497e+003,4.142133e+001
1.606461e+003,4.137078e+001
1.607425e+003,4.137942e+001
1.608390e+003,4.174289e+001
1.609354e+003,4.253677e+001
1.610318e+003,4.203397e+001
1.611282e+003,3.909206e+001
1.612246e+003,3.681303e+001
1.613211e+003,3.757310e+001
1.614175e+003,3.857920e+001
1.615139e+003,3.754754e+001
1.616103e+003,3.569864e+001
1.617068e+003,3.540809e+001
1.618032e+003,3.672005e+001
1.618996e+003,3.715045e+001
1.619960e+003,3.511595e+001
1.620925e+003,3.247263e+001
1.621889e+003,3.208460e+001
1.622853e+003,3.351913e+001
1.623817e+003,3.393691e+001
1.624781e+003,3.322243e+001
1.625746e+003,3.242075e+001
1.626710e+003,3.175195e+001
1.627674e+003,3.087748e+001
1.628638e+003,2.891220e+001
1.629603e+003,2.723385e+001
1.630567e+003,2.753646e+001
1.631531e+003,2.893568e+001
1.632495e+003,2.938358e+001
1.633460e+003,2.846582e+001
1.634424e+003,2.732464e+001
1.635388e+003,2.667960e+001
1.636352e+003,2.653515e+001
1.637317e+003,2.722570e+001
1.638281e+003,2.863822e+001
1.639245e+003,2.888169e+001
1.640209e+003,2.749241e+001
1.641173e+003,2.657278e+001
1.642138e+003,2.733600e+001
1.643102e+003,2.772686e+001
1.644066e+003,2.657557e+001
1.645030e+003,2.472039e+001
1.645995e+003,2.242580e+001
1.646959e+003,2.022705e+001
1.647923e+003,1.937580e+001
1.648887e+003,2.016136e+001
1.649852e+003,2.106035e+001
1.650816e+003,2.075854e+001
1.651780e+003,1.990247e+001
1.652744e+003,1.996399e+001
1.653708e+003,2.089212e+001
1.654673e+003,2.122667e+001
1.655637e+003,2.080542e+001
1.656601e+003,2.008134e+001
1.657565e+003,1.877906e+001
1.658530e+003,1.777700e+001
1.659494e+003,1.788980e+001
1.660458e+003,1.825644e+001
1.661422e+003,1.782967e+001
1.662387e+003,1.682309e+001
1.663351e+003,1.618935e+001
1.664315e+003,1.624078e+001
1.665279e+003,1.632483e+001
1.666244e+003,1.588941e+001
1.667208e+003,1.515201e+001
1.668172e+003,1.456513e+001
1.669136e+003,1.409061e+001
1.670100e+003,1.321716e+001
1.671065e+003,1.167990e+001
1.672029e+003,1.073908e+001
1.672993e+003,1.125896e+001
1.673957e+003,1.188687e+001
1.674922e+003,1.148375e+001
1.675886e+003,1.086421e+001
1.676850e+003,1.119409e+001
1.677814e+003,1.215731e+001
1.678779e+003,1.241792e+001
1.679743e+003,1.155898e+001
1.680707e+003,1.039050e+001
1.681671e+003,9.286116e+000
1.682635e+003,8.534540e+000
1.683600e+003,8.783717e+000
1.684564e+003,9.906729e+000
1.685528e+003,1.121655e+001
1.686492e+003,1.275570e+001
1.687457e+003,1.315909e+001
1.688421e+003,1.132937e+001
1.689385e+003,9.510959e+000
1.690349e+003,9.809412e+000
1.691314e+003,1.085564e+001
1.692278e+003,1.139521e+001
1.693242e+003,1.125012e+001
1.694206e+003,9.830338e+000
1.695171e+003,6.840085e+000
1.696135e+003,4.441247e+000
1.697099e+003,4.241478e+000
1.698063e+003,5.086340e+000
1.699027e+003,5.697949e+000
1.699992e+003,6.119673e+000
1.700956e+003,6.533514e+000
1.701920e+003,6.934256e+000
1.702884e+003,6.860599e+000
1.703849e+003,6.086342e+000
1.704813e+003,5.008911e+000
1.705777e+003,3.639297e+000
1.706741e+003,2.456029e+000
1.707706e+003,2.523521e+000
1.708670e+003,3.479039e+000
1.709634e+003,3.785429e+000
1.710598e+003,3.103674e+000
1.711563e+003,2.697833e+000
1.712527e+003,3.398904e+000
1.713491e+003,4.234546e+000
1.714455e+003,4.360719e+000
1.715419e+003,4.131253e+000
1.716384e+003,4.299405e+000
1.717348e+003,4.746443e+000
1.718312e+003,4.355528e+000
1.719276e+003,2.771022e+000
1.720241e+003,1.735530e+000
1.721205e+003,2.678737e+000
1.722169e+003,4.325067e+000
1.723133e+003,4.709077e+000
1.724098e+003,3.939256e+000
1.725062e+003,2.621689e+000
1.726026e+003,2.854401e-001
1.726990e+003,-7.409515e-001
1.727954e+003,8.451751e-001
1.728919e+003,2.594949e+000
1.729883e+003,3.685098e+000
1.730847e+003,4.189004e+000
1.731811e+003,4.132230e+000
1.732776e+003,3.600182e+000
1.733740e+003,2.399939e+000
1.734704e+003,7.662903e-001
1.735668e+003,1.007492e-001
1.736633e+003,1.203716e+000
1.737597e+003,2.545909e+000
1.738561e+003,2.045323e+000
1.739525e+003,2.557083e-001
1.740490e+003,-2.218002e-001
1.741454e+003,1.124753e+000
1.742418e+003,1.812877e+000
1.743382e+003,1.332104e+000
1.744346e+003,9.885559e-001
1.745311e+003,1.423392e+000
1.746275e+003,1.556467e+000
1.747239e+003,1.404175e-001
1.748203e+003,-1.505980e+000
1.749168e+003,-1.515437e+000
1.750132e+003,-1.814789e-001
1.751096e+003,9.764450e-001
1.752060e+003,1.320299e+000
1.753025e+003,1.216177e+000
1.753989e+003,9.838775e-001
1.754953e+003,7.416687e-001
1.755917e+003,7.559723e-001
1.756881e+003,1.026353e+000
1.757846e+003,1.438655e+000
1.758810e+003,2.312387e+000
1.759774e+003,2.465868e+000
1.760738e+003,9.386765e-001
1.761703e+003,-2.888367e-001
1.762667e+003,-1.732269e-001
1.763631e+003,1.890457e-001
1.764595e+003,-2.806000e-001
1.765560e+003,-1.046263e+000
1.766524e+003,-7.236252e-001
1.767488e+003,5.856491e-001
1.768452e+003,7.981704e-001
1.769417e+003,-1.312372e+000
1.770381e+003,-3.539522e+000
1.771345e+003,-3.017966e+000
1.772309e+003,-9.658020e-001
1.773273e+003,-6.566498e-001
1.774238e+003,-1.903944e+000
1.775202e+003,-2.356473e+000
1.776166e+003,-1.588933e+000
1.777130e+003,-7.748078e-001
1.778095e+003,-2.710709e-001
1.779059e+003,-3.677826e-002
1.780023e+003,-2.386856e-001
1.780987e+003,-5.746902e-001
1.781952e+003,-4.671402e-001
1.782916e+003,-4.611816e-002
1.783880e+003,9.486236e-002
1.784844e+003,-1.446091e-001
1.785808e+003,-4.963730e-001
1.786773e+003,-9.890839e-001
1.787737e+003,-1.400447e+000
1.788701e+003,-1.525078e+000
1.789665e+003,-1.494759e+000
1.790630e+003,-1.376073e+000
1.791594e+003,-1.284657e+000
1.792558e+003,-1.693146e+000
1.793522e+003,-2.634953e+000
1.794487e+003,-3.130032e+000
1.795451e+003,-2.536847e+000
1.796415e+003,-1.508261e+000
1.797379e+003,-9.150574e-001
1.798344e+003,-7.102127e-001
1.799308e+003,-6.034470e-001
1.800272e+003,-6.489929e-001
1.801236e+003,-6.466995e-001
1.802201e+003,-1.584000e-001
1.803165e+003,-2.279160e-001
1.804129e+003,-1.605881e+000
1.805093e+003,-2.870982e+000
1.806057e+003,-3.416953e+000
1.807022e+003,-3.341286e+000
1.807986e+003,-2.412210e+000
1.808950e+003,-1.109110e+000
1.809914e+003,-4.725784e-001
1.810879e+003,-7.345978e-001
1.811843e+003,-1.202420e+000
1.812807e+003,-1.382135e+000
1.813771e+003,-1.254538e+000
1.814736e+003,-6.220490e-001
1.815700e+003,3.282547e-001
1.816664e+003,3.492386e-001
1.817628e+003,-6.878250e-001
1.818593e+003,-1.425754e+000
1.819557e+003,-1.682933e+000
1.820521e+003,-1.672752e+000
1.821485e+003,-1.356094e+000
1.822449e+003,-9.554474e-001
1.823414e+003,-6.294144e-001
1.824378e+003,-3.604599e-001
1.825342e+003,-4.842377e-002
1.826306e+003,2.645996e-001
1.827271e+003,3.482468e-001
1.828235e+003,1.308868e-001
1.829199e+003,-1.152298e-001
1.830163e+003,-1.815353e-001
1.831128e+003,-2.928192e-001
1.832092e+003,-9.409378e-001
1.833056e+003,-1.581729e+000
1.834020e+003,-8.940948e-001
1.834984e+003,5.423538e-001
1.835949e+003,3.238831e-001
1.836913e+003,-1.810533e+000
1.837877e+003,-3.209024e+000
1.838841e+003,-2.424094e+000
1.839806e+003,-8.432144e-001
1.840770e+003,9.466400e-002
1.841734e+003,3.717041e-001
1.842698e+003,-1.391922e-001
1.843663e+003,-1.574844e+000
1.844627e+003,-2.344704e+000
1.845591e+003,-2.498607e+000
1.846555e+003,-1.886082e+000
1.847520e+003,6.670837e-001
1.848484e+003,2.420494e+000
1.849448e+003,1.880260e+000
1.850412e+003,6.366409e-001
1.851376e+003,-2.702560e-001
1.852341e+003,-7.582321e-001
1.853305e+003,-9.390839e-001
1.854269e+003,-8.588470e-001
1.855233e+003,-4.384033e-001
1.856198e+003,3.459778e-001
1.857162e+003,1.060233e+000
1.858126e+003,1.262448e+000
1.859090e+003,1.120966e+000
1.860055e+003,8.182694e-001
1.861019e+003,4.118546e-001
1.861983e+003,4.597183e-001
1.862947e+003,1.014993e+000
1.863911e+003,1.473550e+000
1.864876e+003,1.774904e+000
1.865840e+003,1.567844e+000
1.866804e+003,1.818512e-001
1.867768e+003,-1.019135e+000
1.868733e+003,-3.186874e-001
1.869697e+003,1.712996e+000
1.870661e+003,3.718614e+000
1.871625e+003,5.715636e+000
1.872590e+003,6.366757e+000
1.873554e+003,4.716363e+000
1.874518e+003,3.426741e+000
1.875482e+003,3.764171e+000
1.876447e+003,4.045527e+000
1.877411e+003,2.837485e+000
1.878375e+003,1.383957e+000
1.879339e+003,1.264757e+000
1.880303e+003,2.016385e+000
1.881268e+003,2.375653e+000
1.882232e+003,2.125014e+000
1.883196e+003,1.882776e+000
1.884160e+003,2.001175e+000
1.885125e+003,2.375821e+000
1.886089e+003,2.901199e+000
1.887053e+003,3.473953e+000
1.888017e+003,3.798311e+000
1.888982e+003,3.877464e+000
1.889946e+003,4.187373e+000
1.890910e+003,4.880777e+000
1.891874e+003,4.972411e+000
1.892839e+003,3.822606e+000
1.893803e+003,3.081496e+000
1.894767e+003,3.774429e+000
1.895731e+003,4.895474e+000
1.896695e+003,5.502112e+000
1.897660e+003,5.921950e+000
1.898624e+003,7.069966e+000
1.899588e+003,8.725334e+000
1.900552e+003,8.789388e+000
1.901517e+003,6.309148e+000
1.902481e+003,4.273738e+000
1.903445e+003,3.949092e+000
1.904409e+003,4.385549e+000
1.905374e+003,5.419293e+000
1.906338e+003,6.527765e+000
1.907302e+003,7.224261e+000
1.908266e+003,7.403987e+000
1.909230e+003,6.707315e+000
1.910195e+003,5.412283e+000
1.911159e+003,4.788542e+000
1.912123e+003,5.345453e+000
1.913087e+003,6.023028e+000
1.914052e+003,5.806844e+000
1.915016e+003,4.964192e+000
1.915980e+003,3.925201e+000
1.916944e+003,2.773427e+000
1.917909e+003,2.807608e+000
1.918873e+003,4.385925e+000
1.919837e+003,5.010649e+000
1.920801e+003,3.985219e+000
1.921766e+003,3.191469e+000
1.922730e+003,3.350093e+000
1.923694e+003,3.754813e+000
1.924658e+003,4.146220e+000
1.925622e+003,4.363780e+000
1.926587e+003,3.879332e+000
1.927551e+003,3.069841e+000
1.928515e+003,3.489891e+000
1.929479e+003,5.488156e+000
1.930444e+003,6.421401e+000
1.931408e+003,4.481430e+000
1.932372e+003,2.926814e+000
1.933336e+003,3.992891e+000
1.934301e+003,5.276479e+000
1.935265e+003,4.398673e+000
1.936229e+003,2.757280e+000
1.937193e+003,2.610696e+000
1.938157e+003,3.599486e+000
1.939122e+003,3.848514e+000
1.940086e+003,3.061636e+000
1.941050e+003,2.844032e+000
1.942014e+003,4.132222e+000
1.942979e+003,5.704072e+000
1.943943e+003,6.083017e+000
1.944907e+003,5.625266e+000
1.945871e+003,5.158307e+000
1.946836e+003,4.717719e+000
1.947800e+003,4.878209e+000
1.948764e+003,5.736430e+000
1.949728e+003,6.034549e+000
1.950693e+003,5.294655e+000
1.951657e+003,4.843751e+000
1.952621e+003,5.580914e+000
1.953585e+003,6.394919e+000
1.954549e+003,6.155876e+000
1.955514e+003,5.287199e+000
1.956478e+003,4.547414e+000
1.957442e+003,3.961957e+000
1.958406e+003,4.053052e+000
1.959371e+003,5.304090e+000
1.960335e+003,5.871373e+000
1.961299e+003,4.796265e+000
1.962263e+003,4.027522e+000
1.963228e+003,4.670290e+000
1.964192e+003,5.347035e+000
1.965156e+003,4.601294e+000
1.966120e+003,3.662416e+000
1.967084e+003,4.642558e+000
1.968049e+003,6.743299e+000
1.969013e+003,7.213698e+000
1.969977e+003,5.705411e+000
1.970941e+003,5.022258e+000
1.971906e+003,6.852631e+000
1.972870e+003,9.059718e+000
1.973834e+003,9.378932e+000
1.974798e+003,8.649057e+000
1.975763e+003,8.190152e+000
1.976727e+003,7.891188e+000
1.977691e+003,7.356370e+000
1.978655e+003,6.647170e+000
1.979620e+003,6.423668e+000
1.980584e+003,6.836530e+000
1.981548e+003,7.290404e+000
1.982512e+003,7.458932e+000
1.983476e+003,7.496045e+000
1.984441e+003,7.623561e+000
1.985405e+003,7.532773e+000
1.986369e+003,6.368651e+000
1.987333e+003,4.191969e+000
1.988298e+003,3.157327e+000
1.989262e+003,3.510823e+000
1.990226e+003,4.246857e+000
1.991190e+003,5.733495e+000
1.992155e+003,6.882646e+000
1.993119e+003,7.335777e+000
1.994083e+003,7.521716e+000
1.995047e+003,7.444036e+000
1.996011e+003,7.355507e+000
1.996976e+003,7.745845e+000
1.997940e+003,8.294047e+000
1.998904e+003,7.993251e+000
1.999868e+003,6.823744e+000
2.000833e+003,6.411662e+000
2.001797e+003,7.445517e+000
2.002761e+003,8.493777e+000
2.003725e+003,9.197245e+000
2.004690e+003,9.494392e+000
2.005654e+003,8.996384e+000
2.006618e+003,8.384686e+000
2.007582e+003,8.607059e+000
2.008547e+003,9.111938e+000
2.009511e+003,8.744345e+000
2.010475e+003,7.613136e+000
2.011439e+003,6.649364e+000
2.012403e+003,6.213953e+000
2.013368e+003,6.178436e+000
2.014332e+003,6.485003e+000
2.015296e+003,6.871977e+000
2.016260e+003,6.925269e+000
2.017225e+003,6.855700e+000
2.018189e+003,7.236879e+000
2.019153e+003,7.909930e+000
2.020117e+003,8.246211e+000
2.021082e+003,8.214396e+000
2.022046e+003,8.152956e+000
2.023010e+003,8.162023e+000
2.023974e+003,7.971410e+000
2.024938e+003,7.378264e+000
2.025903e+003,7.097085e+000
2.026867e+003,8.012743e+000
2.027831e+003,9.242426e+000
2.028795e+003,8.538524e+000
2.029760e+003,6.049399e+000
2.030724e+003,5.608188e+000
2.031688e+003,8.209224e+000
2.032652e+003,8.984370e+000
2.033617e+003,6.693924e+000
2.034581e+003,5.064401e+000
2.035545e+003,5.249580e+000
2.036509e+003,5.937266e+000
2.037474e+003,6.572465e+000
2.038438e+003,7.147452e+000
2.039402e+003,7.863332e+000
2.040366e+003,8.479398e+000
2.041330e+003,8.334973e+000
2.042295e+003,7.461415e+000
2.043259e+003,6.729505e+000
2.044223e+003,5.885915e+000
2.045187e+003,6.069308e+000
2.046152e+003,8.622678e+000
2.047116e+003,1.066022e+001
2.048080e+003,1.122132e+001
2.049044e+003,1.072356e+001
2.050009e+003,8.883705e+000
2.050973e+003,6.694253e+000
2.051937e+003,4.835089e+000
2.052901e+003,3.701478e+000
2.053865e+003,4.081183e+000
2.054830e+003,5.823535e+000
2.055794e+003,7.425426e+000
2.056758e+003,8.250046e+000
2.057722e+003,8.677569e+000
2.058687e+003,8.818575e+000
2.059651e+003,8.898809e+000
2.060615e+003,9.406110e+000
2.061579e+003,9.725182e+000
2.062544e+003,8.752089e+000
2.063508e+003,7.100503e+000
2.064472e+003,6.024428e+000
2.065436e+003,5.625687e+000
2.066401e+003,5.502213e+000
2.067365e+003,5.463701e+000
2.068329e+003,5.392291e+000
2.069293e+003,5.222064e+000
2.070258e+003,5.077153e+000
2.071222e+003,5.122653e+000
2.072186e+003,5.264349e+000
2.073150e+003,5.198161e+000
2.074115e+003,5.035820e+000
2.075079e+003,5.324094e+000
2.076043e+003,6.002113e+000
2.077007e+003,6.645518e+000
2.077971e+003,7.192210e+000
2.078936e+003,7.327989e+000
2.079900e+003,6.915862e+000
2.080864e+003,6.615363e+000
2.081828e+003,6.934195e+000
2.082792e+003,7.277530e+000
2.083757e+003,6.746689e+000
2.084721e+003,5.737325e+000
2.085685e+003,5.737092e+000
2.086649e+003,6.816132e+000
2.087614e+003,7.364497e+000
2.088578e+003,7.253329e+000
2.089542e+003,7.258260e+000
2.090506e+003,7.517014e+000
2.091471e+003,7.629976e+000
2.092435e+003,7.543851e+000
2.093399e+003,7.125586e+000
2.094363e+003,6.008653e+000
2.095328e+003,4.929025e+000
2.096292e+003,4.858962e+000
2.097256e+003,5.563112e+000
2.098220e+003,6.302925e+000
2.099185e+003,7.089690e+000
2.100149e+003,8.105988e+000
2.101113e+003,1.017176e+001
2.102077e+003,1.089181e+001
2.103042e+003,9.300903e+000
2.104006e+003,7.661704e+000
2.104970e+003,5.706294e+000
2.105934e+003,4.731799e+000
2.106898e+003,6.291820e+000
2.107863e+003,8.432323e+000
2.108827e+003,9.350200e+000
2.109791e+003,9.261103e+000
2.110755e+003,8.379534e+000
2.111719e+003,6.846339e+000
2.112684e+003,6.645793e+000
2.113648e+003,9.011515e+000
2.114612e+003,9.972778e+000
2.115576e+003,7.399538e+000
2.116541e+003,5.095346e+000
2.117505e+003,4.346193e+000
2.118469e+003,4.363490e+000
2.119433e+003,4.889737e+000
2.120398e+003,5.718242e+000
2.121362e+003,6.930482e+000
2.122326e+003,8.153898e+000
2.123290e+003,8.678296e+000
2.124255e+003,8.596876e+000
2.125219e+003,8.829729e+000
2.126183e+003,9.679425e+000
2.127147e+003,1.008142e+001
2.128112e+003,9.095616e+000
2.129076e+003,8.299952e+000
2.130040e+003,8.615385e+000
2.131004e+003,9.357717e+000
2.131969e+003,1.042597e+001
2.132933e+003,1.121259e+001
2.133897e+003,1.077117e+001
2.134861e+003,9.762660e+000
2.135825e+003,9.501709e+000
2.136790e+003,9.913681e+000
2.137754e+003,9.938588e+000
2.138718e+003,9.272511e+000
2.139682e+003,8.492908e+000
2.140646e+003,7.796475e+000
2.141611e+003,7.581389e+000
2.142575e+003,8.423230e+000
2.143539e+003,9.593267e+000
2.144503e+003,1.088163e+001
2.145468e+003,1.169031e+001
2.146432e+003,1.060601e+001
2.147396e+003,8.684848e+000
2.148360e+003,8.118649e+000
2.149325e+003,8.852412e+000
2.150289e+003,9.579596e+000
2.151253e+003,9.829973e+000
2.152217e+003,9.737658e+000
2.153182e+003,9.382550e+000
2.154146e+003,9.218486e+000
2.155110e+003,9.865102e+000
2.156074e+003,1.062748e+001
2.157039e+003,1.047741e+001
2.158003e+003,9.887672e+000
2.158967e+003,9.647679e+000
2.159931e+003,9.654892e+000
2.160896e+003,9.544187e+000
2.161860e+003,9.332924e+000
2.162824e+003,9.150874e+000
2.163788e+003,9.112305e+000
2.164752e+003,9.577947e+000
2.165717e+003,1.068227e+001
2.166681e+003,1.188899e+001
2.167645e+003,1.282015e+001
2.168609e+003,1.320774e+001
2.169573e+003,1.244510e+001
2.170538e+003,1.107035e+001
2.171502e+003,9.903325e+000
2.172466e+003,8.995796e+000
2.173430e+003,8.577634e+000
2.174395e+003,8.564127e+000
2.175359e+003,8.470240e+000
2.176323e+003,8.353203e+000
2.177287e+003,9.288004e+000
2.178252e+003,1.143298e+001
2.179216e+003,1.261609e+001
2.180180e+003,1.125979e+001
2.181144e+003,9.403455e+000
2.182109e+003,9.603933e+000
2.183073e+003,1.078097e+001
2.184037e+003,1.093047e+001
2.185001e+003,1.039489e+001
2.185966e+003,1.000586e+001
2.186930e+003,9.765543e+000
2.187894e+003,9.287807e+000
2.188858e+003,8.699539e+000
2.189823e+003,8.897336e+000
2.190787e+003,9.977621e+000
2.191751e+003,1.096641e+001
2.192715e+003,1.134923e+001
2.193679e+003,1.124265e+001
2.194644e+003,1.064327e+001
2.195608e+003,1.012937e+001
2.196572e+003,1.101824e+001
2.197536e+003,1.250369e+001
2.198500e+003,1.237636e+001
2.199465e+003,1.125506e+001
2.200429e+003,1.091288e+001
2.201393e+003,1.134741e+001
2.202357e+003,1.211159e+001
2.203322e+003,1.293744e+001
2.204286e+003,1.309199e+001
2.205250e+003,1.237514e+001
2.206214e+003,1.146159e+001
2.207179e+003,1.081036e+001
2.208143e+003,1.064145e+001
2.209107e+003,1.135853e+001
2.210071e+003,1.238760e+001
2.211036e+003,1.260917e+001
2.212000e+003,1.236707e+001
2.212964e+003,1.255130e+001
2.213928e+003,1.297134e+001
2.214893e+003,1.285120e+001
2.215857e+003,1.237530e+001
2.216821e+003,1.258400e+001
2.217785e+003,1.359365e+001
2.218750e+003,1.450572e+001
2.219714e+003,1.491429e+001
2.220678e+003,1.523909e+001
2.221642e+003,1.581469e+001
2.222606e+003,1.670657e+001
2.223571e+003,1.832863e+001
2.224535e+003,1.995721e+001
2.225499e+003,1.992172e+001
2.226463e+003,1.913729e+001
2.227427e+003,1.955335e+001
2.228392e+003,2.088899e+001
2.229356e+003,2.219980e+001
2.230320e+003,2.328267e+001
2.231284e+003,2.398782e+001
2.232249e+003,2.441645e+001
2.233213e+003,2.537809e+001
2.234177e+003,2.725391e+001
2.235141e+003,2.899463e+001
2.236106e+003,2.952261e+001
2.237070e+003,3.000615e+001
2.238034e+003,3.222909e+001
2.238998e+003,3.488300e+001
2.239963e+003,3.579165e+001
2.240927e+003,3.610613e+001
2.241891e+003,3.811901e+001
2.242855e+003,4.115999e+001
2.243820e+003,4.315947e+001
2.244784e+003,4.420969e+001
2.245748e+003,4.600706e+001
2.246712e+003,4.890171e+001
2.247677e+003,5.146216e+001
2.248641e+003,5.294413e+001
2.249605e+003,5.447396e+001
2.250569e+003,5.737249e+001
2.251533e+003,5.992350e+001
2.252498e+003,6.036171e+001
2.253462e+003,5.980864e+001
2.254426e+003,5.940453e+001
2.255390e+003,5.884315e+001
2.256354e+003,5.755042e+001
2.257319e+003,5.570158e+001
2.258283e+003,5.383300e+001
2.259247e+003,5.187256e+001
2.260211e+003,4.907195e+001
2.261176e+003,4.535229e+001
2.262140e+003,4.194392e+001
2.263104e+003,3.934324e+001
2.264068e+003,3.715411e+001
2.265033e+003,3.516401e+001
2.265997e+003,3.351258e+001
2.266961e+003,3.254557e+001
2.267925e+003,3.163662e+001
2.268890e+003,3.021371e+001
2.269854e+003,2.866228e+001
2.270818e+003,2.777127e+001
2.271782e+003,2.692054e+001
2.272747e+003,2.458372e+001
2.273711e+003,2.124717e+001
2.274675e+003,1.930153e+001
2.275639e+003,1.922090e+001
2.276604e+003,1.885798e+001
2.277568e+003,1.741198e+001
2.278532e+003,1.619020e+001
2.279496e+003,1.562969e+001
2.280460e+003,1.511465e+001
2.281425e+003,1.450156e+001
2.282389e+003,1.378779e+001
2.283353e+003,1.289443e+001
2.284317e+003,1.204770e+001
2.285281e+003,1.143748e+001
2.286246e+003,1.100771e+001
2.287210e+003,1.069340e+001
2.288174e+003,1.046005e+001
2.289138e+003,1.023349e+001
2.290103e+003,1.010423e+001
2.291067e+003,9.462567e+000
2.292031e+003,7.635147e+000
2.292995e+003,6.615201e+000
2.293960e+003,6.777298e+000
2.294924e+003,7.160959e+000
2.295888e+003,7.734567e+000
2.296852e+003,8.149843e+000
2.297817e+003,8.194264e+000
2.298781e+003,8.119817e+000
2.299745e+003,8.200849e+000
2.300709e+003,8.267982e+000
2.301674e+003,7.997597e+000
2.302638e+003,7.405414e+000
2.303602e+003,6.577359e+000
2.304566e+003,5.445354e+000
2.305531e+003,4.950597e+000
2.306495e+003,5.243086e+000
2.307459e+003,5.137828e+000
2.308423e+003,4.422482e+000
2.309387e+003,4.298674e+000
2.310352e+003,5.154555e+000
2.311316e+003,5.362119e+000
2.312280e+003,4.078529e+000
2.313244e+003,3.141193e+000
2.314208e+003,4.134017e+000
2.315173e+003,5.631042e+000
2.316137e+003,5.607484e+000
2.317101e+003,4.403343e+000
2.318065e+003,2.219139e+000
2.319030e+003,-2.126739e-001
2.319994e+003,8.224182e-001
2.320958e+003,4.238510e+000
2.321922e+003,5.289094e+000
2.322887e+003,4.092897e+000
2.323851e+003,3.532320e+000
2.324815e+003,4.092328e+000
2.325779e+003,4.534879e+000
2.326744e+003,4.385745e+000
2.327708e+003,4.179843e+000
2.328672e+003,4.256930e+000
2.329636e+003,4.004382e+000
2.330601e+003,2.604837e+000
2.331565e+003,1.021268e+000
2.332529e+003,5.791168e-002
2.333493e+003,-2.225906e-001
2.334458e+003,7.731231e-001
2.335422e+003,2.079793e+000
2.336386e+003,2.450233e+000
2.337350e+003,2.130849e+000
2.338314e+003,1.687230e+000
2.339279e+003,1.219472e+000
2.340243e+003,5.680893e-001
2.341207e+003,-2.371612e-001
2.342171e+003,-6.538315e-001
2.343135e+003,-3.927902e-001
2.344100e+003,-3.282913e-001
2.345064e+003,-1.200867e+000
2.346028e+003,-1.697473e+000
2.346992e+003,-9.869156e-001
2.347957e+003,-2.768082e-001
2.348921e+003,-2.569672e-001
2.349885e+003,-3.500809e-001
2.350849e+003,-1.135864e-002
2.351814e+003,3.446670e-001
2.352778e+003,1.802170e-001
2.353742e+003,-3.501129e-001
2.354706e+003,-9.026108e-001
2.355671e+003,-1.446709e+000
2.356635e+003,-1.759815e+000
2.357599e+003,-1.868103e+000
2.358563e+003,-1.609676e+000
2.359528e+003,-6.700379e-001
2.360492e+003,-5.427643e-001
2.361456e+003,-1.698969e+000
2.362420e+003,-2.279483e+000
2.363385e+003,-1.566846e+000
2.364349e+003,-1.224663e+000
2.365313e+003,-2.243146e+000
2.366277e+003,-3.125101e+000
2.367241e+003,-2.427066e+000
2.368206e+003,-1.246417e+000
2.369170e+003,-1.415575e+000
2.370134e+003,-2.371884e+000
2.371098e+003,-2.414944e+000
2.372063e+003,-1.813300e+000
2.373027e+003,-1.637767e+000
2.373991e+003,-1.805649e+000
2.374955e+003,-2.043983e+000
2.375919e+003,-2.296501e+000
2.376884e+003,-2.649924e+000
2.377848e+003,-2.957167e+000
2.378812e+003,-2.389735e+000
2.379776e+003,-8.687256e-001
2.380741e+003,2.632080e-001
2.381705e+003,2.787994e-001
2.382669e+003,-5.662430e-001
2.383633e+003,-2.933235e+000
2.384598e+003,-4.537993e+000
2.385562e+003,-2.642102e+000
2.386526e+003,-3.942993e-001
2.387490e+003,-5.791458e-001
2.388455e+003,-1.417505e+000
2.389419e+003,-9.385452e-001
2.390383e+003,-1.017120e-001
2.391347e+003,-4.310104e-001
2.392312e+003,-1.573586e+000
2.393276e+003,-2.653824e+000
2.394240e+003,-3.480136e+000
2.395204e+003,-3.539918e+000
2.396168e+003,-2.662408e+000
2.397133e+003,-1.461449e+000
2.398097e+003,9.717178e-001
2.399061e+003,1.820952e+000
2.400025e+003,-4.993439e-002
2.400990e+003,-1.364738e+000
2.401954e+003,-1.297223e+000
2.402918e+003,-6.633331e-001
2.403882e+003,4.353363e-001
2.404846e+003,1.003531e+000
2.405811e+003,8.095856e-002
2.406775e+003,-1.187659e+000
2.407739e+003,-1.194788e+000
2.408703e+003,-2.897156e-001
2.409668e+003,7.910767e-001
2.410632e+003,1.913980e+000
2.411596e+003,2.188713e+000
2.412560e+003,1.817267e+000
2.413525e+003,1.876900e+000
2.414489e+003,2.208513e+000
2.415453e+003,1.671410e+000
2.416417e+003,4.123749e-001
2.417382e+003,-2.768143e-001
2.418346e+003,-1.537384e-001
2.419310e+003,-1.219955e-001
2.420274e+003,-5.626129e-001
2.421239e+003,-8.358307e-001
2.422203e+003,-5.154144e-001
2.423167e+003,2.077484e-002
2.424131e+003,5.401459e-001
2.425095e+003,1.138245e+000
2.426060e+003,2.394069e+000
2.427024e+003,3.151277e+000
2.427988e+003,1.757809e+000
2.428952e+003,1.854721e-001
2.429917e+003,7.499359e-001
2.430881e+003,2.220050e+000
2.431845e+003,2.501929e+000
2.432809e+003,1.867352e+000
2.433773e+003,1.716333e+000
2.434738e+003,2.067729e+000
2.435702e+003,2.276703e+000
2.436666e+003,2.139720e+000
2.437630e+003,2.756757e+000
2.438595e+003,4.520749e+000
2.439559e+003,5.089766e+000
2.440523e+003,3.948009e+000
2.441487e+003,3.520387e+000
2.442452e+003,4.555513e+000
2.443416e+003,5.356389e+000
2.444380e+003,5.060338e+000
2.445344e+003,4.471246e+000
2.446309e+003,4.249077e+000
2.447273e+003,4.192943e+000
2.448237e+003,3.968202e+000
2.449201e+003,3.871993e+000
2.450166e+003,4.682944e+000
2.451130e+003,5.761714e+000
2.452094e+003,6.018744e+000
2.453058e+003,5.824033e+000
2.454022e+003,5.889259e+000
2.454987e+003,5.937087e+000
2.455951e+003,4.951962e+000
2.456915e+003,3.573709e+000
2.457879e+003,3.703471e+000
2.458844e+003,5.370204e+000
2.459808e+003,6.805351e+000
2.460772e+003,7.617551e+000
2.461736e+003,8.015938e+000
2.462700e+003,7.561058e+000
2.463665e+003,7.462483e+000
2.464629e+003,8.270058e+000
2.465593e+003,8.842997e+000
2.466557e+003,9.024086e+000
2.467522e+003,8.703107e+000
2.468486e+003,7.596696e+000
2.469450e+003,6.662836e+000
2.470414e+003,6.569253e+000
2.471379e+003,7.074045e+000
2.472343e+003,7.929675e+000
2.473307e+003,8.932495e+000
2.474271e+003,9.751964e+000
2.475236e+003,1.030700e+001
2.476200e+003,1.016908e+001
2.477164e+003,9.610829e+000
2.478128e+003,9.393048e+000
2.479093e+003,9.491554e+000
2.480057e+003,9.948504e+000
2.481021e+003,1.045692e+001
2.481985e+003,1.015747e+001
2.482949e+003,9.223829e+000
2.483914e+003,8.633215e+000
2.484878e+003,8.678227e+000
2.485842e+003,9.374103e+000
2.486806e+003,1.097983e+001
2.487771e+003,1.183530e+001
2.488735e+003,1.050322e+001
2.489699e+003,9.692362e+000
2.490663e+003,1.052278e+001
2.491627e+003,1.132452e+001
2.492592e+003,1.149568e+001
2.493556e+003,1.162382e+001
2.494520e+003,1.196464e+001
2.495484e+003,1.245035e+001
2.496449e+003,1.311697e+001
2.497413e+003,1.357161e+001
2.498377e+003,1.320450e+001
2.499341e+003,1.240854e+001
2.500306e+003,1.217684e+001
2.501270e+003,1.245935e+001
2.502234e+003,1.326314e+001
2.503198e+003,1.427292e+001
2.504163e+003,1.391508e+001
2.505127e+003,1.284727e+001
2.506091e+003,1.349982e+001
2.507055e+003,1.547831e+001
2.508020e+003,1.677940e+001
2.508984e+003,1.710101e+001
2.509948e+003,1.726810e+001
2.510912e+003,1.749195e+001
2.511876e+003,1.708655e+001
2.512841e+003,1.539944e+001
2.513805e+003,1.469602e+001
2.514769e+003,1.688507e+001
2.515733e+003,1.827650e+001
2.516698e+003,1.649570e+001
2.517662e+003,1.595696e+001
2.518626e+003,1.907013e+001
2.519590e+003,2.187754e+001
2.520554e+003,2.218789e+001
2.521519e+003,2.181663e+001
2.522483e+003,2.227378e+001
2.523447e+003,2.303385e+001
2.524411e+003,2.329424e+001
2.525376e+003,2.355828e+001
2.526340e+003,2.529680e+001
2.527304e+003,2.784470e+001
2.528268e+003,2.895356e+001
2.529233e+003,2.929995e+001
2.530197e+003,3.077595e+001
2.531161e+003,3.269102e+001
2.532125e+003,3.281090e+001
2.533090e+003,3.193381e+001
2.534054e+003,3.269527e+001
2.535018e+003,3.511416e+001
2.535982e+003,3.738149e+001
2.536947e+003,3.904462e+001
2.537911e+003,4.019891e+001
2.538875e+003,4.059732e+001
2.539839e+003,4.124968e+001
2.540803e+003,4.227997e+001
2.541768e+003,4.365018e+001
2.542732e+003,4.584771e+001
2.543696e+003,4.696994e+001
2.544660e+003,4.622809e+001
2.545625e+003,4.605617e+001
2.546589e+003,4.772474e+001
2.547553e+003,4.859444e+001
2.548517e+003,4.652955e+001
2.549482e+003,4.442145e+001
2.550446e+003,4.584040e+001
2.551410e+003,4.850562e+001
2.552374e+003,4.903382e+001
2.553339e+003,4.832176e+001
2.554303e+003,4.718494e+001
2.555267e+003,4.616906e+001
2.556231e+003,4.664245e+001
2.557196e+003,4.706225e+001
2.558160e+003,4.461985e+001
2.559124e+003,4.105259e+001
2.560088e+003,3.977020e+001
2.561052e+003,4.033022e+001
2.562017e+003,3.999882e+001
2.562981e+003,3.863366e+001
2.563945e+003,3.784697e+001
2.564909e+003,3.779251e+001
2.565874e+003,3.747258e+001
2.566838e+003,3.694429e+001
2.567802e+003,3.573004e+001
2.568766e+003,3.380350e+001
2.569730e+003,3.276844e+001
2.570695e+003,3.275712e+001
2.571659e+003,3.138040e+001
2.572623e+003,2.810842e+001
2.573587e+003,2.570476e+001
2.574552e+003,2.558853e+001
2.575516e+003,2.547477e+001
2.576480e+003,2.373528e+001
2.577444e+003,2.182082e+001
2.578409e+003,2.016429e+001
2.579373e+003,1.923286e+001
2.580337e+003,2.034695e+001
2.581301e+003,2.098619e+001
2.582266e+003,1.912466e+001
2.583230e+003,1.703621e+001
2.584194e+003,1.633282e+001
2.585158e+003,1.593621e+001
2.586123e+003,1.471447e+001
2.587087e+003,1.343642e+001
2.588051e+003,1.348243e+001
2.589015e+003,1.425846e+001
2.589979e+003,1.375388e+001
2.590944e+003,1.242239e+001
2.591908e+003,1.224304e+001
2.592872e+003,1.264717e+001
2.593836e+003,1.212739e+001
2.594801e+003,1.104724e+001
2.595765e+003,1.039176e+001
2.596729e+003,1.007505e+001
2.597693e+003,9.553645e+000
2.598657e+003,8.805285e+000
2.599622e+003,8.173277e+000
2.600586e+003,7.712175e+000
2.601550e+003,6.959161e+000
2.602514e+003,5.470813e+000
2.603479e+003,4.860065e+000
2.604443e+003,5.449086e+000
2.605407e+003,6.017317e+000
2.606371e+003,6.596367e+000
2.607336e+003,6.340457e+000
2.608300e+003,5.043931e+000
2.609264e+003,3.836427e+000
2.610228e+003,3.148978e+000
2.611193e+003,2.729628e+000
2.612157e+003,2.453825e+000
2.613121e+003,2.815271e+000
2.614085e+003,4.499300e+000
2.615050e+003,5.619700e+000
2.616014e+003,3.473651e+000
2.616978e+003,1.762256e+000
2.617942e+003,3.825675e+000
2.618906e+003,5.884089e+000
2.619871e+003,5.531572e+000
2.620835e+003,4.330484e+000
2.621799e+003,2.863983e+000
2.622763e+003,1.994138e+000
2.623728e+003,2.774678e+000
2.624692e+003,4.103583e+000
2.625656e+003,4.239881e+000
2.626620e+003,3.529292e+000
2.627584e+003,2.777061e+000
2.628549e+003,2.039484e+000
2.629513e+003,1.575902e+000
2.630477e+003,1.250854e+000
2.631441e+003,4.378921e-001
2.632406e+003,-2.694626e-001
2.633370e+003,7.201111e-001
2.634334e+003,2.514413e+000
2.635298e+003,2.980010e+000
2.636263e+003,2.347801e+000
2.637227e+003,2.344551e+000
2.638191e+003,3.141585e+000
2.639155e+003,3.511705e+000
2.640120e+003,3.420074e+000
2.641084e+003,2.724269e+000
2.642048e+003,1.038438e+000
2.643012e+003,1.424702e+000
2.643977e+003,4.079360e+000
2.644941e+003,5.260379e+000
2.645905e+003,4.496692e+000
2.646869e+003,3.352313e+000
2.647833e+003,2.423581e+000
2.648798e+003,2.124022e+000
2.649762e+003,2.547473e+000
2.650726e+003,2.956122e+000
2.651690e+003,3.099388e+000
2.652655e+003,2.440238e+000
2.653619e+003,-7.982880e-001
2.654583e+003,-2.366332e+000
2.655547e+003,5.681458e-001
2.656511e+003,2.761871e+000
2.657476e+003,2.719270e+000
2.658440e+003,2.062587e+000
2.659404e+003,1.393497e+000
2.660368e+003,5.402771e-001
2.661333e+003,-6.374496e-001
2.662297e+003,-1.448793e+000
2.663261e+003,-1.224295e+000
2.664225e+003,-3.816391e-001
2.665190e+003,1.018256e+000
2.666154e+003,2.075513e+000
2.667118e+003,1.161612e+000
2.668082e+003,1.292282e-001
2.669047e+003,1.188756e+000
2.670011e+003,2.312764e+000
2.670975e+003,1.086639e+000
2.671939e+003,-5.954331e-001
2.672904e+003,-5.411530e-001
2.673868e+003,4.484054e-001
2.674832e+003,1.408969e+000
2.675796e+003,2.110446e+000
2.676760e+003,1.899876e+000
2.677725e+003,9.932297e-001
2.678689e+003,1.569565e-001
2.679653e+003,-5.445831e-001
2.680617e+003,-1.066992e+000
2.681582e+003,-1.258499e+000
2.682546e+003,-5.080749e-001
2.683510e+003,6.435486e-001
2.684474e+003,1.282474e+000
2.685438e+003,1.291547e+000
2.686403e+003,5.159119e-001
2.687367e+003,-7.889892e-001
2.688331e+003,-1.121559e+000
2.689295e+003,-4.106750e-001
2.690260e+003,3.102341e-001
2.691224e+003,1.100902e+000
2.692188e+003,1.166042e+000
2.693152e+003,5.407257e-001
2.694117e+003,7.307693e-001
2.695081e+003,1.560147e+000
2.696045e+003,9.589844e-001
2.697009e+003,-9.481125e-001
2.697974e+003,-2.154051e+000
2.698938e+003,-2.088295e+000
2.699902e+003,-1.076285e+000
2.700866e+003,8.563507e-001
2.701831e+003,2.172627e+000
2.702795e+003,2.505667e+000
2.703759e+003,1.957979e+000
2.704723e+003,-6.281586e-002
2.705688e+003,-1.054392e+000
2.706652e+003,-5.723816e-001
2.707616e+003,-9.549866e-002
2.708580e+003,-1.757812e-003
2.709544e+003,-3.881256e-001
2.710509e+003,-1.187332e+000
2.711473e+003,-1.316383e+000
2.712437e+003,-1.938858e-001
2.713401e+003,7.549850e-001
2.714365e+003,5.380279e-001
2.715330e+003,1.038635e-001
2.716294e+003,-3.420059e-001
2.717258e+003,-4.686890e-001
2.718222e+003,5.447601e-001
2.719187e+003,6.947525e-001
2.720151e+003,-1.079253e+000
2.721115e+003,-2.513234e+000
2.722079e+003,-2.511323e+000
2.723044e+003,-1.677458e+000
2.724008e+003,-4.333344e-001
2.724972e+003,7.365677e-001
2.725936e+003,1.357651e+000
2.726901e+003,1.619661e+000
2.727865e+003,1.781448e+000
2.728829e+003,1.629456e+000
2.729793e+003,7.706757e-001
2.730758e+003,-1.978882e-001
2.731722e+003,-1.066678e+000
2.732686e+003,-1.647412e+000
2.733650e+003,-1.896184e+000
2.734615e+003,-1.631659e+000
2.735579e+003,-4.910965e-001
2.736543e+003,4.074722e-001
2.737507e+003,-5.847763e-001
2.738471e+003,-2.129411e+000
2.739436e+003,-1.422711e+000
2.740400e+003,1.021835e-001
2.741364e+003,1.776352e-001
2.742328e+003,-4.986099e-001
2.743292e+003,-1.643337e+000
2.744257e+003,-2.539015e+000
2.745221e+003,-2.225444e+000
2.746185e+003,-1.470639e+000
2.747149e+003,-1.501440e+000
2.748114e+003,-1.515422e+000
2.749078e+003,-1.060059e-001
2.750042e+003,1.913229e+000
2.751006e+003,2.328502e+000
2.751971e+003,1.550536e+000
2.752935e+003,7.015396e-001
2.753899e+003,-1.387939e-002
2.754863e+003,3.382874e-002
2.755828e+003,4.322769e-001
2.756792e+003,5.364898e-001
2.757756e+003,4.630035e-001
2.758720e+003,5.131058e-001
2.759685e+003,6.150864e-001
2.760649e+003,7.400085e-001
2.761613e+003,6.220093e-001
2.762577e+003,-8.821991e-001
2.763542e+003,-3.301805e+000
2.764506e+003,-2.298576e+000
2.765470e+003,1.121324e+000
2.766434e+003,1.281789e+000
2.767398e+003,-6.170700e-001
2.768363e+003,-1.376816e+000
2.769327e+003,-1.167130e+000
2.770291e+003,-7.238892e-001
2.771255e+003,-4.199768e-001
2.772219e+003,-9.865936e-001
2.773184e+003,-2.169437e+000
2.774148e+003,-2.422588e+000
2.775112e+003,-1.789316e+000
2.776076e+003,-1.180173e+000
2.777041e+003,-5.885849e-001
2.778005e+003,-4.117661e-001
2.778969e+003,-5.847321e-001
2.779933e+003,-6.517731e-001
2.780898e+003,-7.688492e-001
2.781862e+003,-1.944164e+000
2.782826e+003,-3.502400e+000
2.783790e+003,-3.285808e+000
2.784755e+003,-1.463733e+000
2.785719e+003,-2.267761e-002
2.786683e+003,7.124252e-001
2.787647e+003,5.480347e-001
2.788612e+003,-6.938797e-001
2.789576e+003,-1.390207e+000
2.790540e+003,-1.522496e+000
2.791504e+003,-3.429184e-001
2.792469e+003,1.646783e+000
2.793433e+003,1.859242e+000
2.794397e+003,5.472168e-001
2.795361e+003,-4.509094e-001
2.796325e+003,-7.559860e-001
2.797290e+003,-3.579834e-001
2.798254e+003,5.909378e-001
2.799218e+003,-3.787781e-001
2.800182e+003,-4.139609e+000
2.801146e+003,-4.465759e+000
2.802111e+003,-8.572006e-001
2.803075e+003,5.705902e-001
2.804039e+003,-2.426819e-001
2.805003e+003,-7.598130e-001
2.805968e+003,-7.185867e-001
2.806932e+003,-4.619568e-001
2.807896e+003,-2.133392e-001
2.808860e+003,-5.466034e-001
2.809825e+003,-1.478528e+000
2.810789e+003,-2.165805e+000
2.811753e+003,-2.506191e+000
2.812717e+003,-1.928087e+000
2.813682e+003,-2.865448e-002
2.814646e+003,4.691544e-001
2.815610e+003,-4.248962e-001
2.816574e+003,-6.356552e-001
2.817539e+003,-1.786346e-001
2.818503e+003,-5.161117e-001
2.819467e+003,-1.606825e+000
2.820431e+003,-2.202513e+000
2.821396e+003,-2.071486e+000
2.822360e+003,-2.057491e+000
2.823324e+003,-2.441167e+000
2.824288e+003,-1.307129e+000
2.825252e+003,2.574550e+000
2.826217e+003,2.595633e+000
2.827181e+003,-1.402599e+000
2.828145e+003,-1.716310e+000
2.829109e+003,1.377293e+000
2.830073e+003,1.715744e+000
2.831038e+003,-7.370529e-001
2.832002e+003,-1.813390e+000
2.832966e+003,-9.325363e-001
2.833930e+003,-3.720093e-001
2.834895e+003,-6.669235e-001
2.835859e+003,-8.697937e-001
2.836823e+003,-1.035057e+000
2.837787e+003,-1.397980e-001
2.838752e+003,1.951306e+000
2.839716e+003,2.469936e+000
2.840680e+003,1.506226e+000
2.841644e+003,9.214661e-001
2.842609e+003,7.567002e-001
2.843573e+003,-1.399322e-001
2.844537e+003,-1.596358e+000
2.845501e+003,-2.182873e+000
2.846466e+003,-1.666341e+000
2.847430e+003,-9.944199e-001
2.848394e+003,-1.870163e-001
2.849358e+003,-1.671127e-001
2.850323e+003,-1.006613e+000
2.851287e+003,-8.056747e-001
2.852251e+003,2.063248e-001
2.853215e+003,-1.144257e-001
2.854179e+003,-1.346901e+000
2.855144e+003,-1.021239e+000
2.856108e+003,3.786286e-001
2.857072e+003,-4.933899e-001
2.858036e+003,-3.500714e+000
2.859000e+003,-3.314342e+000
2.859965e+003,3.855087e-001
2.860929e+003,2.735509e+000
2.861893e+003,3.696527e+000
2.862857e+003,3.785165e+000
2.863822e+003,3.146693e+000
2.864786e+003,1.965137e+000
2.865750e+003,6.657501e-001
2.866714e+003,2.774963e-001
2.867679e+003,6.102936e-001
2.868643e+003,1.079176e+000
2.869607e+003,1.453047e+000
2.870571e+003,9.819351e-001
2.871536e+003,-1.073608e-001
2.872500e+003,5.801468e-001
2.873464e+003,2.853436e+000
2.874428e+003,1.699330e+000
2.875393e+003,-1.581912e+000
2.876357e+003,-2.701047e+000
2.877321e+003,-2.061388e+000
2.878285e+003,-6.828858e-001
2.879250e+003,7.806015e-001
2.880214e+003,1.483534e+000
2.881178e+003,1.566623e+000
2.882142e+003,1.742790e+000
2.883106e+003,1.919508e+000
2.884071e+003,1.502965e+000
2.885035e+003,7.725922e-001
2.885999e+003,1.615562e+000
2.886963e+003,3.125975e+000
2.887927e+003,3.188983e+000
2.888892e+003,2.292603e+000
2.889856e+003,7.036468e-001
2.890820e+003,-6.730789e-001
2.891784e+003,-3.076782e-001
2.892749e+003,8.930191e-001
2.893713e+003,1.480020e+000
2.894677e+003,1.441273e+000
2.895641e+003,5.716614e-001
2.896606e+003,-6.732467e-001
2.897570e+003,-1.234230e+000
2.898534e+003,-1.076704e+000
2.899498e+003,6.355392e-001
2.900463e+003,2.269952e+000
2.901427e+003,1.551941e+000
2.902391e+003,1.865570e-001
2.903355e+003,8.966522e-002
2.904320e+003,3.553085e-001
2.905284e+003,3.479004e-003
2.906248e+003,-3.928024e-001
2.907212e+003,1.190491e-001
2.908177e+003,8.668060e-001
2.909141e+003,7.239288e-001
2.910105e+003,1.975342e-001
2.911069e+003,-4.537750e-001
2.912033e+003,-8.969315e-001
2.912998e+003,-6.697845e-001
2.913962e+003,-4.346924e-001
2.914926e+003,-6.985901e-001
2.915890e+003,-7.556488e-001
2.916854e+003,-6.003723e-002
2.917819e+003,7.875961e-001
2.918783e+003,1.220355e+000
2.919747e+003,1.295137e+000
2.920711e+003,1.027158e+000
2.921676e+003,5.079681e-001
2.922640e+003,-9.035858e-001
2.923604e+003,-1.400763e+000
2.924568e+003,2.935684e-001
2.925533e+003,1.594807e+000
2.926497e+003,1.583623e+000
2.927461e+003,9.448181e-001
2.928425e+003,1.572189e-001
2.929390e+003,-1.318613e+000
2.930354e+003,-4.274623e+000
2.931318e+003,-5.920999e+000
2.932282e+003,-3.316983e+000
2.933247e+003,-1.157570e+000
2.934211e+003,-4.216126e-001
2.935175e+003,-1.777832e-001
2.936139e+003,-6.653320e-001
2.937104e+003,-8.753875e-001
2.938068e+003,-5.411972e-001
2.939032e+003,2.194977e-001
2.939996e+003,1.264902e+000
2.940960e+003,2.243947e+000
2.941925e+003,2.992516e+000
2.942889e+003,3.008823e+000
2.943853e+003,2.055804e+000
2.944817e+003,3.471436e-001
2.945781e+003,-2.628684e+000
2.946746e+003,-2.867702e+000
2.947710e+003,-4.265610e-001
2.948674e+003,1.234094e+000
2.949638e+003,1.743890e+000
2.950603e+003,2.038121e+000
2.951567e+003,2.206712e+000
2.952531e+003,1.434525e+000
2.953495e+003,-1.841507e-001
2.954460e+003,-1.420822e-001
2.955424e+003,1.618156e+000
2.956388e+003,1.258585e+000
2.957352e+003,-8.720581e-001
2.958317e+003,-1.122237e+000
2.959281e+003,-1.648880e-001
2.960245e+003,-2.564285e-001
2.961209e+003,-8.267807e-001
2.962174e+003,-2.245941e-001
2.963138e+003,1.031885e+000
2.964102e+003,1.451225e+000
2.965066e+003,1.333003e+000
2.966031e+003,1.375972e+000
2.966995e+003,1.570514e+000
2.967959e+003,2.174324e+000
2.968923e+003,2.652121e+000
2.969887e+003,1.385634e+000
2.970852e+003,-1.545883e-001
2.971816e+003,-1.480148e-001
2.972780e+003,5.387756e-001
2.973744e+003,1.099382e+000
2.974708e+003,1.661140e+000
2.975673e+003,2.482108e+000
2.976637e+003,2.693324e+000
2.977601e+003,1.040250e+000
2.978565e+003,-6.278992e-001
2.979530e+003,7.041305e-001
2.980494e+003,2.410182e+000
2.981458e+003,2.495424e+000
2.982422e+003,2.089291e+000
2.983387e+003,1.473059e+000
2.984351e+003,1.025906e+000
2.985315e+003,8.900894e-001
2.986279e+003,1.005586e+000
2.987244e+003,1.312170e+000
2.988208e+003,1.271017e+000
2.989172e+003,5.246857e-001
2.990136e+003,-4.507980e-001
2.991101e+003,-1.750522e+000
2.992065e+003,-2.370857e+000
2.993029e+003,-1.982887e+000
2.993993e+003,-1.206545e+000
2.994958e+003,-7.124176e-002
2.995922e+003,3.958420e-001
2.996886e+003,1.157333e-001
2.997850e+003,-1.609100e-001
2.998814e+003,-1.870956e-001
2.999779e+003,6.599884e-002
3.000743e+003,5.916916e-001
3.001707e+003,1.064090e+000
3.002671e+003,1.591875e+000
3.003635e+003,7.574081e-001
3.004600e+003,-1.297067e+000
3.005564e+003,-2.103705e+000
3.006528e+003,-1.759647e+000
3.007492e+003,-6.148987e-001
3.008457e+003,7.603332e-001
3.009421e+003,1.416103e+000
3.010385e+003,1.464809e+000
3.011349e+003,1.690071e+000
3.012314e+003,1.706685e+000
3.013278e+003,1.104309e-001
3.014242e+003,-2.238808e+000
3.015206e+003,-2.361682e+000
3.016171e+003,-1.362007e+000
3.017135e+003,-8.077087e-001
3.018099e+003,-5.402679e-001
3.019063e+003,-5.094223e-001
3.020028e+003,-3.867569e-001
3.020992e+003,1.536102e-001
3.021956e+003,6.475143e-001
3.022920e+003,6.792603e-001
3.023885e+003,5.665222e-001
3.024849e+003,7.259949e-001
3.025813e+003,6.895218e-001
3.026777e+003,-3.562393e-001
3.027741e+003,-1.180583e+000
3.028706e+003,-1.040083e+000
3.029670e+003,-7.233688e-001
3.030634e+003,-3.663116e-001
3.031598e+003,-1.483231e-001
3.032563e+003,-1.143692e-001
3.033527e+003,1.849792e-001
3.034491e+003,9.179672e-001
3.035455e+003,1.644676e+000
3.036420e+003,2.233070e+000
3.037384e+003,2.380894e+000
3.038348e+003,1.998006e+000
3.039312e+003,1.203508e+000
3.040277e+003,1.076965e-002
3.041241e+003,-1.354201e+000
3.042205e+003,-2.557036e+000
3.043169e+003,-2.094444e+000
3.044134e+003,-5.244492e-001
3.045098e+003,1.355896e-002
3.046062e+003,-5.386078e-001
3.047026e+003,-7.556686e-001
3.047990e+003,-6.763901e-001
3.048955e+003,-9.053833e-001
3.049919e+003,-1.267432e+000
3.050883e+003,-9.056946e-001
3.051847e+003,-1.941788e-001
3.052812e+003,5.312683e-001
3.053776e+003,9.289078e-001
3.054740e+003,3.446960e-002
3.055704e+003,-6.229569e-001
3.056668e+003,5.336441e-001
3.057633e+003,1.948259e+000
3.058597e+003,1.871852e+000
3.059561e+003,1.396202e+000
3.060525e+003,2.231508e+000
3.061490e+003,2.673398e+000
3.062454e+003,4.895554e-001
3.063418e+003,-9.088638e-001
3.064382e+003,1.201263e-001
3.065347e+003,1.019560e+000
3.066311e+003,1.104851e+000
3.067275e+003,9.732285e-001
3.068239e+003,9.235687e-001
3.069204e+003,1.360193e+000
3.070168e+003,2.447693e+000
3.071132e+003,2.777477e+000
3.072096e+003,1.339767e+000
3.073061e+003,9.440933e-001
3.074025e+003,1.766119e+000
3.074989e+003,1.806505e+000
3.075953e+003,1.111008e+000
3.076917e+003,6.993027e-001
3.077882e+003,4.292053e-001
3.078846e+003,-8.162689e-001
3.079810e+003,-2.463909e+000
3.080774e+003,-2.434383e+000
3.081739e+003,-1.106644e+000
3.082703e+003,5.597671e-001
3.083667e+003,2.097003e+000
3.084631e+003,1.327905e+000
3.085595e+003,-1.906281e-002
3.086560e+003,1.379823e+000
3.087524e+003,3.075528e+000
3.088488e+003,2.407941e+000
3.089452e+003,9.682846e-001
3.090417e+003,-2.950439e-001
3.091381e+003,-1.137205e+000
3.092345e+003,-1.367802e+000
3.093309e+003,-1.119592e+000
3.094274e+003,-3.587555e-001
3.095238e+003,2.703919e-001
3.096202e+003,1.405746e-001
3.097166e+003,2.862839e-001
3.098131e+003,1.055119e+000
3.099095e+003,1.309828e+000
3.100059e+003,8.838074e-001
3.101023e+003,3.607498e-001
3.101988e+003,1.826019e-002
3.102952e+003,4.851944e-001
3.103916e+003,1.717793e+000
3.104880e+003,1.759187e+000
3.105844e+003,3.774597e-001
3.106809e+003,-5.631302e-001
3.107773e+003,-1.121342e+000
3.108737e+003,-2.256280e+000
3.109701e+003,-3.432500e+000
3.110666e+003,-3.121197e+000
3.111630e+003,-2.018080e+000
3.112594e+003,-1.147885e+000
3.113558e+003,-5.846313e-001
3.114522e+003,-2.587158e-001
3.115487e+003,-1.623718e-001
3.116451e+003,-3.282715e-001
3.117415e+003,-4.804626e-001
3.118379e+003,-1.966095e-002
3.119344e+003,3.450516e-001
3.120308e+003,-1.261551e-001
3.121272e+003,-5.953140e-001
3.122236e+003,-7.849625e-001
3.123201e+003,-8.358582e-001
3.124165e+003,-7.821426e-001
3.125129e+003,8.033142e-002
3.126093e+003,1.820880e+000
3.127058e+003,2.202747e+000
3.128022e+003,2.254334e-002
3.128986e+003,-9.201355e-001
3.129950e+003,4.745850e-001
3.130915e+003,4.461655e-001
3.131879e+003,-8.381637e-001
3.132843e+003,-1.717870e+000
3.133807e+003,-1.989051e+000
3.134771e+003,-1.216142e+000
3.135736e+003,-2.713013e-003
3.136700e+003,4.243836e-001
3.137664e+003,1.673737e-001
3.138628e+003,-5.569717e-001
3.139593e+003,-1.285344e+000
3.140557e+003,-8.275772e-001
3.141521e+003,1.629166e-001
3.142485e+003,1.091460e+000
3.143449e+003,1.571555e+000
3.144414e+003,1.274411e+000
3.145378e+003,2.492996e-001
3.146342e+003,-1.756458e+000
3.147306e+003,-2.553395e+000
3.148271e+003,-1.177855e+000
3.149235e+003,3.248642e-001
3.150199e+003,8.304657e-001
3.151163e+003,7.653259e-001
3.152128e+003,8.712158e-002
3.153092e+003,-6.005905e-001
3.154056e+003,-1.312811e+000
3.155020e+003,-1.704042e+000
3.155985e+003,-1.755865e+000
3.156949e+003,-1.260077e+000
3.157913e+003,-5.466889e-001
3.158877e+003,-5.831787e-001
3.159842e+003,-1.110237e+000
3.160806e+003,-1.066220e+000
3.161770e+003,-5.688782e-001
3.162734e+003,2.063766e-001
3.163698e+003,8.951691e-001
3.164663e+003,5.556152e-001
3.165627e+003,-1.533066e-001
3.166591e+003,-8.328918e-001
3.167555e+003,-1.138715e+000
3.168520e+003,-7.630127e-001
3.169484e+003,-6.842636e-001
3.170448e+003,-1.358360e+000
3.171412e+003,-1.633086e+000
3.172376e+003,-8.371735e-001
3.173341e+003,2.170792e-001
3.174305e+003,1.521420e+000
3.175269e+003,1.578082e+000
3.176233e+003,6.744385e-003
3.177198e+003,-7.532166e-001
3.178162e+003,-7.337281e-001
3.179126e+003,-1.148911e+000
3.180090e+003,-1.885328e+000
3.181055e+003,-2.272625e+000
3.182019e+003,-2.246754e+000
3.182983e+003,-1.866200e+000
3.183947e+003,-1.393082e+000
3.184912e+003,-1.611631e+000
3.185876e+003,-1.730558e+000
3.186840e+003,9.106201e-001
3.187804e+003,3.517480e+000
3.188769e+003,2.945065e+000
3.189733e+003,1.343446e+000
3.190697e+003,-4.990677e-001
3.191661e+003,-1.373707e+000
3.192625e+003,-7.903351e-001
3.193590e+003,-3.037872e-001
3.194554e+003,-7.171402e-001
3.195518e+003,-1.342633e+000
3.196482e+003,-2.172989e+000
3.197447e+003,-1.475320e+000
3.198411e+003,1.293155e+000
3.199375e+003,1.568147e+000
3.200339e+003,-9.851227e-002
3.201303e+003,5.968949e-001
3.202268e+003,2.612885e+000
3.203232e+003,2.499721e+000
3.204196e+003,8.449646e-001
3.205160e+003,-3.645431e-001
3.206125e+003,-9.119293e-001
3.207089e+003,-2.386749e-001
3.208053e+003,5.514160e-001
3.209017e+003,-1.068347e+000
3.209982e+003,-2.631702e+000
3.210946e+003,-1.778188e+000
3.211910e+003,-6.635971e-001
3.212874e+003,-3.483887e-002
3.213839e+003,4.901184e-001
3.214803e+003,9.713241e-001
3.215767e+003,2.581146e-001
3.216731e+003,-1.861314e+000
3.217696e+003,-2.517580e+000
3.218660e+003,-4.332474e-001
3.219624e+003,9.158554e-001
3.220588e+003,1.482159e+000
3.221552e+003,9.794067e-001
3.222517e+003,-2.826386e-002
3.223481e+003,1.836227e-001
3.224445e+003,9.646072e-001
3.225409e+003,1.180850e+000
3.226374e+003,9.506882e-001
3.227338e+003,4.074371e-001
3.228302e+003,1.529373e-001
3.229266e+003,1.079918e+000
3.230230e+003,1.957371e+000
3.231195e+003,1.186818e+000
3.232159e+003,3.778732e-001
3.233123e+003,2.050339e-001
3.234087e+003,1.667374e-001
3.235052e+003,1.917465e-001
3.236016e+003,6.933075e-001
3.236980e+003,1.573093e+000
3.237944e+003,1.955164e+000
3.238909e+003,1.649324e+000
3.239873e+003,9.457504e-001
3.240837e+003,-1.139221e-002
3.241801e+003,-7.163879e-001
3.242766e+003,-1.014946e+000
3.243730e+003,4.099747e-001
3.244694e+003,1.929167e+000
3.245658e+003,7.781280e-001
3.246623e+003,-9.742905e-001
3.247587e+003,-1.566075e+000
3.248551e+003,-1.728267e+000
3.249515e+003,-1.934444e+000
3.250479e+003,-1.763798e+000
3.251444e+003,-8.292999e-001
3.252408e+003,-2.454376e-002
3.253372e+003,4.331680e-001
3.254336e+003,-2.032516e-001
3.255301e+003,-2.117207e+000
3.256265e+003,-1.929333e+000
3.257229e+003,-7.375641e-002
3.258193e+003,3.218384e-001
3.259157e+003,-5.445282e-001
3.260122e+003,-9.667465e-001
3.261086e+003,-8.201309e-001
3.262050e+003,-1.678711e-001
3.263014e+003,3.244659e-001
3.263979e+003,-1.434562e+000
3.264943e+003,-3.475424e+000
3.265907e+003,-3.580459e+000
3.266871e+003,-2.664221e+000
3.267836e+003,-6.625412e-001
3.268800e+003,5.363296e-001
3.269764e+003,4.125061e-001
3.270728e+003,-4.810333e-001
3.271693e+003,-1.745540e+000
3.272657e+003,-2.193743e+000
3.273621e+003,-1.369225e+000
3.274585e+003,-3.894348e-001
3.275550e+003,7.089447e-001
3.276514e+003,5.847977e-001
3.277478e+003,-1.916489e-001
3.278442e+003,3.632416e-001
3.279406e+003,1.047635e+000
3.280371e+003,-7.438599e-001
3.281335e+003,-2.483606e+000
3.282299e+003,-1.879957e+000
3.283263e+003,-5.807190e-001
3.284228e+003,-8.295593e-002
3.285192e+003,2.277054e-001
3.286156e+003,7.401916e-001
3.287120e+003,1.486769e+000
3.288084e+003,2.533431e+000
3.289049e+003,3.795154e+000
3.290013e+003,5.042833e+000
3.290977e+003,3.872949e+000
3.291941e+003,1.016226e+000
3.292906e+003,-2.946716e-001
3.293870e+003,5.952911e-002
3.294834e+003,4.765289e-001
3.295798e+003,7.426361e-001
3.296763e+003,2.064148e-001
3.297727e+003,-6.254074e-001
3.298691e+003,-1.143983e+000
3.299655e+003,-1.193381e+000
3.300620e+003,-2.931763e-001
3.301584e+003,4.859573e-001
3.302548e+003,8.517669e-001
3.303512e+003,9.075302e-001
3.304477e+003,7.408158e-001
3.305441e+003,6.294495e-001
3.306405e+003,6.632843e-001
3.307369e+003,1.301773e-001
3.308333e+003,-1.064473e+000
3.309298e+003,1.144104e-002
3.310262e+003,2.454027e+000
3.311226e+003,4.031914e+000
3.312190e+003,4.554864e+000
3.313155e+003,3.226414e+000
3.314119e+003,1.744663e+000
3.315083e+003,1.351720e+000
3.316047e+003,1.821489e+000
3.317011e+003,3.053287e+000
3.317976e+003,3.911368e+000
3.318940e+003,3.362202e+000
3.319904e+003,2.650720e+000
3.320868e+003,2.043895e+000
3.321833e+003,7.927445e-001
3.322797e+003,-6.885513e-001
3.323761e+003,9.319397e-001
3.324725e+003,4.324831e+000
3.325690e+003,5.071790e+000
3.326654e+003,3.816432e+000
3.327618e+003,3.077632e+000
3.328582e+003,2.857005e+000
3.329547e+003,3.603119e+000
3.330511e+003,4.084104e+000
3.331475e+003,2.090359e+000
3.332439e+003,6.674134e-001
3.333404e+003,1.209114e+000
3.334368e+003,1.966280e+000
3.335332e+003,2.517972e+000
3.336296e+003,2.725819e+000
3.337260e+003,2.461929e+000
3.338225e+003,1.105762e+000
3.339189e+003,-1.209529e+000
3.340153e+003,-1.824712e+000
3.341117e+003,-1.156769e+000
3.342082e+003,-1.877206e+000
3.343046e+003,-2.623866e+000
3.344010e+003,-9.625244e-003
3.344974e+003,1.816605e+000
3.345938e+003,-1.083937e+000
3.346903e+003,-3.077126e+000
3.347867e+003,-1.522139e+000
3.348831e+003,3.719284e-001
3.349795e+003,8.515762e-001
3.350760e+003,7.343811e-001
3.351724e+003,4.968262e-003
3.352688e+003,-1.471451e-001
3.353652e+003,2.688049e-001
3.354617e+003,1.495509e+000
3.355581e+003,2.746063e+000
3.356545e+003,1.915537e+000
3.357509e+003,5.843018e-001
3.358474e+003,1.199342e+000
3.359438e+003,1.576343e+000
3.360402e+003,-5.325378e-001
3.361366e+003,-2.015923e+000
3.362331e+003,1.231448e+000
3.363295e+003,2.960071e+000
3.364259e+003,-3.342468e-001
3.365223e+003,-1.332332e+000
3.366188e+003,1.883820e-001
3.367152e+003,5.807526e-001
3.368116e+003,-2.610825e-001
3.369080e+003,-1.060989e+000
3.370044e+003,-1.559120e+000
3.371009e+003,-1.753381e+000
3.371973e+003,-1.791318e+000
3.372937e+003,-2.128371e+000
3.373901e+003,-2.167488e+000
3.374865e+003,-5.205200e-001
3.375830e+003,4.956070e-001
3.376794e+003,-2.156738e-001
3.377758e+003,-8.364884e-001
3.378722e+003,-1.029887e+000
3.379687e+003,-1.481331e+000
3.380651e+003,-2.225070e+000
3.381615e+003,-2.644756e+000
3.382579e+003,-2.515462e+000
3.383544e+003,-1.181578e+000
3.384508e+003,8.042633e-001
3.385472e+003,1.741220e+000
3.386436e+003,1.778175e+000
3.387401e+003,3.695785e-001
3.388365e+003,-8.071030e-001
3.389329e+003,-9.896134e-001
3.390293e+003,-5.270416e-001
3.391258e+003,3.640030e-001
3.392222e+003,1.000374e+000
3.393186e+003,1.113304e+000
3.394150e+003,1.405534e+000
3.395115e+003,1.958098e+000
3.396079e+003,1.891415e+000
3.397043e+003,1.559584e+000
3.398007e+003,1.957230e+000
3.398971e+003,2.998888e+000
3.399936e+003,5.233903e+000
3.400900e+003,6.743619e+000
3.401864e+003,6.331268e+000
3.402828e+003,5.603358e+000
3.403792e+003,5.666213e+000
3.404757e+003,5.663320e+000
3.405721e+003,4.911006e+000
3.406685e+003,4.693634e+000
3.407649e+003,5.043045e+000
3.408614e+003,6.571045e+000
3.409578e+003,8.739560e+000
3.410542e+003,1.037971e+001
3.411506e+003,1.131075e+001
3.412471e+003,1.128170e+001
3.413435e+003,1.129259e+001
3.414399e+003,1.231557e+001
3.415363e+003,1.370504e+001
3.416328e+003,1.521100e+001
3.417292e+003,1.583455e+001
3.418256e+003,1.479543e+001
3.419220e+003,1.474552e+001
3.420185e+003,1.565313e+001
3.421149e+003,1.539853e+001
3.422113e+003,1.445070e+001
3.423077e+003,1.482350e+001
3.424042e+003,1.616743e+001
3.425006e+003,1.770253e+001
3.425970e+003,1.834480e+001
3.426934e+003,1.557470e+001
