7.140112e+001,2.405421e+002
7.236536e+001,2.333175e+002
7.332959e+001,2.307690e+002
7.429382e+001,2.354991e+002
7.525806e+001,2.487553e+002
7.622229e+001,2.549954e+002
7.718652e+001,2.434989e+002
7.815076e+001,2.047273e+002
7.911499e+001,1.776994e+002
8.007922e+001,1.586084e+002
8.104346e+001,1.490723e+002
8.200769e+001,1.513836e+002
8.297192e+001,1.727297e+002
8.393616e+001,1.986477e+002
8.490039e+001,2.347973e+002
8.586462e+001,2.722664e+002
8.682886e+001,2.964869e+002
8.779310e+001,2.780465e+002
8.875733e+001,2.446172e+002
8.972157e+001,2.087201e+002
9.068580e+001,1.761068e+002
9.165003e+001,1.485470e+002
9.261427e+001,1.398968e+002
9.357850e+001,1.440201e+002
9.454273e+001,1.508362e+002
9.550697e+001,1.536059e+002
9.647120e+001,1.513593e+002
9.743543e+001,1.485213e+002
9.839967e+001,1.457863e+002
9.936390e+001,1.421223e+002
1.003281e+002,1.359384e+002
1.012924e+002,1.224843e+002
1.022566e+002,1.126581e+002
1.032208e+002,1.088772e+002
1.041851e+002,1.100699e+002
1.051493e+002,1.133089e+002
1.061135e+002,1.201704e+002
1.070778e+002,1.250199e+002
1.080420e+002,1.241773e+002
1.090062e+002,1.170745e+002
1.099705e+002,1.066431e+002
1.109347e+002,9.894353e+001
1.118989e+002,9.356458e+001
1.128632e+002,9.190300e+001
1.138274e+002,9.503343e+001
1.147916e+002,1.040350e+002
1.157559e+002,1.094695e+002
1.167201e+002,1.108895e+002
1.176843e+002,1.104434e+002
1.186486e+002,1.106178e+002
1.196128e+002,1.112412e+002
1.205770e+002,1.128407e+002
1.215413e+002,1.187566e+002
1.225055e+002,1.257958e+002
1.234697e+002,1.271412e+002
1.244340e+002,1.100967e+002
1.253982e+002,9.243844e+001
1.263624e+002,7.735748e+001
1.273267e+002,6.695506e+001
1.282909e+002,6.292787e+001
1.292551e+002,7.692575e+001
1.302194e+002,9.656163e+001
1.311836e+002,1.108916e+002
1.321478e+002,1.129628e+002
1.331121e+002,1.025958e+002
1.340763e+002,9.355048e+001
1.350405e+002,8.527133e+001
1.360048e+002,7.929424e+001
1.369690e+002,7.750015e+001
1.379332e+002,8.328431e+001
1.388975e+002,8.861610e+001
1.398617e+002,9.437287e+001
1.408259e+002,9.926473e+001
1.417902e+002,1.013544e+002
1.427544e+002,9.871815e+001
1.437186e+002,9.391559e+001
1.446829e+002,8.566190e+001
1.456471e+002,7.533228e+001
1.466113e+002,6.614262e+001
1.475756e+002,6.175677e+001
1.485398e+002,6.153600e+001
1.495040e+002,6.882244e+001
1.504683e+002,8.368027e+001
1.514325e+002,1.026673e+002
1.523967e+002,1.041069e+002
1.533610e+002,9.217411e+001
1.543252e+002,7.814589e+001
1.552894e+002,7.001112e+001
1.562537e+002,7.011010e+001
1.572179e+002,6.973650e+001
1.581821e+002,6.703939e+001
1.591464e+002,6.505904e+001
1.601106e+002,6.776315e+001
1.610748e+002,8.197163e+001
1.620391e+002,9.019314e+001
1.630033e+002,8.507535e+001
1.639676e+002,7.261638e+001
1.649318e+002,6.229110e+001
1.658960e+002,6.583095e+001
1.668603e+002,7.206151e+001
1.678245e+002,7.334953e+001
1.687887e+002,6.949217e+001
1.697530e+002,6.343680e+001
1.707172e+002,6.335340e+001
1.716814e+002,6.712505e+001
1.726457e+002,7.021134e+001
1.736099e+002,7.099916e+001
1.745741e+002,6.943764e+001
1.755384e+002,6.609733e+001
1.765026e+002,5.894905e+001
1.774668e+002,5.269856e+001
1.784311e+002,5.052372e+001
1.793953e+002,5.457119e+001
1.803595e+002,5.627456e+001
1.813238e+002,5.199393e+001
1.822880e+002,4.667977e+001
1.832522e+002,4.490571e+001
1.842165e+002,5.131135e+001
1.851807e+002,5.672639e+001
1.861449e+002,5.358195e+001
1.871092e+002,4.557018e+001
1.880734e+002,3.725244e+001
1.890376e+002,3.453608e+001
1.900019e+002,3.690223e+001
1.909661e+002,4.193583e+001
1.919303e+002,4.933586e+001
1.928946e+002,5.753640e+001
1.938588e+002,6.110003e+001
1.948230e+002,5.699120e+001
1.957873e+002,5.491183e+001
1.967515e+002,5.666484e+001
1.977157e+002,6.223248e+001
1.986800e+002,6.903563e+001
1.996442e+002,7.716188e+001
2.006084e+002,8.565408e+001
2.015727e+002,9.612462e+001
2.025369e+002,1.088769e+002
2.035011e+002,1.170682e+002
2.044654e+002,1.145150e+002
2.054296e+002,1.072822e+002
2.063938e+002,9.722292e+001
2.073581e+002,8.572662e+001
2.083223e+002,7.509515e+001
2.092865e+002,6.960213e+001
2.102508e+002,6.844666e+001
2.112150e+002,7.229160e+001
2.121792e+002,8.205556e+001
2.131435e+002,1.002635e+002
2.141077e+002,1.079927e+002
2.150719e+002,1.003741e+002
2.160362e+002,8.659143e+001
2.170004e+002,8.044316e+001
2.179646e+002,8.940378e+001
2.189289e+002,9.654778e+001
2.198931e+002,9.856281e+001
2.208573e+002,9.777383e+001
2.218216e+002,9.902580e+001
2.227858e+002,1.081086e+002
2.237500e+002,1.173065e+002
2.247143e+002,1.263618e+002
2.256785e+002,1.333397e+002
2.266427e+002,1.349377e+002
2.276070e+002,1.198116e+002
2.285712e+002,9.679071e+001
2.295354e+002,7.684576e+001
2.304997e+002,6.326992e+001
2.314639e+002,5.548401e+001
2.324281e+002,5.061901e+001
2.333924e+002,4.907582e+001
2.343566e+002,4.819477e+001
2.353208e+002,4.714667e+001
2.362851e+002,4.590633e+001
2.372493e+002,4.448883e+001
2.382135e+002,4.269885e+001
2.391778e+002,4.086876e+001
2.401420e+002,3.917004e+001
2.411062e+002,3.768111e+001
2.420705e+002,3.617788e+001
2.430347e+002,3.414863e+001
2.439989e+002,3.215136e+001
2.449632e+002,3.074910e+001
2.459274e+002,3.041772e+001
2.468916e+002,3.066223e+001
2.478559e+002,3.056652e+001
2.488201e+002,3.007814e+001
2.497843e+002,2.879523e+001
2.507486e+002,2.620098e+001
2.517128e+002,2.181809e+001
2.526770e+002,2.017190e+001
2.536413e+002,2.174096e+001
2.546055e+002,2.520195e+001
2.555697e+002,2.864948e+001
2.565340e+002,3.300705e+001
2.574982e+002,3.586404e+001
2.584625e+002,3.680199e+001
2.594267e+002,3.644073e+001
2.603909e+002,3.573418e+001
2.613552e+002,3.474046e+001
2.623194e+002,3.369919e+001
2.632836e+002,3.234835e+001
2.642479e+002,3.105048e+001
2.652121e+002,3.058228e+001
2.661763e+002,3.311916e+001
2.671406e+002,3.659360e+001
2.681048e+002,3.743095e+001
2.690690e+002,3.509404e+001
2.700333e+002,3.074148e+001
2.709975e+002,2.926516e+001
2.719617e+002,3.188157e+001
2.729260e+002,3.333995e+001
2.738902e+002,3.177542e+001
2.748544e+002,2.724161e+001
2.758187e+002,2.414182e+001
2.767829e+002,2.397886e+001
2.777471e+002,2.373424e+001
2.787114e+002,2.197811e+001
2.796756e+002,1.867222e+001
2.806398e+002,1.683976e+001
2.816041e+002,2.030165e+001
2.825683e+002,2.460117e+001
2.835325e+002,2.736481e+001
2.844968e+002,2.758114e+001
2.854610e+002,2.648922e+001
2.864252e+002,2.719217e+001
2.873895e+002,2.879479e+001
2.883537e+002,3.015434e+001
2.893179e+002,3.058621e+001
2.902822e+002,3.010540e+001
2.912464e+002,2.838411e+001
2.922106e+002,2.528931e+001
2.931749e+002,2.168057e+001
2.941391e+002,1.762356e+001
2.951033e+002,1.223202e+001
2.960676e+002,9.272510e+000
2.970318e+002,9.420563e+000
2.979960e+002,1.119270e+001
2.989603e+002,1.386793e+001
2.999245e+002,1.733195e+001
3.008887e+002,2.065892e+001
3.018530e+002,2.388842e+001
3.028172e+002,2.646945e+001
3.037814e+002,2.740099e+001
3.047457e+002,2.574170e+001
3.057099e+002,2.301129e+001
3.066741e+002,2.452257e+001
3.076384e+002,2.920984e+001
3.086026e+002,3.335863e+001
3.095668e+002,3.274236e+001
3.105311e+002,2.514962e+001
3.114953e+002,2.049783e+001
3.124595e+002,2.013525e+001
3.134238e+002,2.138534e+001
3.143880e+002,2.094804e+001
3.153522e+002,1.676636e+001
3.163165e+002,1.427499e+001
3.172807e+002,1.496890e+001
3.182449e+002,1.748876e+001
3.192092e+002,2.042524e+001
3.201734e+002,2.319589e+001
3.211376e+002,2.523600e+001
3.221019e+002,2.589376e+001
3.230661e+002,2.581965e+001
3.240303e+002,2.607721e+001
3.249946e+002,2.807673e+001
3.259588e+002,3.121336e+001
3.269230e+002,3.202633e+001
3.278873e+002,3.042406e+001
3.288515e+002,2.775797e+001
3.298157e+002,2.643082e+001
3.307800e+002,2.784601e+001
3.317442e+002,2.859581e+001
3.327084e+002,2.732239e+001
3.336727e+002,2.556238e+001
3.346369e+002,2.630149e+001
3.356011e+002,3.347277e+001
3.365654e+002,3.858077e+001
3.375296e+002,3.866248e+001
3.384938e+002,3.569613e+001
3.394581e+002,3.276837e+001
3.404223e+002,3.220103e+001
3.413865e+002,3.316858e+001
3.423508e+002,3.471751e+001
3.433150e+002,3.690325e+001
3.442792e+002,4.000399e+001
3.452435e+002,4.458799e+001
3.462077e+002,5.070827e+001
3.471719e+002,5.587795e+001
3.481362e+002,5.909473e+001
3.491004e+002,6.253088e+001
3.500646e+002,7.106161e+001
3.510289e+002,8.529234e+001
3.519931e+002,1.062025e+002
3.529573e+002,1.360004e+002
3.539216e+002,1.718849e+002
3.548858e+002,2.107662e+002
3.558500e+002,2.650707e+002
3.568143e+002,3.010773e+002
3.577785e+002,3.045011e+002
3.587427e+002,2.827780e+002
3.597070e+002,2.483302e+002
3.606712e+002,2.084521e+002
3.616354e+002,1.688241e+002
3.625997e+002,1.353542e+002
3.635639e+002,1.085982e+002
3.645281e+002,8.845468e+001
3.654924e+002,7.459702e+001
3.664566e+002,6.894615e+001
3.674208e+002,6.276450e+001
3.683851e+002,5.521836e+001
3.693493e+002,4.738994e+001
3.703135e+002,4.179440e+001
3.712778e+002,4.127438e+001
3.722420e+002,3.962685e+001
3.732062e+002,3.468931e+001
3.741705e+002,2.875898e+001
3.751347e+002,2.562084e+001
3.760989e+002,2.900772e+001
3.770632e+002,3.318186e+001
3.780274e+002,3.540198e+001
3.789916e+002,3.590547e+001
3.799559e+002,3.544365e+001
3.809201e+002,3.483223e+001
3.818844e+002,3.386934e+001
3.828486e+002,3.191094e+001
3.838128e+002,2.908628e+001
3.847771e+002,2.626776e+001
3.857413e+002,2.475009e+001
3.867055e+002,2.513760e+001
3.876698e+002,2.574447e+001
3.886340e+002,2.561514e+001
3.895982e+002,2.593572e+001
3.905625e+002,2.883381e+001
3.915267e+002,3.750373e+001
3.924909e+002,4.324509e+001
3.934552e+002,4.379311e+001
3.944194e+002,4.148817e+001
3.953836e+002,3.861891e+001
3.963479e+002,3.617402e+001
3.973121e+002,3.439022e+001
3.982763e+002,3.342125e+001
3.992406e+002,3.306890e+001
4.002048e+002,3.296972e+001
4.011690e+002,3.273918e+001
4.021333e+002,3.256441e+001
4.030975e+002,3.377824e+001
4.040617e+002,3.640981e+001
4.050260e+002,3.927360e+001
4.059902e+002,4.091047e+001
4.069544e+002,4.002125e+001
4.079187e+002,4.183705e+001
4.088829e+002,4.807965e+001
4.098471e+002,5.490643e+001
4.108114e+002,5.871292e+001
4.117756e+002,5.746348e+001
4.127398e+002,5.905469e+001
4.137041e+002,7.004215e+001
4.146683e+002,8.216882e+001
4.156325e+002,8.974236e+001
4.165968e+002,8.974398e+001
4.175610e+002,8.455181e+001
4.185252e+002,7.621108e+001
4.194895e+002,6.680596e+001
4.204537e+002,5.879165e+001
4.214179e+002,5.375507e+001
4.223822e+002,5.165401e+001
4.233464e+002,5.233248e+001
4.243106e+002,5.604826e+001
4.252749e+002,5.948616e+001
4.262391e+002,5.972633e+001
4.272033e+002,5.608855e+001
4.281676e+002,5.849937e+001
4.291318e+002,7.053947e+001
4.300960e+002,8.508507e+001
4.310603e+002,9.999435e+001
4.320245e+002,1.147592e+002
4.329887e+002,1.305672e+002
4.339530e+002,1.474103e+002
4.349172e+002,1.665848e+002
4.358814e+002,1.929367e+002
4.368457e+002,2.247696e+002
4.378099e+002,2.548291e+002
4.387741e+002,2.682030e+002
4.397384e+002,2.669958e+002
4.407026e+002,2.562352e+002
4.416668e+002,2.358849e+002
4.426311e+002,2.092841e+002
4.435953e+002,1.876923e+002
4.445595e+002,1.749052e+002
4.455238e+002,1.630200e+002
4.464880e+002,1.510295e+002
4.474522e+002,1.398230e+002
4.484165e+002,1.318810e+002
4.493807e+002,1.317034e+002
4.503449e+002,1.299750e+002
4.513092e+002,1.235921e+002
4.522734e+002,1.138705e+002
4.532376e+002,1.025350e+002
4.542019e+002,9.012376e+001
4.551661e+002,7.892509e+001
4.561303e+002,7.188256e+001
4.570946e+002,6.797420e+001
4.580588e+002,6.474155e+001
4.590230e+002,5.941966e+001
4.599873e+002,5.193550e+001
4.609515e+002,4.871636e+001
4.619157e+002,5.048401e+001
4.628800e+002,5.390223e+001
4.638442e+002,5.588485e+001
4.648084e+002,5.547029e+001
4.657727e+002,5.666087e+001
4.667369e+002,6.093734e+001
4.677011e+002,6.557759e+001
4.686654e+002,6.899474e+001
4.696296e+002,7.068770e+001
4.705938e+002,7.138678e+001
4.715581e+002,7.239816e+001
4.725223e+002,7.229654e+001
4.734865e+002,6.932964e+001
4.744508e+002,6.325261e+001
4.754150e+002,5.589736e+001
4.763792e+002,5.211268e+001
4.773435e+002,5.073862e+001
4.783077e+002,4.898014e+001
4.792719e+002,4.588295e+001
4.802362e+002,4.184315e+001
4.812004e+002,3.897256e+001
4.821646e+002,3.889760e+001
4.831289e+002,3.785585e+001
4.840931e+002,3.445362e+001
4.850573e+002,2.967194e+001
4.860216e+002,2.626907e+001
4.869858e+002,2.649307e+001
4.879500e+002,2.698202e+001
4.889143e+002,2.691033e+001
4.898785e+002,2.624331e+001
4.908427e+002,2.494391e+001
4.918070e+002,2.262752e+001
4.927712e+002,2.032750e+001
4.937354e+002,1.988121e+001
4.946997e+002,2.078012e+001
4.956639e+002,2.169277e+001
4.966281e+002,2.124332e+001
4.975924e+002,1.926126e+001
4.985566e+002,1.865623e+001
4.995208e+002,1.895017e+001
5.004851e+002,2.070182e+001
5.014493e+002,2.495922e+001
5.024135e+002,3.258947e+001
5.033778e+002,3.858743e+001
5.043420e+002,4.234253e+001
5.053063e+002,4.503619e+001
5.062705e+002,4.722406e+001
5.072347e+002,4.886874e+001
5.081990e+002,4.902197e+001
5.091632e+002,4.541793e+001
5.101274e+002,4.074781e+001
5.110917e+002,3.634919e+001
5.120559e+002,3.263386e+001
5.130201e+002,2.937521e+001
5.139844e+002,2.605959e+001
5.149486e+002,2.267555e+001
5.159128e+002,1.967916e+001
5.168771e+002,1.725904e+001
5.178413e+002,1.515261e+001
5.188055e+002,1.269996e+001
5.197698e+002,8.873987e+000
5.207340e+002,6.392914e+000
5.216982e+002,6.233923e+000
5.226625e+002,6.854956e+000
5.236267e+002,6.335388e+000
5.245909e+002,3.495508e+000
5.255552e+002,1.340686e+000
5.265194e+002,2.233844e+000
5.274836e+002,3.910699e+000
5.284479e+002,4.128845e+000
5.294121e+002,1.731488e+000
5.303763e+002,-1.611041e+000
5.313406e+002,-1.943390e+000
5.323048e+002,-4.321228e-001
5.332690e+002,1.201569e+000
5.342333e+002,2.159961e+000
5.351975e+002,2.510736e+000
5.361617e+002,2.724042e+000
5.371260e+002,2.307666e+000
5.380902e+002,2.594293e+000
5.390544e+002,4.579364e+000
5.400187e+002,7.471100e+000
5.409829e+002,8.723577e+000
5.419471e+002,6.330310e+000
5.429114e+002,4.097919e+000
5.438756e+002,3.435260e+000
5.448398e+002,3.486444e+000
5.458041e+002,2.615985e+000
5.467683e+002,-7.668701e-001
5.477325e+002,-4.263055e+000
5.486968e+002,-4.158868e+000
5.496610e+002,-1.729095e+000
5.506252e+002,6.312195e-001
5.515895e+002,9.463379e-001
5.525537e+002,-7.481140e-001
5.535179e+002,-1.124298e+000
5.544822e+002,7.899170e-002
5.554464e+002,1.421356e+000
5.564106e+002,2.215649e+000
5.573749e+002,2.411175e+000
5.583391e+002,2.355670e+000
5.593033e+002,2.127801e+000
5.602676e+002,1.715411e+000
5.612318e+002,9.327393e-001
5.621960e+002,-8.316040e-002
5.631603e+002,-9.344971e-001
5.641245e+002,-1.204034e+000
5.650887e+002,-1.306018e+000
5.660530e+002,-1.745764e+000
5.670172e+002,-2.352985e+000
5.679814e+002,-2.756110e+000
5.689457e+002,-2.562726e+000
5.699099e+002,-1.748132e+000
5.708741e+002,-2.348816e-001
5.718384e+002,2.350537e+000
5.728026e+002,4.135852e+000
5.737668e+002,2.975476e+000
5.747311e+002,-2.190686e+000
5.756953e+002,-5.056799e+000
5.766595e+002,-4.160211e+000
5.776238e+002,-2.840155e+000
5.785880e+002,-2.291217e+000
5.795522e+002,-2.574457e+000
5.805165e+002,-2.843744e+000
5.814807e+002,-1.893628e+000
5.824449e+002,-1.353412e+000
5.834092e+002,-3.004877e+000
5.843734e+002,-6.060052e+000
5.853376e+002,-8.330500e+000
5.863019e+002,-7.061432e+000
5.872661e+002,-2.866608e+000
5.882303e+002,-1.973755e-001
5.891946e+002,9.427612e-001
5.901588e+002,1.365320e+000
5.911230e+002,1.895929e+000
5.920873e+002,2.692407e+000
5.930515e+002,2.796497e+000
5.940157e+002,2.035846e+000
5.949800e+002,1.067206e+000
5.959442e+002,-1.057739e-002
5.969084e+002,-1.151947e+000
5.978727e+002,-1.840826e+000
5.988369e+002,-1.198175e+000
5.998011e+002,-4.640686e-001
6.007654e+002,-2.494507e-002
6.017296e+002,2.885132e-002
6.026938e+002,-3.086914e-001
6.036581e+002,-1.192657e+000
6.046223e+002,-2.321338e+000
6.055865e+002,-2.593835e+000
6.065508e+002,-2.052374e+000
6.075150e+002,-1.619403e+000
6.084792e+002,-2.429742e+000
6.094435e+002,-5.084167e+000
6.104077e+002,-5.601080e+000
6.113719e+002,-2.624866e+000
6.123362e+002,2.797729e-001
6.133004e+002,1.040668e+000
6.142646e+002,-3.786926e-001
6.152289e+002,-1.379614e+000
6.161931e+002,-2.637512e-001
6.171573e+002,8.696167e-001
6.181216e+002,1.339703e+000
6.190858e+002,1.240216e+000
6.200500e+002,9.697143e-001
6.210143e+002,6.931823e-001
6.219785e+002,7.262939e-001
6.229427e+002,1.536987e+000
6.239070e+002,3.047687e+000
6.248712e+002,5.099536e+000
6.258354e+002,7.641754e+000
6.267997e+002,1.093345e+001
6.277639e+002,1.286884e+001
6.287281e+002,1.307010e+001
6.296924e+002,1.266602e+001
6.306566e+002,1.178941e+001
6.316208e+002,1.052817e+001
6.325851e+002,9.802899e+000
6.335493e+002,1.031888e+001
6.345135e+002,1.123074e+001
6.354778e+002,1.275438e+001
6.364420e+002,1.440100e+001
6.374063e+002,1.543332e+001
6.383705e+002,1.527463e+001
6.393347e+002,1.413610e+001
6.402990e+002,1.230640e+001
6.412632e+002,1.013801e+001
6.422274e+002,8.415314e+000
6.431917e+002,7.720123e+000
6.441559e+002,7.977942e+000
6.451201e+002,7.948236e+000
6.460844e+002,7.372418e+000
6.470486e+002,7.027820e+000
6.480128e+002,7.516242e+000
6.489771e+002,8.538305e+000
6.499413e+002,8.753393e+000
6.509055e+002,7.394427e+000
6.518698e+002,5.724292e+000
6.528340e+002,3.496753e+000
6.537982e+002,1.435944e+000
6.547625e+002,5.799866e-001
6.557267e+002,1.672961e+000
6.566909e+002,3.211359e+000
6.576552e+002,2.987854e+000
6.586194e+002,1.666119e+000
6.595836e+002,-8.363037e-002
6.605479e+002,-1.855493e+000
6.615121e+002,-3.326801e+000
6.624763e+002,-3.179736e+000
6.634406e+002,-4.952454e-001
6.644048e+002,1.376941e+000
6.653690e+002,1.412933e+000
6.663333e+002,4.223389e-001
6.672975e+002,1.463623e-002
6.682617e+002,6.588684e-001
6.692260e+002,1.510150e+000
6.701902e+002,2.497058e+000
6.711544e+002,3.454895e+000
6.721187e+002,4.328753e+000
6.730829e+002,5.041266e+000
6.740471e+002,5.302094e+000
6.750114e+002,4.099286e+000
6.759756e+002,2.585333e+000
6.769398e+002,2.116510e+000
6.779041e+002,2.886060e+000
6.788683e+002,4.092303e+000
6.798325e+002,4.280463e+000
6.807968e+002,3.090753e+000
6.817610e+002,2.060950e+000
6.827252e+002,7.629883e-001
6.836895e+002,-6.111450e-002
6.846537e+002,4.179993e-001
6.856179e+002,2.434515e+000
6.865822e+002,4.296808e+000
6.875464e+002,6.067822e+000
6.885106e+002,7.213367e+000
6.894749e+002,7.133111e+000
6.904391e+002,6.112543e+000
6.914034e+002,5.124621e+000
6.923676e+002,5.071539e+000
6.933318e+002,5.577814e+000
6.942961e+002,6.220569e+000
6.952603e+002,6.865607e+000
6.962245e+002,7.045886e+000
6.971888e+002,6.275495e+000
6.981530e+002,4.489532e+000
6.991172e+002,4.368555e+000
7.000815e+002,6.387250e+000
7.010457e+002,8.549579e+000
7.020099e+002,1.013422e+001
7.029742e+002,1.134538e+001
7.039384e+002,1.308983e+001
7.049026e+002,1.677889e+001
7.058669e+002,1.908607e+001
7.068311e+002,1.802228e+001
7.077953e+002,1.556631e+001
7.087596e+002,1.423799e+001
7.097238e+002,1.543908e+001
7.106880e+002,1.762678e+001
7.116523e+002,1.834243e+001
7.126165e+002,1.818022e+001
7.135807e+002,1.805703e+001
7.145450e+002,1.834132e+001
7.155092e+002,1.872706e+001
7.164734e+002,1.829385e+001
7.174377e+002,1.659048e+001
7.184019e+002,1.483063e+001
7.193661e+002,1.258947e+001
7.203304e+002,1.045548e+001
7.212946e+002,9.109564e+000
7.222589e+002,8.749964e+000
7.232231e+002,8.792608e+000
7.241873e+002,9.438086e+000
7.251516e+002,1.001683e+001
7.261158e+002,9.910932e+000
7.270800e+002,9.224543e+000
7.280443e+002,8.750006e+000
7.290085e+002,9.595166e+000
7.299727e+002,1.096794e+001
7.309370e+002,1.110723e+001
7.319012e+002,1.014149e+001
7.328654e+002,8.911285e+000
7.338297e+002,8.147766e+000
7.347939e+002,7.852002e+000
7.357581e+002,7.713647e+000
7.367224e+002,7.748755e+000
7.376866e+002,7.877923e+000
7.386508e+002,8.086194e+000
7.396151e+002,8.372583e+000
7.405793e+002,8.821863e+000
7.415435e+002,9.881739e+000
7.425078e+002,1.040513e+001
7.434720e+002,9.452619e+000
7.444362e+002,7.950854e+000
7.454005e+002,6.770556e+000
7.463647e+002,6.348859e+000
7.473289e+002,6.573212e+000
7.482932e+002,7.684912e+000
7.492574e+002,9.327545e+000
7.502216e+002,1.046267e+001
7.511859e+002,1.079885e+001
7.521501e+002,1.055473e+001
7.531143e+002,1.015824e+001
7.540786e+002,9.571808e+000
7.550428e+002,9.096624e+000
7.560070e+002,8.684259e+000
7.569713e+002,8.373102e+000
7.579355e+002,8.110669e+000
7.588997e+002,7.903028e+000
7.598640e+002,7.948346e+000
7.608282e+002,8.547473e+000
7.617924e+002,9.371411e+000
7.627567e+002,1.023158e+001
7.637209e+002,1.115303e+001
7.646851e+002,1.207644e+001
7.656494e+002,1.292408e+001
7.666136e+002,1.404314e+001
7.675778e+002,1.787258e+001
7.685421e+002,2.397976e+001
7.695063e+002,2.771017e+001
7.704705e+002,2.633535e+001
7.714348e+002,2.120756e+001
7.723990e+002,1.775451e+001
7.733632e+002,1.710329e+001
7.743275e+002,1.653294e+001
7.752917e+002,1.592201e+001
7.762559e+002,1.530847e+001
7.772202e+002,1.446367e+001
7.781844e+002,1.332176e+001
7.791486e+002,1.288194e+001
7.801129e+002,1.515407e+001
7.810771e+002,1.779208e+001
7.820413e+002,1.913504e+001
7.830056e+002,1.919558e+001
7.839698e+002,1.898957e+001
7.849340e+002,1.968311e+001
7.858983e+002,2.121024e+001
7.868625e+002,2.191983e+001
7.878267e+002,2.158338e+001
7.887910e+002,2.129910e+001
7.897552e+002,2.170107e+001
7.907194e+002,2.274135e+001
7.916837e+002,2.385241e+001
7.926479e+002,2.507479e+001
7.936121e+002,2.617498e+001
7.945764e+002,2.725034e+001
7.955406e+002,2.807341e+001
7.965048e+002,2.810038e+001
7.974691e+002,2.716645e+001
7.984333e+002,2.674726e+001
7.993975e+002,2.968400e+001
8.003618e+002,3.376789e+001
8.013260e+002,3.673587e+001
8.022902e+002,3.815947e+001
8.032545e+002,3.883493e+001
8.042187e+002,3.997328e+001
8.051829e+002,4.169875e+001
8.061472e+002,4.351077e+001
8.071114e+002,4.533751e+001
8.080756e+002,4.718557e+001
8.090399e+002,4.889925e+001
8.100041e+002,5.061566e+001
8.109683e+002,5.307820e+001
8.119326e+002,5.684779e+001
8.128968e+002,6.092861e+001
8.138610e+002,6.471151e+001
8.148253e+002,6.864817e+001
8.157895e+002,7.325754e+001
8.167537e+002,7.883020e+001
8.177180e+002,8.512062e+001
8.186822e+002,9.246841e+001
8.196464e+002,1.001826e+002
8.206107e+002,1.066083e+002
8.215749e+002,1.112879e+002
8.225391e+002,1.145622e+002
8.235034e+002,1.171026e+002
8.244676e+002,1.193792e+002
8.254318e+002,1.189231e+002
8.263961e+002,1.151188e+002
8.273603e+002,1.105282e+002
8.283245e+002,1.060464e+002
8.292888e+002,1.016377e+002
8.302530e+002,9.676602e+001
8.312172e+002,9.037805e+001
8.321815e+002,8.498204e+001
8.331457e+002,8.334399e+001
8.341099e+002,8.327629e+001
8.350742e+002,8.154334e+001
8.360384e+002,7.667174e+001
8.370026e+002,7.041005e+001
8.379669e+002,6.695614e+001
8.389311e+002,6.644111e+001
8.398953e+002,6.482052e+001
8.408596e+002,6.122419e+001
8.418238e+002,5.706658e+001
8.427880e+002,5.396244e+001
8.437523e+002,5.202747e+001
8.447165e+002,5.070166e+001
8.456807e+002,5.097675e+001
8.466450e+002,5.070934e+001
8.476092e+002,4.867771e+001
8.485734e+002,4.546752e+001
8.495377e+002,4.240596e+001
8.505019e+002,4.022934e+001
8.514661e+002,3.882491e+001
8.524304e+002,3.835289e+001
8.533946e+002,3.831311e+001
8.543588e+002,3.792313e+001
8.553231e+002,3.687968e+001
8.562873e+002,3.542877e+001
8.572515e+002,3.409551e+001
8.582158e+002,3.281408e+001
8.591800e+002,3.194778e+001
8.601442e+002,3.137880e+001
8.611085e+002,3.116787e+001
8.620727e+002,3.177926e+001
8.630369e+002,3.313203e+001
8.640012e+002,3.368428e+001
8.649654e+002,3.176976e+001
8.659296e+002,3.025525e+001
8.668939e+002,3.075224e+001
8.678581e+002,3.228916e+001
8.688223e+002,3.350861e+001
8.697866e+002,3.370414e+001
8.707508e+002,3.335437e+001
8.717150e+002,3.346521e+001
8.726793e+002,3.386671e+001
8.736435e+002,3.380182e+001
8.746077e+002,3.312888e+001
8.755720e+002,3.210321e+001
8.765362e+002,3.104588e+001
8.775004e+002,3.001324e+001
8.784647e+002,2.873267e+001
8.794289e+002,2.589006e+001
8.803931e+002,2.423847e+001
8.813574e+002,2.598252e+001
8.823216e+002,2.931674e+001
8.832858e+002,3.049407e+001
8.842501e+002,2.747604e+001
8.852143e+002,2.352389e+001
8.861785e+002,2.169766e+001
8.871428e+002,2.097710e+001
8.881070e+002,2.049023e+001
8.890712e+002,1.989443e+001
8.900355e+002,1.909332e+001
8.909997e+002,1.792440e+001
8.919639e+002,1.632449e+001
8.929282e+002,1.510839e+001
8.938924e+002,1.433972e+001
8.948566e+002,1.376978e+001
8.958209e+002,1.323386e+001
8.967851e+002,1.279295e+001
8.977493e+002,1.273657e+001
8.987136e+002,1.344659e+001
8.996778e+002,1.388765e+001
9.006420e+002,1.392686e+001
9.016063e+002,1.346395e+001
9.025705e+002,1.225588e+001
9.035347e+002,1.036399e+001
9.044990e+002,8.236194e+000
9.054632e+002,6.200812e+000
9.064274e+002,4.473975e+000
9.073917e+002,3.900189e+000
9.083559e+002,4.579443e+000
9.093201e+002,5.481225e+000
9.102844e+002,5.832770e+000
9.112486e+002,5.647430e+000
9.122128e+002,5.405206e+000
9.131771e+002,5.136090e+000
9.141413e+002,4.759381e+000
9.151055e+002,4.452960e+000
9.160698e+002,3.950934e+000
9.170340e+002,2.614990e+000
9.179982e+002,3.683289e-001
9.189625e+002,-1.295404e+000
9.199267e+002,-5.615967e-001
9.208909e+002,9.829590e-001
9.218552e+002,2.147461e+000
9.228194e+002,2.745111e+000
9.237836e+002,2.562610e+000
9.247479e+002,1.412537e+000
9.257121e+002,-4.623413e-001
9.266763e+002,-1.626086e+000
9.276406e+002,-1.700031e+000
9.286048e+002,-1.919592e+000
9.295690e+002,-2.881891e+000
9.305333e+002,-3.723798e+000
9.314975e+002,-3.143250e+000
9.324617e+002,-8.518738e-001
9.334260e+002,7.357117e-001
9.343902e+002,-2.643738e-001
9.353545e+002,-1.481836e+000
9.363187e+002,-1.975665e+000
9.372830e+002,-1.912756e+000
9.382472e+002,-1.848090e+000
9.392114e+002,-2.096130e+000
9.401757e+002,-2.266248e+000
9.411399e+002,-1.291296e+000
9.421041e+002,5.835816e-001
9.430684e+002,1.928827e+000
9.440326e+002,2.375220e+000
9.449968e+002,2.333862e+000
9.459611e+002,2.412164e+000
9.469253e+002,2.765936e+000
9.478895e+002,2.750183e+000
9.488538e+002,1.746460e+000
9.498180e+002,9.395019e-001
9.507822e+002,6.082153e-001
9.517465e+002,6.461487e-001
9.527107e+002,9.213196e-001
9.536749e+002,1.409430e+000
9.546392e+002,2.018793e+000
9.556034e+002,2.395111e+000
9.565676e+002,2.866919e+000
9.575319e+002,4.163709e+000
9.584961e+002,6.293750e+000
9.594603e+002,8.444513e+000
9.604246e+002,9.719757e+000
9.613888e+002,1.008499e+001
9.623530e+002,1.041741e+001
9.633173e+002,9.652740e+000
9.642815e+002,1.027928e+001
9.652457e+002,1.313929e+001
9.662100e+002,1.739688e+001
9.671742e+002,2.161874e+001
9.681384e+002,2.540191e+001
9.691027e+002,3.102432e+001
9.700669e+002,4.052807e+001
9.710311e+002,5.215978e+001
9.719954e+002,6.867511e+001
9.729596e+002,8.632345e+001
9.739238e+002,9.714622e+001
9.748881e+002,9.580233e+001
9.758523e+002,8.527367e+001
9.768165e+002,7.489053e+001
9.777808e+002,6.442635e+001
9.787450e+002,5.579287e+001
9.797092e+002,5.047399e+001
9.806735e+002,4.604188e+001
9.816377e+002,3.947486e+001
9.826019e+002,3.068909e+001
9.835662e+002,2.456000e+001
9.845304e+002,2.414151e+001
9.854946e+002,2.470402e+001
9.864589e+002,2.524404e+001
9.874231e+002,2.555936e+001
9.883873e+002,2.526531e+001
9.893516e+002,2.432186e+001
9.903158e+002,2.359546e+001
9.912800e+002,2.452178e+001
9.922443e+002,2.690919e+001
9.932085e+002,2.874327e+001
9.941727e+002,2.985264e+001
9.951370e+002,3.204270e+001
9.961012e+002,3.628901e+001
9.970654e+002,4.245309e+001
9.980297e+002,5.048441e+001
9.989939e+002,5.804706e+001
9.999581e+002,7.248920e+001
1.000922e+003,8.951431e+001
1.001887e+003,1.171087e+002
1.002851e+003,1.668361e+002
1.003815e+003,2.349950e+002
1.004779e+003,3.056865e+002
1.005744e+003,3.773686e+002
1.006708e+003,4.267240e+002
1.007672e+003,4.159027e+002
1.008636e+003,3.621236e+002
1.009600e+003,2.988371e+002
1.010565e+003,2.399664e+002
1.011529e+003,1.872195e+002
1.012493e+003,1.450904e+002
1.013457e+003,1.156396e+002
1.014422e+003,9.253569e+001
1.015386e+003,7.653276e+001
1.016350e+003,6.412028e+001
1.017314e+003,5.485067e+001
1.018279e+003,4.785049e+001
1.019243e+003,4.188235e+001
1.020207e+003,3.664633e+001
1.021171e+003,3.218412e+001
1.022135e+003,2.837363e+001
1.023100e+003,2.547865e+001
1.024064e+003,2.436706e+001
1.025028e+003,2.459863e+001
1.025992e+003,2.446025e+001
1.026957e+003,2.239660e+001
1.027921e+003,1.894009e+001
1.028885e+003,1.737883e+001
1.029849e+003,1.855409e+001
1.030814e+003,1.973800e+001
1.031778e+003,2.129067e+001
1.032742e+003,2.209650e+001
1.033706e+003,2.058797e+001
1.034671e+003,1.687690e+001
1.035635e+003,1.413142e+001
1.036599e+003,1.420829e+001
1.037563e+003,1.474458e+001
1.038527e+003,1.432353e+001
1.039492e+003,1.356276e+001
1.040456e+003,1.337596e+001
1.041420e+003,1.407735e+001
1.042384e+003,1.525648e+001
1.043349e+003,1.639975e+001
1.044313e+003,1.741848e+001
1.045277e+003,1.703959e+001
1.046241e+003,1.457219e+001
1.047206e+003,1.279517e+001
1.048170e+003,1.356102e+001
1.049134e+003,1.586390e+001
1.050098e+003,1.720222e+001
1.051063e+003,1.712014e+001
1.052027e+003,1.711902e+001
1.052991e+003,1.740975e+001
1.053955e+003,1.795875e+001
1.054919e+003,1.930837e+001
1.055884e+003,2.084661e+001
1.056848e+003,2.128331e+001
1.057812e+003,1.988619e+001
1.058776e+003,1.764439e+001
1.059741e+003,1.631960e+001
1.060705e+003,1.582298e+001
1.061669e+003,1.610721e+001
1.062633e+003,1.749958e+001
1.063598e+003,1.866500e+001
1.064562e+003,1.815946e+001
1.065526e+003,1.618965e+001
1.066490e+003,1.494659e+001
1.067454e+003,1.453699e+001
1.068419e+003,1.499788e+001
1.069383e+003,1.674547e+001
1.070347e+003,1.878736e+001
1.071311e+003,2.070937e+001
1.072276e+003,2.224178e+001
1.073240e+003,2.289777e+001
1.074204e+003,2.216407e+001
1.075168e+003,2.068215e+001
1.076133e+003,1.983807e+001
1.077097e+003,1.949924e+001
1.078061e+003,1.935746e+001
1.079025e+003,1.935527e+001
1.079990e+003,1.937731e+001
1.080954e+003,1.914671e+001
1.081918e+003,1.854513e+001
1.082882e+003,1.855516e+001
1.083846e+003,2.072075e+001
1.084811e+003,2.162095e+001
1.085775e+003,1.887829e+001
1.086739e+003,1.556034e+001
1.087703e+003,1.560063e+001
1.088668e+003,1.947366e+001
1.089632e+003,2.317820e+001
1.090596e+003,2.307096e+001
1.091560e+003,2.074536e+001
1.092525e+003,1.938007e+001
1.093489e+003,1.884326e+001
1.094453e+003,1.884741e+001
1.095417e+003,1.935130e+001
1.096381e+003,2.014084e+001
1.097346e+003,2.072930e+001
1.098310e+003,2.099673e+001
1.099274e+003,2.149259e+001
1.100238e+003,2.265561e+001
1.101203e+003,2.358727e+001
1.102167e+003,2.401287e+001
1.103131e+003,2.399390e+001
1.104095e+003,2.318841e+001
1.105060e+003,2.162125e+001
1.106024e+003,2.104990e+001
1.106988e+003,2.393214e+001
1.107952e+003,2.807553e+001
1.108917e+003,3.007820e+001
1.109881e+003,3.010649e+001
1.110845e+003,2.898212e+001
1.111809e+003,2.697912e+001
1.112773e+003,2.472920e+001
1.113738e+003,2.392167e+001
1.114702e+003,2.532012e+001
1.115666e+003,2.623787e+001
1.116630e+003,2.636556e+001
1.117595e+003,2.635171e+001
1.118559e+003,2.655432e+001
1.119523e+003,2.670461e+001
1.120487e+003,2.605936e+001
1.121452e+003,2.447506e+001
1.122416e+003,2.361813e+001
1.123380e+003,2.558261e+001
1.124344e+003,2.845992e+001
1.125308e+003,2.968892e+001
1.126273e+003,2.953205e+001
1.127237e+003,2.905639e+001
1.128201e+003,2.878791e+001
1.129165e+003,2.879510e+001
1.130130e+003,2.928270e+001
1.131094e+003,3.041506e+001
1.132058e+003,3.128541e+001
1.133022e+003,3.210297e+001
1.133987e+003,3.252488e+001
1.134951e+003,3.257302e+001
1.135915e+003,3.219580e+001
1.136879e+003,3.084094e+001
1.137844e+003,2.845617e+001
1.138808e+003,2.698021e+001
1.139772e+003,2.851801e+001
1.140736e+003,3.119152e+001
1.141700e+003,3.241132e+001
1.142665e+003,3.260476e+001
1.143629e+003,3.328007e+001
1.144593e+003,3.523431e+001
1.145557e+003,3.761195e+001
1.146522e+003,3.856675e+001
1.147486e+003,3.745327e+001
1.148450e+003,3.698646e+001
1.149414e+003,3.772881e+001
1.150379e+003,3.857259e+001
1.151343e+003,3.946538e+001
1.152307e+003,4.022335e+001
1.153271e+003,4.057900e+001
1.154235e+003,4.042857e+001
1.155200e+003,3.982875e+001
1.156164e+003,3.851452e+001
1.157128e+003,3.749387e+001
1.158092e+003,3.839475e+001
1.159057e+003,4.050828e+001
1.160021e+003,4.202629e+001
1.160985e+003,4.223573e+001
1.161949e+003,4.187111e+001
1.162914e+003,4.198092e+001
1.163878e+003,4.260516e+001
1.164842e+003,4.385259e+001
1.165806e+003,4.709049e+001
1.166771e+003,4.906193e+001
1.167735e+003,4.844068e+001
1.168699e+003,4.710658e+001
1.169663e+003,4.644454e+001
1.170627e+003,4.673864e+001
1.171592e+003,4.813132e+001
1.172556e+003,5.115598e+001
1.173520e+003,5.421078e+001
1.174484e+003,5.416084e+001
1.175449e+003,5.246044e+001
1.176413e+003,5.191485e+001
1.177377e+003,5.314082e+001
1.178341e+003,5.508097e+001
1.179306e+003,5.675472e+001
1.180270e+003,5.824842e+001
1.181234e+003,6.013294e+001
1.182198e+003,6.336112e+001
1.183162e+003,6.506559e+001
1.184127e+003,6.395877e+001
1.185091e+003,6.243394e+001
1.186055e+003,6.209385e+001
1.187019e+003,6.264553e+001
1.187984e+003,6.292780e+001
1.188948e+003,6.235886e+001
1.189912e+003,6.138517e+001
1.190876e+003,6.056647e+001
1.191841e+003,5.984240e+001
1.192805e+003,5.885205e+001
1.193769e+003,5.760640e+001
1.194733e+003,5.693704e+001
1.195698e+003,5.750756e+001
1.196662e+003,5.881690e+001
1.197626e+003,5.966020e+001
1.198590e+003,6.003832e+001
1.199554e+003,5.984998e+001
1.200519e+003,5.872576e+001
1.201483e+003,5.764203e+001
1.202447e+003,5.697942e+001
1.203411e+003,5.646952e+001
1.204376e+003,5.563137e+001
1.205340e+003,5.433126e+001
1.206304e+003,5.281500e+001
1.207268e+003,5.125855e+001
1.208233e+003,5.024946e+001
1.209197e+003,5.190937e+001
1.210161e+003,5.573870e+001
1.211125e+003,5.771803e+001
1.212089e+003,5.602935e+001
1.213054e+003,5.310195e+001
1.214018e+003,5.149469e+001
1.214982e+003,5.127955e+001
1.215946e+003,5.199918e+001
1.216911e+003,5.416840e+001
1.217875e+003,5.600566e+001
1.218839e+003,5.706729e+001
1.219803e+003,5.747172e+001
1.220768e+003,5.709995e+001
1.221732e+003,5.634763e+001
1.222696e+003,5.589233e+001
1.223660e+003,5.607900e+001
1.224625e+003,5.655735e+001
1.225589e+003,5.665039e+001
1.226553e+003,5.630449e+001
1.227517e+003,5.683928e+001
1.228481e+003,5.902028e+001
1.229446e+003,6.034458e+001
1.230410e+003,5.876050e+001
1.231374e+003,5.604530e+001
1.232338e+003,5.545112e+001
1.233303e+003,5.736032e+001
1.234267e+003,5.889761e+001
1.235231e+003,5.840507e+001
1.236195e+003,5.809651e+001
1.237160e+003,6.007904e+001
1.238124e+003,6.238015e+001
1.239088e+003,6.202110e+001
1.240052e+003,5.896077e+001
1.241016e+003,5.617793e+001
1.241981e+003,5.652419e+001
1.242945e+003,5.927755e+001
1.243909e+003,6.115857e+001
1.244873e+003,6.198204e+001
1.245838e+003,6.231333e+001
1.246802e+003,6.133294e+001
1.247766e+003,6.069501e+001
1.248730e+003,6.169122e+001
1.249695e+003,6.361722e+001
1.250659e+003,6.493173e+001
1.251623e+003,6.527729e+001
1.252587e+003,6.521594e+001
1.253552e+003,6.484737e+001
1.254516e+003,6.443732e+001
1.255480e+003,6.426346e+001
1.256444e+003,6.427654e+001
1.257408e+003,6.434935e+001
1.258373e+003,6.444635e+001
1.259337e+003,6.469738e+001
1.260301e+003,6.541951e+001
1.261265e+003,6.667793e+001
1.262230e+003,6.663523e+001
1.263194e+003,6.277330e+001
1.264158e+003,6.091654e+001
1.265122e+003,6.248465e+001
1.266087e+003,6.513021e+001
1.267051e+003,6.827271e+001
1.268015e+003,7.110236e+001
1.268979e+003,7.187605e+001
1.269943e+003,6.982504e+001
1.270908e+003,6.741472e+001
1.271872e+003,6.725138e+001
1.272836e+003,6.865724e+001
1.273800e+003,7.006246e+001
1.274765e+003,7.141638e+001
1.275729e+003,7.234150e+001
1.276693e+003,7.258968e+001
1.277657e+003,7.243689e+001
1.278622e+003,7.211626e+001
1.279586e+003,7.154291e+001
1.280550e+003,7.158794e+001
1.281514e+003,7.311001e+001
1.282479e+003,7.437832e+001
1.283443e+003,7.486201e+001
1.284407e+003,7.492729e+001
1.285371e+003,7.464992e+001
1.286335e+003,7.413654e+001
1.287300e+003,7.346643e+001
1.288264e+003,7.278165e+001
1.289228e+003,7.264396e+001
1.290192e+003,7.399497e+001
1.291157e+003,7.672868e+001
1.292121e+003,7.846681e+001
1.293085e+003,7.895116e+001
1.294049e+003,7.895449e+001
1.295014e+003,7.860811e+001
1.295978e+003,7.823088e+001
1.296942e+003,7.817081e+001
1.297906e+003,7.844130e+001
1.298870e+003,7.883101e+001
1.299835e+003,7.926570e+001
1.300799e+003,7.947388e+001
1.301763e+003,7.895036e+001
1.302727e+003,7.836064e+001
1.303692e+003,7.852708e+001
1.304656e+003,7.941782e+001
1.305620e+003,8.042373e+001
1.306584e+003,8.113522e+001
1.307549e+003,8.162331e+001
1.308513e+003,8.204027e+001
1.309477e+003,8.225987e+001
1.310441e+003,8.292281e+001
1.311406e+003,8.516243e+001
1.312370e+003,8.640656e+001
1.313334e+003,8.532068e+001
1.314298e+003,8.396242e+001
1.315263e+003,8.438985e+001
1.316227e+003,8.613932e+001
1.317191e+003,8.707026e+001
1.318155e+003,8.621111e+001
1.319120e+003,8.492271e+001
1.320084e+003,8.429364e+001
1.321048e+003,8.451775e+001
1.322012e+003,8.638750e+001
1.322976e+003,8.971178e+001
1.323941e+003,9.225338e+001
1.324905e+003,9.296665e+001
1.325869e+003,9.277676e+001
1.326833e+003,9.307285e+001
1.327798e+003,9.380620e+001
1.328762e+003,9.338078e+001
1.329726e+003,9.039516e+001
1.330690e+003,8.857232e+001
1.331655e+003,8.985506e+001
1.332619e+003,9.161031e+001
1.333583e+003,9.227566e+001
1.334547e+003,9.192661e+001
1.335511e+003,9.080715e+001
1.336476e+003,8.923548e+001
1.337440e+003,8.835445e+001
1.338404e+003,8.978510e+001
1.339368e+003,9.306651e+001
1.340333e+003,9.369387e+001
1.341297e+003,9.049259e+001
1.342261e+003,8.816966e+001
1.343225e+003,8.727966e+001
1.344190e+003,8.742785e+001
1.345154e+003,8.906073e+001
1.346118e+003,9.138894e+001
1.347082e+003,9.240987e+001
1.348047e+003,9.159055e+001
1.349011e+003,9.078725e+001
1.349975e+003,9.124110e+001
1.350939e+003,9.218691e+001
1.351903e+003,9.262313e+001
1.352868e+003,9.282416e+001
1.353832e+003,9.351432e+001
1.354796e+003,9.485915e+001
1.355760e+003,9.618956e+001
1.356725e+003,9.689137e+001
1.357689e+003,9.705421e+001
1.358653e+003,9.705327e+001
1.359617e+003,9.697444e+001
1.360582e+003,9.646213e+001
1.361546e+003,9.430460e+001
1.362510e+003,9.308211e+001
1.363474e+003,9.434389e+001
1.364438e+003,9.670158e+001
1.365403e+003,9.885716e+001
1.366367e+003,1.003091e+002
1.367331e+003,1.008089e+002
1.368295e+003,1.002101e+002
1.369260e+003,9.916364e+001
1.370224e+003,9.882457e+001
1.371188e+003,9.937836e+001
1.372152e+003,1.004958e+002
1.373117e+003,1.023634e+002
1.374081e+003,1.036582e+002
1.375045e+003,1.038834e+002
1.376009e+003,1.034082e+002
1.376974e+003,1.020704e+002
1.377938e+003,1.003248e+002
1.378902e+003,1.004702e+002
1.379866e+003,1.036034e+002
1.380830e+003,1.066537e+002
1.381795e+003,1.079110e+002
1.382759e+003,1.077372e+002
1.383723e+003,1.051935e+002
1.384687e+003,1.016356e+002
1.385652e+003,1.006657e+002
1.386616e+003,1.035899e+002
1.387580e+003,1.076908e+002
1.388544e+003,1.097945e+002
1.389509e+003,1.099665e+002
1.390473e+003,1.093486e+002
1.391437e+003,1.072060e+002
1.392401e+003,1.063245e+002
1.393365e+003,1.076107e+002
1.394330e+003,1.090408e+002
1.395294e+003,1.098551e+002
1.396258e+003,1.101782e+002
1.397222e+003,1.100345e+002
1.398187e+003,1.098655e+002
1.399151e+003,1.109239e+002
1.400115e+003,1.140148e+002
1.401079e+003,1.173909e+002
1.402044e+003,1.177546e+002
1.403008e+003,1.150434e+002
1.403972e+003,1.131669e+002
1.404936e+003,1.122033e+002
1.405901e+003,1.120553e+002
1.406865e+003,1.134068e+002
1.407829e+003,1.148730e+002
1.408793e+003,1.144020e+002
1.409757e+003,1.127110e+002
1.410722e+003,1.133295e+002
1.411686e+003,1.175685e+002
1.412650e+003,1.212798e+002
1.413614e+003,1.214316e+002
1.414579e+003,1.199831e+002
1.415543e+003,1.186640e+002
1.416507e+003,1.176671e+002
1.417471e+003,1.170940e+002
1.418436e+003,1.169120e+002
1.419400e+003,1.175051e+002
1.420364e+003,1.197430e+002
1.421328e+003,1.230967e+002
1.422292e+003,1.246845e+002
1.423257e+003,1.236607e+002
1.424221e+003,1.235132e+002
1.425185e+003,1.260988e+002
1.426149e+003,1.277659e+002
1.427114e+003,1.268574e+002
1.428078e+003,1.254639e+002
1.429042e+003,1.254455e+002
1.430006e+003,1.266194e+002
1.430971e+003,1.277673e+002
1.431935e+003,1.282795e+002
1.432899e+003,1.286740e+002
1.433863e+003,1.297822e+002
1.434828e+003,1.315817e+002
1.435792e+003,1.325762e+002
1.436756e+003,1.318202e+002
1.437720e+003,1.315646e+002
1.438684e+003,1.325967e+002
1.439649e+003,1.337940e+002
1.440613e+003,1.342861e+002
1.441577e+003,1.346377e+002
1.442541e+003,1.362008e+002
1.443506e+003,1.388201e+002
1.444470e+003,1.399331e+002
1.445434e+003,1.378056e+002
1.446398e+003,1.350051e+002
1.447363e+003,1.349498e+002
1.448327e+003,1.368181e+002
1.449291e+003,1.389989e+002
1.450255e+003,1.414668e+002
1.451219e+003,1.430464e+002
1.452184e+003,1.428602e+002
1.453148e+003,1.417523e+002
1.454112e+003,1.401471e+002
1.455076e+003,1.383795e+002
1.456041e+003,1.391430e+002
1.457005e+003,1.438500e+002
1.457969e+003,1.474666e+002
1.458933e+003,1.467114e+002
1.459898e+003,1.453525e+002
1.460862e+003,1.458810e+002
1.461826e+003,1.471779e+002
1.462790e+003,1.473341e+002
1.463755e+003,1.461561e+002
1.464719e+003,1.449251e+002
1.465683e+003,1.445484e+002
1.466647e+003,1.451549e+002
1.467611e+003,1.473968e+002
1.468576e+003,1.518176e+002
1.469540e+003,1.533358e+002
1.470504e+003,1.495292e+002
1.471468e+003,1.466358e+002
1.472433e+003,1.453607e+002
1.473397e+003,1.452638e+002
1.474361e+003,1.469349e+002
1.475325e+003,1.492436e+002
1.476290e+003,1.502454e+002
1.477254e+003,1.496673e+002
1.478218e+003,1.492896e+002
1.479182e+003,1.505987e+002
1.480146e+003,1.529743e+002
1.481111e+003,1.550045e+002
1.482075e+003,1.566983e+002
1.483039e+003,1.567764e+002
1.484003e+003,1.542812e+002
1.484968e+003,1.519174e+002
1.485932e+003,1.501008e+002
1.486896e+003,1.490803e+002
1.487860e+003,1.492368e+002
1.488825e+003,1.500945e+002
1.489789e+003,1.507345e+002
1.490753e+003,1.509875e+002
1.491717e+003,1.515341e+002
1.492682e+003,1.531399e+002
1.493646e+003,1.545649e+002
1.494610e+003,1.527435e+002
1.495574e+003,1.490256e+002
1.496538e+003,1.483905e+002
1.497503e+003,1.519164e+002
1.498467e+003,1.544393e+002
1.499431e+003,1.517455e+002
1.500395e+003,1.478161e+002
1.501360e+003,1.487175e+002
1.502324e+003,1.532757e+002
1.503288e+003,1.547689e+002
1.504252e+003,1.513015e+002
1.505217e+003,1.486189e+002
1.506181e+003,1.505385e+002
1.507145e+003,1.529874e+002
1.508109e+003,1.523297e+002
1.509073e+003,1.501443e+002
1.510038e+003,1.487587e+002
1.511002e+003,1.485864e+002
1.511966e+003,1.493755e+002
1.512930e+003,1.512952e+002
1.513895e+003,1.530323e+002
1.514859e+003,1.515137e+002
1.515823e+003,1.466824e+002
1.516787e+003,1.444270e+002
1.517752e+003,1.465740e+002
1.518716e+003,1.474308e+002
1.519680e+003,1.432887e+002
1.520644e+003,1.398610e+002
1.521609e+003,1.406208e+002
1.522573e+003,1.429440e+002
1.523537e+003,1.437008e+002
1.524501e+003,1.428010e+002
1.525465e+003,1.421008e+002
1.526430e+003,1.425531e+002
1.527394e+003,1.430378e+002
1.528358e+003,1.418042e+002
1.529322e+003,1.390575e+002
1.530287e+003,1.385033e+002
1.531251e+003,1.430691e+002
1.532215e+003,1.442368e+002
1.533179e+003,1.374027e+002
1.534144e+003,1.328471e+002
1.535108e+003,1.367586e+002
1.536072e+003,1.431888e+002
1.537036e+003,1.461383e+002
1.538000e+003,1.454220e+002
1.538965e+003,1.433911e+002
1.539929e+003,1.411907e+002
1.540893e+003,1.387451e+002
1.541857e+003,1.358991e+002
1.542822e+003,1.332906e+002
1.543786e+003,1.332629e+002
1.544750e+003,1.371388e+002
1.545714e+003,1.386032e+002
1.546679e+003,1.359163e+002
1.547643e+003,1.331459e+002
1.548607e+003,1.317418e+002
1.549571e+003,1.309044e+002
1.550536e+003,1.292357e+002
1.551500e+003,1.272825e+002
1.552464e+003,1.272557e+002
1.553428e+003,1.297717e+002
1.554392e+003,1.326237e+002
1.555357e+003,1.341507e+002
1.556321e+003,1.341414e+002
1.557285e+003,1.317369e+002
1.558249e+003,1.272331e+002
1.559214e+003,1.247622e+002
1.560178e+003,1.252161e+002
1.561142e+003,1.254724e+002
1.562106e+003,1.239720e+002
1.563071e+003,1.221140e+002
1.564035e+003,1.211522e+002
1.564999e+003,1.210172e+002
1.565963e+003,1.215119e+002
1.566927e+003,1.224622e+002
1.567892e+003,1.226342e+002
1.568856e+003,1.212327e+002
1.569820e+003,1.194415e+002
1.570784e+003,1.187433e+002
1.571749e+003,1.185883e+002
1.572713e+003,1.175417e+002
1.573677e+003,1.156911e+002
1.574641e+003,1.143517e+002
1.575606e+003,1.139388e+002
1.576570e+003,1.138478e+002
1.577534e+003,1.140998e+002
1.578498e+003,1.142623e+002
1.579463e+003,1.130409e+002
1.580427e+003,1.105217e+002
1.581391e+003,1.091384e+002
1.582355e+003,1.100323e+002
1.583319e+003,1.103079e+002
1.584284e+003,1.072086e+002
1.585248e+003,1.035052e+002
1.586212e+003,1.029184e+002
1.587176e+003,1.041152e+002
1.588141e+003,1.037684e+002
1.589105e+003,1.013343e+002
1.590069e+003,9.877913e+001
1.591033e+003,9.699062e+001
1.591998e+003,9.599279e+001
1.592962e+003,9.638371e+001
1.593926e+003,9.772976e+001
1.594890e+003,9.755669e+001
1.595854e+003,9.545138e+001
1.596819e+003,9.336123e+001
1.597783e+003,9.149306e+001
1.598747e+003,9.040344e+001
1.599711e+003,9.142233e+001
1.600676e+003,9.281590e+001
1.601640e+003,9.227517e+001
1.602604e+003,9.013512e+001
1.603568e+003,8.846310e+001
1.604533e+003,8.803485e+001
1.605497e+003,8.766704e+001
1.606461e+003,8.607676e+001
1.607425e+003,8.377594e+001
1.608390e+003,8.215350e+001
1.609354e+003,8.130239e+001
1.610318e+003,8.073223e+001
1.611282e+003,8.020061e+001
1.612246e+003,7.991056e+001
1.613211e+003,8.041135e+001
1.614175e+003,8.075167e+001
1.615139e+003,8.039811e+001
1.616103e+003,7.953645e+001
1.617068e+003,7.836195e+001
1.618032e+003,7.693709e+001
1.618996e+003,7.527195e+001
1.619960e+003,7.325206e+001
1.620925e+003,7.132626e+001
1.621889e+003,7.050913e+001
1.622853e+003,7.053021e+001
1.623817e+003,6.918396e+001
1.624781e+003,6.611809e+001
1.625746e+003,6.443748e+001
1.626710e+003,6.602034e+001
1.627674e+003,6.674025e+001
1.628638e+003,6.327161e+001
1.629603e+003,5.921516e+001
1.630567e+003,5.766442e+001
1.631531e+003,5.796377e+001
1.632495e+003,5.860597e+001
1.633460e+003,5.905098e+001
1.634424e+003,5.848115e+001
1.635388e+003,5.602135e+001
1.636352e+003,5.295777e+001
1.637317e+003,5.184129e+001
1.638281e+003,5.250473e+001
1.639245e+003,5.236756e+001
1.640209e+003,5.094062e+001
1.641173e+003,5.040775e+001
1.642138e+003,5.284598e+001
1.643102e+003,5.417599e+001
1.644066e+003,5.113428e+001
1.645030e+003,4.710404e+001
1.645995e+003,4.549635e+001
1.646959e+003,4.575041e+001
1.647923e+003,4.553869e+001
1.648887e+003,4.417712e+001
1.649852e+003,4.301931e+001
1.650816e+003,4.333816e+001
1.651780e+003,4.419610e+001
1.652744e+003,4.336225e+001
1.653708e+003,4.092023e+001
1.654673e+003,3.970193e+001
1.655637e+003,4.028534e+001
1.656601e+003,4.047398e+001
1.657565e+003,3.931425e+001
1.658530e+003,3.808955e+001
1.659494e+003,3.723852e+001
1.660458e+003,3.684116e+001
1.661422e+003,3.768654e+001
1.662387e+003,3.902050e+001
1.663351e+003,3.849654e+001
1.664315e+003,3.540087e+001
1.665279e+003,3.191252e+001
1.666244e+003,2.974997e+001
1.667208e+003,2.861379e+001
1.668172e+003,2.801104e+001
1.669136e+003,2.787983e+001
1.670100e+003,2.761306e+001
1.671065e+003,2.703670e+001
1.672029e+003,2.684908e+001
1.672993e+003,2.772910e+001
1.673957e+003,2.854125e+001
1.674922e+003,2.845927e+001
1.675886e+003,2.792248e+001
1.676850e+003,2.758055e+001
1.677814e+003,2.724759e+001
1.678779e+003,2.595055e+001
1.679743e+003,2.337674e+001
1.680707e+003,2.112088e+001
1.681671e+003,2.052565e+001
1.682635e+003,2.085601e+001
1.683600e+003,2.089339e+001
1.684564e+003,2.072966e+001
1.685528e+003,2.079522e+001
1.686492e+003,2.109890e+001
1.687457e+003,2.136679e+001
1.688421e+003,2.152663e+001
1.689385e+003,2.170456e+001
1.690349e+003,2.240563e+001
1.691314e+003,2.297389e+001
1.692278e+003,2.251576e+001
1.693242e+003,2.112095e+001
1.694206e+003,1.917505e+001
1.695171e+003,1.667317e+001
1.696135e+003,1.481180e+001
1.697099e+003,1.474097e+001
1.698063e+003,1.529000e+001
1.699027e+003,1.488844e+001
1.699992e+003,1.391421e+001
1.700956e+003,1.343993e+001
1.701920e+003,1.355582e+001
1.702884e+003,1.405907e+001
1.703849e+003,1.506216e+001
1.704813e+003,1.568514e+001
1.705777e+003,1.510809e+001
1.706741e+003,1.390679e+001
1.707706e+003,1.302092e+001
1.708670e+003,1.237433e+001
1.709634e+003,1.147677e+001
1.710598e+003,1.014109e+001
1.711563e+003,9.254886e+000
1.712527e+003,9.437076e+000
1.713491e+003,9.932004e+000
1.714455e+003,1.025830e+001
1.715419e+003,1.044069e+001
1.716384e+003,1.075767e+001
1.717348e+003,1.100948e+001
1.718312e+003,9.783682e+000
1.719276e+003,6.625381e+000
1.720241e+003,4.599515e+000
1.721205e+003,6.254361e+000
1.722169e+003,9.194803e+000
1.723133e+003,9.521909e+000
1.724098e+003,7.617685e+000
1.725062e+003,6.338678e+000
1.726026e+003,5.698462e+000
1.726990e+003,5.329638e+000
1.727954e+003,5.309241e+000
1.728919e+003,5.378241e+000
1.729883e+003,5.455167e+000
1.730847e+003,5.557910e+000
1.731811e+003,5.773767e+000
1.732776e+003,6.005325e+000
1.733740e+003,6.096570e+000
1.734704e+003,5.988986e+000
1.735668e+003,5.608530e+000
1.736633e+003,4.906256e+000
1.737597e+003,3.911423e+000
1.738561e+003,2.591226e+000
1.739525e+003,1.234497e+000
1.740490e+003,1.155267e+000
1.741454e+003,2.849564e+000
1.742418e+003,3.858072e+000
1.743382e+003,3.718454e+000
1.744346e+003,3.607242e+000
1.745311e+003,3.829965e+000
1.746275e+003,3.985251e+000
1.747239e+003,3.563718e+000
1.748203e+003,3.164300e+000
1.749168e+003,3.983475e+000
1.750132e+003,5.477622e+000
1.751096e+003,5.658343e+000
1.752060e+003,3.915231e+000
1.753025e+003,1.886618e+000
1.753989e+003,1.086917e+000
1.754953e+003,1.172882e+000
1.755917e+003,1.463144e+000
1.756881e+003,1.966644e+000
1.757846e+003,1.676483e+000
1.758810e+003,-6.535950e-002
1.759774e+003,-5.814484e-001
1.760738e+003,1.715717e+000
1.761703e+003,3.499762e+000
1.762667e+003,3.289420e+000
1.763631e+003,2.426224e+000
1.764595e+003,2.091632e+000
1.765560e+003,1.904959e+000
1.766524e+003,6.391022e-001
1.767488e+003,-1.605038e+000
1.768452e+003,-2.921750e+000
1.769417e+003,-2.224310e+000
1.770381e+003,-8.404144e-001
1.771345e+003,-1.351685e-001
1.772309e+003,5.325317e-002
1.773273e+003,1.418610e-001
1.774238e+003,1.004242e-001
1.775202e+003,-2.885010e-001
1.776166e+003,-1.126376e+000
1.777130e+003,-1.599222e+000
1.778095e+003,-1.302225e+000
1.779059e+003,-6.746918e-001
1.780023e+003,2.499329e-001
1.780987e+003,1.006293e+000
1.781952e+003,5.273682e-001
1.782916e+003,-9.081879e-001
1.783880e+003,-1.631595e+000
1.784844e+003,-1.286121e+000
1.785808e+003,-5.482513e-001
1.786773e+003,9.634979e-001
1.787737e+003,2.028943e+000
1.788701e+003,9.879669e-001
1.789665e+003,-6.426910e-001
1.790630e+003,-2.031738e-001
1.791594e+003,1.728653e+000
1.792558e+003,2.476901e+000
1.793522e+003,1.403339e+000
1.794487e+003,-6.429444e-002
1.795451e+003,-1.060318e+000
1.796415e+003,-1.436880e+000
1.797379e+003,-8.990723e-001
1.798344e+003,2.279968e-001
1.799308e+003,4.316681e-001
1.800272e+003,-6.897705e-001
1.801236e+003,-1.297665e+000
1.802201e+003,-7.230285e-001
1.803165e+003,-5.972717e-001
1.804129e+003,-2.024341e+000
1.805093e+003,-2.933017e+000
1.806057e+003,-1.403571e+000
1.807022e+003,5.948089e-001
1.807986e+003,6.346253e-001
1.808950e+003,-7.924560e-001
1.809914e+003,-1.862231e+000
1.810879e+003,-2.005969e+000
1.811843e+003,-1.803952e+000
1.812807e+003,-1.672314e+000
1.813771e+003,-1.753174e+000
1.814736e+003,-2.379965e+000
1.815700e+003,-3.347110e+000
1.816664e+003,-3.518826e+000
1.817628e+003,-2.837665e+000
1.818593e+003,-2.000488e+000
1.819557e+003,-7.760498e-001
1.820521e+003,-1.940308e-001
1.821485e+003,-9.676788e-001
1.822449e+003,-2.083572e+000
1.823414e+003,-3.125546e+000
1.824378e+003,-3.928134e+000
1.825342e+003,-4.347778e+000
1.826306e+003,-4.268365e+000
1.827271e+003,-3.082867e+000
1.828235e+003,-4.876984e-001
1.829199e+003,1.280505e+000
1.830163e+003,6.817230e-001
1.831128e+003,-6.413177e-001
1.832092e+003,-1.828213e+000
1.833056e+003,-2.524252e+000
1.834020e+003,-1.811398e+000
1.834984e+003,-1.434723e-001
1.835949e+003,1.118317e+000
1.836913e+003,1.643008e+000
1.837877e+003,1.221890e+000
1.838841e+003,-3.490173e-001
1.839806e+003,-1.674612e+000
1.840770e+003,-1.100943e+000
1.841734e+003,7.072357e-001
1.842698e+003,1.863065e+000
1.843663e+003,2.437442e+000
1.844627e+003,2.117587e+000
1.845591e+003,-5.036041e-001
1.846555e+003,-1.834689e+000
1.847520e+003,-8.584625e-001
1.848484e+003,1.329498e-001
1.849448e+003,3.374298e-001
1.850412e+003,2.570221e-001
1.851376e+003,2.921509e-001
1.852341e+003,3.702911e-001
1.853305e+003,2.912262e-001
1.854269e+003,1.210937e-002
1.855233e+003,-5.663422e-001
1.856198e+003,-1.417654e+000
1.857162e+003,-1.531754e+000
1.858126e+003,4.465149e-001
1.859090e+003,3.187351e+000
1.860055e+003,3.723672e+000
1.861019e+003,2.414575e+000
1.861983e+003,1.671753e+000
1.862947e+003,1.646292e+000
1.863911e+003,1.809811e+000
1.864876e+003,2.153894e+000
1.865840e+003,2.240643e+000
1.866804e+003,1.635681e+000
1.867768e+003,9.283905e-001
1.868733e+003,6.919464e-001
1.869697e+003,8.840119e-001
1.870661e+003,1.466711e+000
1.871625e+003,2.441659e+000
1.872590e+003,3.491455e+000
1.873554e+003,4.798911e+000
1.874518e+003,5.779349e+000
1.875482e+003,6.141891e+000
1.876447e+003,6.314563e+000
1.877411e+003,7.003467e+000
1.878375e+003,7.299643e+000
1.879339e+003,5.273383e+000
1.880303e+003,2.239334e+000
1.881268e+003,1.384915e+000
1.882232e+003,3.003595e+000
1.883196e+003,4.675708e+000
1.884160e+003,5.080801e+000
1.885125e+003,4.903537e+000
1.886089e+003,4.826065e+000
1.887053e+003,4.947348e+000
1.888017e+003,5.927841e+000
1.888982e+003,7.813788e+000
1.889946e+003,7.795816e+000
1.890910e+003,5.323929e+000
1.891874e+003,3.793540e+000
1.892839e+003,4.107413e+000
1.893803e+003,4.660821e+000
1.894767e+003,4.495203e+000
1.895731e+003,4.613339e+000
1.896695e+003,6.791354e+000
1.897660e+003,9.407285e+000
1.898624e+003,9.289740e+000
1.899588e+003,6.733667e+000
1.900552e+003,5.078827e+000
1.901517e+003,4.994037e+000
1.902481e+003,5.544065e+000
1.903445e+003,6.913241e+000
1.904409e+003,8.184711e+000
1.905374e+003,8.708155e+000
1.906338e+003,8.908093e+000
1.907302e+003,9.271973e+000
1.908266e+003,9.608462e+000
1.909230e+003,9.355484e+000
1.910195e+003,8.597608e+000
1.911159e+003,8.269473e+000
1.912123e+003,8.706326e+000
1.913087e+003,8.594625e+000
1.914052e+003,6.596231e+000
1.915016e+003,3.929419e+000
1.915980e+003,3.257230e+000
1.916944e+003,4.407306e+000
1.917909e+003,4.954550e+000
1.918873e+003,4.800504e+000
1.919837e+003,4.788629e+000
1.920801e+003,5.091913e+000
1.921766e+003,5.194131e+000
1.922730e+003,4.553360e+000
1.923694e+003,4.127512e+000
1.924658e+003,5.126242e+000
1.925622e+003,6.401404e+000
1.926587e+003,6.257092e+000
1.927551e+003,5.224020e+000
1.928515e+003,5.420636e+000
1.929479e+003,7.255286e+000
1.930444e+003,8.065659e+000
1.931408e+003,6.140436e+000
1.932372e+003,4.452670e+000
1.933336e+003,4.442004e+000
1.934301e+003,5.157245e+000
1.935265e+003,6.170724e+000
1.936229e+003,7.194379e+000
1.937193e+003,7.965875e+000
1.938157e+003,8.386477e+000
1.939122e+003,8.195508e+000
1.940086e+003,7.524292e+000
1.941050e+003,7.299576e+000
1.942014e+003,8.036865e+000
1.942979e+003,8.705472e+000
1.943943e+003,7.947568e+000
1.944907e+003,6.503213e+000
1.945871e+003,6.640457e+000
1.946836e+003,8.277774e+000
1.947800e+003,9.070700e+000
1.948764e+003,8.873770e+000
1.949728e+003,7.968604e+000
1.950693e+003,5.933816e+000
1.951657e+003,5.085715e+000
1.952621e+003,7.349988e+000
1.953585e+003,9.722504e+000
1.954549e+003,9.076059e+000
1.955514e+003,6.699561e+000
1.956478e+003,5.002402e+000
1.957442e+003,4.027014e+000
1.958406e+003,4.722800e+000
1.959371e+003,8.134872e+000
1.960335e+003,1.027731e+001
1.961299e+003,9.939242e+000
1.962263e+003,9.247540e+000
1.963228e+003,8.392313e+000
1.964192e+003,7.981421e+000
1.965156e+003,9.064032e+000
1.966120e+003,1.034990e+001
1.967084e+003,9.830664e+000
1.968049e+003,8.242902e+000
1.969013e+003,7.792642e+000
1.969977e+003,8.926971e+000
1.970941e+003,1.054345e+001
1.971906e+003,1.210038e+001
1.972870e+003,1.292752e+001
1.973834e+003,1.186960e+001
1.974798e+003,1.006629e+001
1.975763e+003,9.471326e+000
1.976727e+003,9.724124e+000
1.977691e+003,1.000642e+001
1.978655e+003,1.014987e+001
1.979620e+003,9.443540e+000
1.980584e+003,7.830145e+000
1.981548e+003,7.089310e+000
1.982512e+003,8.170923e+000
1.983476e+003,9.746033e+000
1.984441e+003,1.051083e+001
1.985405e+003,1.063915e+001
1.986369e+003,1.055840e+001
1.987333e+003,1.029683e+001
1.988298e+003,9.401245e+000
1.989262e+003,6.978457e+000
1.990226e+003,6.437512e+000
1.991190e+003,9.392926e+000
1.992155e+003,1.150589e+001
1.993119e+003,1.131612e+001
1.994083e+003,1.056168e+001
1.995047e+003,9.564306e+000
1.996011e+003,8.854553e+000
1.996976e+003,9.383868e+000
1.997940e+003,1.055898e+001
1.998904e+003,1.074834e+001
1.999868e+003,9.870935e+000
2.000833e+003,9.743561e+000
2.001797e+003,1.126331e+001
2.002761e+003,1.233147e+001
2.003725e+003,1.181355e+001
2.004690e+003,1.097653e+001
2.005654e+003,1.032156e+001
2.006618e+003,1.003016e+001
2.007582e+003,1.056360e+001
2.008547e+003,1.142085e+001
2.009511e+003,1.169088e+001
2.010475e+003,1.143090e+001
2.011439e+003,1.152103e+001
2.012403e+003,1.213444e+001
2.013368e+003,1.203582e+001
2.014332e+003,1.023632e+001
2.015296e+003,8.440845e+000
2.016260e+003,9.169046e+000
2.017225e+003,1.139705e+001
2.018189e+003,1.303770e+001
2.019153e+003,1.400841e+001
2.020117e+003,1.364616e+001
2.021082e+003,1.213048e+001
2.022046e+003,1.175690e+001
2.023010e+003,1.310065e+001
2.023974e+003,1.394783e+001
2.024938e+003,1.301977e+001
2.025903e+003,1.167692e+001
2.026867e+003,1.134852e+001
2.027831e+003,1.164395e+001
2.028795e+003,1.164698e+001
2.029760e+003,1.141908e+001
2.030724e+003,1.171634e+001
2.031688e+003,1.305536e+001
2.032652e+003,1.261193e+001
2.033617e+003,9.068598e+000
2.034581e+003,6.652899e+000
2.035545e+003,7.039206e+000
2.036509e+003,7.812100e+000
2.037474e+003,6.924603e+000
2.038438e+003,6.359818e+000
2.039402e+003,9.282071e+000
2.040366e+003,1.375348e+001
2.041330e+003,1.541867e+001
2.042295e+003,1.426705e+001
2.043259e+003,1.255901e+001
2.044223e+003,9.767779e+000
2.045187e+003,8.377652e+000
2.046152e+003,1.008654e+001
2.047116e+003,1.154212e+001
2.048080e+003,1.115246e+001
2.049044e+003,1.038245e+001
2.050009e+003,1.055663e+001
2.050973e+003,1.081914e+001
2.051937e+003,9.596066e+000
2.052901e+003,7.709280e+000
2.053865e+003,7.426627e+000
2.054830e+003,8.843969e+000
2.055794e+003,9.555624e+000
2.056758e+003,8.413382e+000
2.057722e+003,7.518982e+000
2.058687e+003,8.857840e+000
2.059651e+003,1.065271e+001
2.060615e+003,1.138532e+001
2.061579e+003,1.126959e+001
2.062544e+003,1.002130e+001
2.063508e+003,8.524078e+000
2.064472e+003,8.663574e+000
2.065436e+003,1.021709e+001
2.066401e+003,1.161361e+001
2.067365e+003,1.225098e+001
2.068329e+003,1.227416e+001
2.069293e+003,1.179877e+001
2.070258e+003,1.103826e+001
2.071222e+003,1.019418e+001
2.072186e+003,9.392319e+000
2.073150e+003,8.811453e+000
2.074115e+003,8.488052e+000
2.075079e+003,8.665014e+000
2.076043e+003,9.259717e+000
2.077007e+003,9.865616e+000
2.077971e+003,1.044048e+001
2.078936e+003,1.081736e+001
2.079900e+003,1.091897e+001
2.080864e+003,1.066904e+001
2.081828e+003,9.989904e+000
2.082792e+003,9.192795e+000
2.083757e+003,8.692102e+000
2.084721e+003,8.484198e+000
2.085685e+003,8.630636e+000
2.086649e+003,9.169058e+000
2.087614e+003,9.599536e+000
2.088578e+003,9.935452e+000
2.089542e+003,1.010220e+001
2.090506e+003,1.002766e+001
2.091471e+003,9.757090e+000
2.092435e+003,9.074102e+000
2.093399e+003,8.881384e+000
2.094363e+003,9.960605e+000
2.095328e+003,1.159013e+001
2.096292e+003,1.310050e+001
2.097256e+003,1.420126e+001
2.098220e+003,1.376920e+001
2.099185e+003,1.160779e+001
2.100149e+003,1.062128e+001
2.101113e+003,1.122479e+001
2.102077e+003,1.213226e+001
2.103042e+003,1.438649e+001
2.104006e+003,1.538521e+001
2.104970e+003,1.385621e+001
2.105934e+003,1.180399e+001
2.106898e+003,9.406225e+000
2.107863e+003,7.716254e+000
2.108827e+003,8.452621e+000
2.109791e+003,1.051419e+001
2.110755e+003,1.129742e+001
2.111719e+003,1.070920e+001
2.112684e+003,1.068070e+001
2.113648e+003,1.192982e+001
2.114612e+003,1.255078e+001
2.115576e+003,1.137826e+001
2.116541e+003,1.053119e+001
2.117505e+003,1.092343e+001
2.118469e+003,1.171807e+001
2.119433e+003,1.276425e+001
2.120398e+003,1.363373e+001
2.121362e+003,1.365927e+001
2.122326e+003,1.326208e+001
2.123290e+003,1.348350e+001
2.124255e+003,1.423600e+001
2.125219e+003,1.426809e+001
2.126183e+003,1.314687e+001
2.127147e+003,1.218480e+001
2.128112e+003,1.186160e+001
2.129076e+003,1.212288e+001
2.130040e+003,1.373565e+001
2.131004e+003,1.498427e+001
2.131969e+003,1.409412e+001
2.132933e+003,1.238870e+001
2.133897e+003,1.068248e+001
2.134861e+003,9.895889e+000
2.135825e+003,1.235243e+001
2.136790e+003,1.680548e+001
2.137754e+003,1.820386e+001
2.138718e+003,1.524635e+001
2.139682e+003,1.239738e+001
2.140646e+003,1.214083e+001
2.141611e+003,1.292585e+001
2.142575e+003,1.424995e+001
2.143539e+003,1.509797e+001
2.144503e+003,1.399923e+001
2.145468e+003,1.224751e+001
2.146432e+003,1.147544e+001
2.147396e+003,1.146086e+001
2.148360e+003,1.143178e+001
2.149325e+003,1.140790e+001
2.150289e+003,1.214042e+001
2.151253e+003,1.363499e+001
2.152217e+003,1.466995e+001
2.153182e+003,1.457793e+001
2.154146e+003,1.393939e+001
2.155110e+003,1.298266e+001
2.156074e+003,1.223591e+001
2.157039e+003,1.250970e+001
2.158003e+003,1.324519e+001
2.158967e+003,1.371914e+001
2.159931e+003,1.395022e+001
2.160896e+003,1.379967e+001
2.161860e+003,1.355228e+001
2.162824e+003,1.420630e+001
2.163788e+003,1.577343e+001
2.164752e+003,1.710784e+001
2.165717e+003,1.759344e+001
2.166681e+003,1.716256e+001
2.167645e+003,1.557514e+001
2.168609e+003,1.384954e+001
2.169573e+003,1.369435e+001
2.170538e+003,1.424678e+001
2.171502e+003,1.371267e+001
2.172466e+003,1.250158e+001
2.173430e+003,1.164057e+001
2.174395e+003,1.118725e+001
2.175359e+003,1.088731e+001
2.176323e+003,1.069941e+001
2.177287e+003,1.071433e+001
2.178252e+003,1.097287e+001
2.179216e+003,1.164503e+001
2.180180e+003,1.288323e+001
2.181144e+003,1.403684e+001
2.182109e+003,1.420410e+001
2.183073e+003,1.381856e+001
2.184037e+003,1.387580e+001
2.185001e+003,1.402567e+001
2.185966e+003,1.314695e+001
2.186930e+003,1.167449e+001
2.187894e+003,1.082064e+001
2.188858e+003,1.082396e+001
2.189823e+003,1.220046e+001
2.190787e+003,1.465607e+001
2.191751e+003,1.574097e+001
2.192715e+003,1.426105e+001
2.193679e+003,1.220599e+001
2.194644e+003,1.135533e+001
2.195608e+003,1.137890e+001
2.196572e+003,1.222612e+001
2.197536e+003,1.330141e+001
2.198500e+003,1.274100e+001
2.199465e+003,1.131472e+001
2.200429e+003,1.155197e+001
2.201393e+003,1.310576e+001
2.202357e+003,1.387277e+001
2.203322e+003,1.352657e+001
2.204286e+003,1.277716e+001
2.205250e+003,1.203949e+001
2.206214e+003,1.213399e+001
2.207179e+003,1.362550e+001
2.208143e+003,1.480175e+001
2.209107e+003,1.324929e+001
2.210071e+003,1.092420e+001
2.211036e+003,1.184044e+001
2.212000e+003,1.453361e+001
2.212964e+003,1.552325e+001
2.213928e+003,1.510736e+001
2.214893e+003,1.430498e+001
2.215857e+003,1.355108e+001
2.216821e+003,1.363336e+001
2.217785e+003,1.462086e+001
2.218750e+003,1.594730e+001
2.219714e+003,1.727402e+001
2.220678e+003,1.813274e+001
2.221642e+003,1.813109e+001
2.222606e+003,1.791335e+001
2.223571e+003,1.799112e+001
2.224535e+003,1.865461e+001
2.225499e+003,2.118478e+001
2.226463e+003,2.431330e+001
2.227427e+003,2.498325e+001
2.228392e+003,2.405019e+001
2.229356e+003,2.431530e+001
2.230320e+003,2.580275e+001
2.231284e+003,2.667581e+001
2.232249e+003,2.655417e+001
2.233213e+003,2.670121e+001
2.234177e+003,2.780344e+001
2.235141e+003,2.971312e+001
2.236106e+003,3.254919e+001
2.237070e+003,3.535611e+001
2.238034e+003,3.660623e+001
2.238998e+003,3.733883e+001
2.239963e+003,3.914236e+001
2.240927e+003,4.149504e+001
2.241891e+003,4.346824e+001
2.242855e+003,4.519603e+001
2.243820e+003,4.686507e+001
2.244784e+003,4.878451e+001
2.245748e+003,5.189319e+001
2.246712e+003,5.619334e+001
2.247677e+003,6.017287e+001
2.248641e+003,6.310513e+001
2.249605e+003,6.498737e+001
2.250569e+003,6.539594e+001
2.251533e+003,6.529502e+001
2.252498e+003,6.540505e+001
2.253462e+003,6.558763e+001
2.254426e+003,6.620736e+001
2.255390e+003,6.645824e+001
2.256354e+003,6.489780e+001
2.257319e+003,6.229027e+001
2.258283e+003,6.046554e+001
2.259247e+003,5.924273e+001
2.260211e+003,5.678033e+001
2.261176e+003,5.273500e+001
2.262140e+003,4.902917e+001
2.263104e+003,4.661425e+001
2.264068e+003,4.399616e+001
2.265033e+003,3.973824e+001
2.265997e+003,3.584335e+001
2.266961e+003,3.359396e+001
2.267925e+003,3.205124e+001
2.268890e+003,3.088915e+001
2.269854e+003,2.966108e+001
2.270818e+003,2.781548e+001
2.271782e+003,2.571969e+001
2.272747e+003,2.412343e+001
2.273711e+003,2.292052e+001
2.274675e+003,2.127175e+001
2.275639e+003,1.900273e+001
2.276604e+003,1.724119e+001
2.277568e+003,1.628700e+001
2.278532e+003,1.585342e+001
2.279496e+003,1.648815e+001
2.280460e+003,1.662490e+001
2.281425e+003,1.536423e+001
2.282389e+003,1.386779e+001
2.283353e+003,1.259099e+001
2.284317e+003,1.170229e+001
2.285281e+003,1.180235e+001
2.286246e+003,1.209086e+001
2.287210e+003,1.063776e+001
2.288174e+003,7.951834e+000
2.289138e+003,7.600058e+000
2.290103e+003,1.041787e+001
2.291067e+003,1.165370e+001
2.292031e+003,1.064493e+001
2.292995e+003,9.315359e+000
2.293960e+003,6.864310e+000
2.294924e+003,5.725165e+000
2.295888e+003,7.403598e+000
2.296852e+003,8.734509e+000
2.297817e+003,7.878937e+000
2.298781e+003,6.671014e+000
2.299745e+003,6.948617e+000
2.300709e+003,7.635379e+000
2.301674e+003,6.705817e+000
2.302638e+003,4.563721e+000
2.303602e+003,3.294946e+000
2.304566e+003,2.879388e+000
2.305531e+003,3.410468e+000
2.306495e+003,5.099225e+000
2.307459e+003,6.583835e+000
2.308423e+003,7.771976e+000
2.309387e+003,8.150393e+000
2.310352e+003,7.553439e+000
2.311316e+003,6.285675e+000
2.312280e+003,4.444720e+000
2.313244e+003,3.313608e+000
2.314208e+003,3.980417e+000
2.315173e+003,5.450421e+000
2.316137e+003,6.502222e+000
2.317101e+003,6.764908e+000
2.318065e+003,4.266595e+000
2.319030e+003,3.128479e-001
2.319994e+003,9.550446e-001
2.320958e+003,4.868845e+000
2.321922e+003,6.468094e+000
2.322887e+003,5.589951e+000
2.323851e+003,4.234408e+000
2.324815e+003,3.004675e+000
2.325779e+003,1.954022e+000
2.326744e+003,1.195572e+000
2.327708e+003,1.369110e+000
2.328672e+003,2.909421e+000
2.329636e+003,3.963690e+000
2.330601e+003,2.374615e+000
2.331565e+003,1.627167e-001
2.332529e+003,-8.049072e-001
2.333493e+003,-7.451569e-001
2.334458e+003,1.350354e+000
2.335422e+003,3.280017e+000
2.336386e+003,8.848907e-001
2.337350e+003,-3.156162e+000
2.338314e+003,-3.211212e+000
2.339279e+003,-2.107971e-001
2.340243e+003,7.526032e-001
2.341207e+003,-1.178213e+000
2.342171e+003,-2.841702e+000
2.343135e+003,-3.224841e+000
2.344100e+003,-3.292304e+000
2.345064e+003,-3.198541e+000
2.346028e+003,-3.181293e+000
2.346992e+003,-3.403616e+000
2.347957e+003,-3.557669e+000
2.348921e+003,-3.460571e+000
2.349885e+003,-3.298859e+000
2.350849e+003,-3.383014e+000
2.351814e+003,-3.393039e+000
2.352778e+003,-2.784314e+000
2.353742e+003,-1.813190e+000
2.354706e+003,-8.525604e-001
2.355671e+003,2.486878e-002
2.356635e+003,-7.494446e-001
2.357599e+003,-4.009842e+000
2.358563e+003,-5.306085e+000
2.359528e+003,-3.727948e+000
2.360492e+003,-3.402835e+000
2.361456e+003,-5.368176e+000
2.362420e+003,-5.897955e+000
2.363385e+003,-3.497565e+000
2.364349e+003,-1.738879e+000
2.365313e+003,-2.646371e+000
2.366277e+003,-3.860495e+000
2.367241e+003,-3.145282e+000
2.368206e+003,-1.963245e+000
2.369170e+003,-2.814453e+000
2.370134e+003,-4.738489e+000
2.371098e+003,-4.680808e+000
2.372063e+003,-3.270709e+000
2.373027e+003,-3.268399e+000
2.373991e+003,-4.211661e+000
2.374955e+003,-4.169589e+000
2.375919e+003,-3.302145e+000
2.376884e+003,-2.961328e+000
2.377848e+003,-3.329474e+000
2.378812e+003,-3.651773e+000
2.379776e+003,-3.710706e+000
2.380741e+003,-4.259598e+000
2.381705e+003,-5.751035e+000
2.382669e+003,-6.562027e+000
2.383633e+003,-5.078467e+000
2.384598e+003,-3.172019e+000
2.385562e+003,-2.001041e+000
2.386526e+003,-1.468625e+000
2.387490e+003,-1.871521e+000
2.388455e+003,-2.394250e+000
2.389419e+003,-2.122760e+000
2.390383e+003,-1.602634e+000
2.391347e+003,-1.896338e+000
2.392312e+003,-2.519104e+000
2.393276e+003,-1.793469e+000
2.394240e+003,5.005493e-002
2.395204e+003,3.977051e-002
2.396168e+003,-2.771491e+000
2.397133e+003,-4.363403e+000
2.398097e+003,-3.934390e+000
2.399061e+003,-3.458145e+000
2.400025e+003,-2.873422e+000
2.400990e+003,-2.622528e+000
2.401954e+003,-3.067560e+000
2.402918e+003,-3.122803e+000
2.403882e+003,-2.069736e+000
2.404846e+003,-1.251526e+000
2.405811e+003,-1.888821e+000
2.406775e+003,-2.704217e+000
2.407739e+003,-1.788177e+000
2.408703e+003,-9.169312e-002
2.409668e+003,-2.692566e-001
2.410632e+003,-1.905759e+000
2.411596e+003,-3.161777e+000
2.412560e+003,-3.959067e+000
2.413525e+003,-3.527322e+000
2.414489e+003,-2.246771e+000
2.415453e+003,-1.862164e+000
2.416417e+003,-2.358981e+000
2.417382e+003,-2.559091e+000
2.418346e+003,-2.168872e+000
2.419310e+003,-1.594437e+000
2.420274e+003,-1.037161e+000
2.421239e+003,-5.435883e-001
2.422203e+003,-3.109436e-002
2.423167e+003,3.753967e-002
2.424131e+003,-1.263913e+000
2.425095e+003,-2.312781e+000
2.426060e+003,-1.891895e+000
2.427024e+003,-9.994354e-001
2.427988e+003,3.737488e-002
2.428952e+003,7.359131e-001
2.429917e+003,4.174682e-001
2.430881e+003,-3.061188e-001
2.431845e+003,-5.668793e-001
2.432809e+003,-4.382996e-001
2.433773e+003,-2.800781e-001
2.434738e+003,-8.752441e-002
2.435702e+003,1.363800e-001
2.436666e+003,2.899963e-001
2.437630e+003,9.716644e-001
2.438595e+003,2.424814e+000
2.439559e+003,3.116678e+000
2.440523e+003,2.709708e+000
2.441487e+003,3.030844e+000
2.442452e+003,4.650733e+000
2.443416e+003,5.880203e+000
2.444380e+003,5.865857e+000
2.445344e+003,4.849957e+000
2.446309e+003,2.964652e+000
2.447273e+003,1.574976e+000
2.448237e+003,2.606128e+000
2.449201e+003,4.825760e+000
2.450166e+003,6.694656e+000
2.451130e+003,8.029505e+000
2.452094e+003,8.452655e+000
2.453058e+003,8.118708e+000
2.454022e+003,6.831024e+000
2.454987e+003,5.262167e+000
2.455951e+003,4.687457e+000
2.456915e+003,4.795032e+000
2.457879e+003,4.123682e+000
2.458844e+003,2.790042e+000
2.459808e+003,2.917819e+000
2.460772e+003,5.213840e+000
2.461736e+003,6.778464e+000
2.462700e+003,6.276688e+000
2.463665e+003,6.162515e+000
2.464629e+003,7.341165e+000
2.465593e+003,7.973477e+000
2.466557e+003,7.475122e+000
2.467522e+003,6.743744e+000
2.468486e+003,6.027637e+000
2.469450e+003,5.543414e+000
2.470414e+003,5.459543e+000
2.471379e+003,5.714539e+000
2.472343e+003,6.257379e+000
2.473307e+003,6.826932e+000
2.474271e+003,6.843707e+000
2.475236e+003,6.550973e+000
2.476200e+003,6.713717e+000
2.477164e+003,7.250549e+000
2.478128e+003,8.173505e+000
2.479093e+003,9.168711e+000
2.480057e+003,9.340701e+000
2.481021e+003,8.855014e+000
2.481985e+003,8.239252e+000
2.482949e+003,7.798105e+000
2.483914e+003,8.040631e+000
2.484878e+003,8.978281e+000
2.485842e+003,9.696567e+000
2.486806e+003,9.827228e+000
2.487771e+003,1.001532e+001
2.488735e+003,1.082327e+001
2.489699e+003,1.120306e+001
2.490663e+003,9.715955e+000
2.491627e+003,9.406598e+000
2.492592e+003,1.286400e+001
2.493556e+003,1.539973e+001
2.494520e+003,1.419757e+001
2.495484e+003,1.242156e+001
2.496449e+003,1.262125e+001
2.497413e+003,1.379437e+001
2.498377e+003,1.465095e+001
2.499341e+003,1.500730e+001
2.500306e+003,1.418088e+001
2.501270e+003,1.252704e+001
2.502234e+003,1.149674e+001
2.503198e+003,1.107057e+001
2.504163e+003,1.131133e+001
2.505127e+003,1.203544e+001
2.506091e+003,1.296731e+001
2.507055e+003,1.390035e+001
2.508020e+003,1.430710e+001
2.508984e+003,1.433748e+001
2.509948e+003,1.491255e+001
2.510912e+003,1.622851e+001
2.511876e+003,1.726738e+001
2.512841e+003,1.748652e+001
2.513805e+003,1.811716e+001
2.514769e+003,2.022844e+001
2.515733e+003,2.171065e+001
2.516698e+003,2.128600e+001
2.517662e+003,2.123079e+001
2.518626e+003,2.283770e+001
2.519590e+003,2.400750e+001
2.520554e+003,2.317083e+001
2.521519e+003,2.269994e+001
2.522483e+003,2.481121e+001
2.523447e+003,2.776533e+001
2.524411e+003,2.912794e+001
2.525376e+003,2.935443e+001
2.526340e+003,2.908301e+001
2.527304e+003,2.868177e+001
2.528268e+003,2.945615e+001
2.529233e+003,3.119729e+001
2.530197e+003,3.379811e+001
2.531161e+003,3.668938e+001
2.532125e+003,3.876924e+001
2.533090e+003,4.006714e+001
2.534054e+003,4.088781e+001
2.535018e+003,4.154321e+001
2.535982e+003,4.268618e+001
2.536947e+003,4.441578e+001
2.537911e+003,4.580766e+001
2.538875e+003,4.647931e+001
2.539839e+003,4.723647e+001
2.540803e+003,4.820381e+001
2.541768e+003,4.922921e+001
2.542732e+003,5.044300e+001
2.543696e+003,5.116178e+001
2.544660e+003,5.105302e+001
2.545625e+003,5.163583e+001
2.546589e+003,5.373787e+001
2.547553e+003,5.526942e+001
2.548517e+003,5.452724e+001
2.549482e+003,5.366064e+001
2.550446e+003,5.546528e+001
2.551410e+003,5.760682e+001
2.552374e+003,5.580969e+001
2.553339e+003,5.257867e+001
2.554303e+003,5.129731e+001
2.555267e+003,5.117693e+001
2.556231e+003,5.179412e+001
2.557196e+003,5.232919e+001
2.558160e+003,5.194747e+001
2.559124e+003,5.068536e+001
2.560088e+003,4.842847e+001
2.561052e+003,4.566592e+001
2.562017e+003,4.357104e+001
2.562981e+003,4.218124e+001
2.563945e+003,4.157363e+001
2.564909e+003,4.202282e+001
2.565874e+003,4.164495e+001
2.566838e+003,4.038446e+001
2.567802e+003,3.896523e+001
2.568766e+003,3.746594e+001
2.569730e+003,3.616057e+001
2.570695e+003,3.503939e+001
2.571659e+003,3.346901e+001
2.572623e+003,3.131110e+001
2.573587e+003,2.936814e+001
2.574552e+003,2.810664e+001
2.575516e+003,2.711181e+001
2.576480e+003,2.615954e+001
2.577444e+003,2.520457e+001
2.578409e+003,2.377717e+001
2.579373e+003,2.270553e+001
2.580337e+003,2.351304e+001
2.581301e+003,2.359305e+001
2.582266e+003,2.022973e+001
2.583230e+003,1.718639e+001
2.584194e+003,1.737418e+001
2.585158e+003,1.837434e+001
2.586123e+003,1.799918e+001
2.587087e+003,1.664329e+001
2.588051e+003,1.474428e+001
2.589015e+003,1.280512e+001
2.589979e+003,1.258911e+001
2.590944e+003,1.358325e+001
2.591908e+003,1.393783e+001
2.592872e+003,1.376151e+001
2.593836e+003,1.310407e+001
2.594801e+003,1.231592e+001
2.595765e+003,1.226325e+001
2.596729e+003,1.256283e+001
2.597693e+003,1.216098e+001
2.598657e+003,1.100205e+001
2.599622e+003,9.406591e+000
2.600586e+003,7.486023e+000
2.601550e+003,6.538705e+000
2.602514e+003,7.251782e+000
2.603479e+003,7.490967e+000
2.604443e+003,7.208441e+000
2.605407e+003,6.426025e+000
2.606371e+003,5.037521e+000
2.607336e+003,4.090182e+000
2.608300e+003,3.812631e+000
2.609264e+003,3.784400e+000
2.610228e+003,3.842291e+000
2.611193e+003,4.401407e+000
2.612157e+003,5.677112e+000
2.613121e+003,6.794684e+000
2.614085e+003,7.178253e+000
2.615050e+003,6.669336e+000
2.616014e+003,4.085050e+000
2.616978e+003,2.001212e+000
2.617942e+003,2.365384e+000
2.618906e+003,3.460797e+000
2.619871e+003,5.294397e+000
2.620835e+003,6.125137e+000
2.621799e+003,3.794971e+000
2.622763e+003,1.252307e+000
2.623728e+003,1.358914e+000
2.624692e+003,2.603360e+000
2.625656e+003,2.568695e+000
2.626620e+003,1.869037e+000
2.627584e+003,2.154510e+000
2.628549e+003,3.171378e+000
2.629513e+003,4.744895e+000
2.630477e+003,5.971957e+000
2.631441e+003,3.738681e+000
2.632406e+003,3.064423e-001
2.633370e+003,5.882202e-001
2.634334e+003,3.062210e+000
2.635298e+003,3.789038e+000
2.636263e+003,2.757300e+000
2.637227e+003,1.726685e+000
2.638191e+003,1.001254e+000
2.639155e+003,1.139868e+000
2.640120e+003,2.472702e+000
2.641084e+003,2.404953e+000
2.642048e+003,4.651886e-001
2.643012e+003,-3.858948e-002
2.643977e+003,1.129980e+000
2.644941e+003,1.930826e+000
2.645905e+003,2.029922e+000
2.646869e+003,1.724326e+000
2.647833e+003,1.224649e+000
2.648798e+003,1.310764e+000
2.649762e+003,2.177969e+000
2.650726e+003,2.294522e+000
2.651690e+003,6.631439e-001
2.652655e+003,-7.240082e-001
2.653619e+003,-8.157379e-001
2.654583e+003,-6.873077e-001
2.655547e+003,-1.009244e+000
2.656511e+003,-4.260162e-001
2.657476e+003,2.109924e+000
2.658440e+003,3.704114e+000
2.659404e+003,3.091656e+000
2.660368e+003,1.497247e+000
2.661333e+003,-3.340973e-001
2.662297e+003,-1.435403e+000
2.663261e+003,-8.084229e-001
2.664225e+003,3.010529e-001
2.665190e+003,3.269501e-001
2.666154e+003,-5.086365e-002
2.667118e+003,-4.906067e-001
2.668082e+003,-3.794189e-001
2.669047e+003,1.888171e+000
2.670011e+003,3.757712e+000
2.670975e+003,1.673587e+000
2.671939e+003,-8.351685e-001
2.672904e+003,9.486877e-001
2.673868e+003,3.955414e+000
2.674832e+003,3.784555e+000
2.675796e+003,1.612677e+000
2.676760e+003,4.064148e-001
2.677725e+003,-7.180176e-002
2.678689e+003,-1.036334e+000
2.679653e+003,-1.886545e+000
2.680617e+003,8.207397e-002
2.681582e+003,2.880872e+000
2.682546e+003,1.757675e+000
2.683510e+003,-1.357230e+000
2.684474e+003,-2.188373e+000
2.685438e+003,-1.117065e+000
2.686403e+003,-3.942963e-001
2.687367e+003,-2.893463e-001
2.688331e+003,-5.504333e-001
2.689295e+003,-1.145773e+000
2.690260e+003,-5.152588e-001
2.691224e+003,1.561502e+000
2.692188e+003,2.835068e+000
2.693152e+003,3.226898e+000
2.694117e+003,2.569376e+000
2.695081e+003,1.170804e+000
2.696045e+003,4.219421e-001
2.697009e+003,4.738953e-001
2.697974e+003,5.729828e-001
2.698938e+003,5.530121e-001
2.699902e+003,1.033572e+000
2.700866e+003,2.289316e+000
2.701831e+003,2.683618e+000
2.702795e+003,1.521317e+000
2.703759e+003,-1.986298e-001
2.704723e+003,-3.410590e+000
2.705688e+003,-3.874426e+000
2.706652e+003,-4.734955e-001
2.707616e+003,1.063770e+000
2.708580e+003,-6.455323e-001
2.709544e+003,-2.527811e+000
2.710509e+003,-3.235443e+000
2.711473e+003,-2.777792e+000
2.712437e+003,-1.198053e+000
2.713401e+003,2.816223e-001
2.714365e+003,1.094925e+000
2.715330e+003,1.033408e+000
2.716294e+003,-8.624908e-001
2.717258e+003,-2.333466e+000
2.718222e+003,-2.120517e+000
2.719187e+003,-2.124927e+000
2.720151e+003,-3.340622e+000
2.721115e+003,-3.449640e+000
2.722079e+003,-1.126941e+000
2.723044e+003,7.285126e-001
2.724008e+003,-8.706665e-002
2.724972e+003,-9.619781e-001
2.725936e+003,9.975983e-001
2.726901e+003,3.249121e+000
2.727865e+003,2.829800e+000
2.728829e+003,1.655399e+000
2.729793e+003,1.060919e+000
2.730758e+003,5.595368e-001
2.731722e+003,-6.335510e-001
2.732686e+003,-1.318509e+000
2.733650e+003,-2.997742e-001
2.734615e+003,9.283661e-001
2.735579e+003,1.144199e+000
2.736543e+003,7.351227e-001
2.737507e+003,1.483978e-001
2.738471e+003,-3.880188e-001
2.739436e+003,-4.139069e-001
2.740400e+003,-1.497376e-001
2.741364e+003,1.116669e-001
2.742328e+003,3.703339e-001
2.743292e+003,6.498718e-001
2.744257e+003,9.067078e-001
2.745221e+003,1.314160e+000
2.746185e+003,1.471164e+000
2.747149e+003,5.565125e-001
2.748114e+003,-5.622101e-001
2.749078e+003,-5.116638e-001
2.750042e+003,1.383575e-001
2.751006e+003,-2.899078e-001
2.751971e+003,-1.262903e+000
2.752935e+003,-6.147125e-001
2.753899e+003,7.358795e-001
2.754863e+003,6.938507e-001
2.755828e+003,-5.993652e-003
2.756792e+003,-4.970703e-002
2.757756e+003,1.566620e-001
2.758720e+003,-1.448547e-001
2.759685e+003,-8.963806e-001
2.760649e+003,-2.226700e+000
2.761613e+003,-3.476257e+000
2.762577e+003,-2.518390e+000
2.763542e+003,2.121002e-001
2.764506e+003,1.594717e+000
2.765470e+003,1.847638e+000
2.766434e+003,2.158850e+000
2.767398e+003,2.312241e+000
2.768363e+003,1.301212e+000
2.769327e+003,-2.964447e-001
2.770291e+003,-1.542615e+000
2.771255e+003,-1.970703e+000
2.772219e+003,-2.516602e-001
2.773184e+003,2.773962e+000
2.774148e+003,2.677231e+000
2.775112e+003,-3.211761e-001
2.776076e+003,-1.967310e+000
2.777041e+003,-2.231113e+000
2.778005e+003,-1.086853e+000
2.778969e+003,9.342102e-001
2.779933e+003,6.421143e-001
2.780898e+003,-1.215527e+000
2.781862e+003,-1.867642e+000
2.782826e+003,-1.355597e+000
2.783790e+003,-9.312622e-001
2.784755e+003,-7.717010e-001
2.785719e+003,-5.848663e-001
2.786683e+003,-2.961334e-001
2.787647e+003,4.663788e-001
2.788612e+003,1.820584e+000
2.789576e+003,2.299753e+000
2.790540e+003,1.934381e+000
2.791504e+003,1.212100e+000
2.792469e+003,3.521881e-001
2.793433e+003,7.702027e-002
2.794397e+003,2.492920e-001
2.795361e+003,8.604737e-002
2.796325e+003,-3.543152e-001
2.797290e+003,-1.637268e-002
2.798254e+003,1.199383e+000
2.799218e+003,1.094311e+000
2.800182e+003,-8.579407e-001
2.801146e+003,-1.742569e+000
2.802111e+003,-1.492352e+000
2.803075e+003,8.404846e-002
2.804039e+003,2.636844e+000
2.805003e+003,3.319574e+000
2.805968e+003,2.085562e+000
2.806932e+003,7.585754e-002
2.807896e+003,-1.882208e+000
2.808860e+003,-2.395847e+000
2.809825e+003,-1.367422e+000
2.810789e+003,-4.277252e-001
2.811753e+003,1.144745e-001
2.812717e+003,2.960510e-001
2.813682e+003,-3.724060e-002
2.814646e+003,1.595123e-001
2.815610e+003,9.012879e-001
2.816574e+003,1.445084e+000
2.817539e+003,1.649027e+000
2.818503e+003,1.232413e+000
2.819467e+003,3.224457e-001
2.820431e+003,-7.061096e-001
2.821396e+003,-1.499472e+000
2.822360e+003,-9.750488e-001
2.823324e+003,1.231519e+000
2.824288e+003,2.969803e+000
2.825252e+003,4.446619e+000
2.826217e+003,3.671457e+000
2.827181e+003,5.652191e-001
2.828145e+003,-2.143433e-001
2.829109e+003,1.211255e+000
2.830073e+003,1.633139e+000
2.831038e+003,8.441742e-001
2.832002e+003,4.928986e-001
2.832966e+003,7.479919e-001
2.833930e+003,2.474762e-001
2.834895e+003,-1.316830e+000
2.835859e+003,-1.571051e+000
2.836823e+003,-8.063050e-002
2.837787e+003,1.397153e+000
2.838752e+003,2.927652e+000
2.839716e+003,3.215842e+000
2.840680e+003,2.399573e+000
2.841644e+003,2.043698e+000
2.842609e+003,2.021030e+000
2.843573e+003,6.847626e-001
2.844537e+003,-1.570297e+000
2.845501e+003,-2.163187e+000
2.846466e+003,-7.372955e-001
2.847430e+003,2.221741e-001
2.848394e+003,5.059723e-001
2.849358e+003,-1.714478e-001
2.850323e+003,-1.916126e+000
2.851287e+003,-2.020773e+000
2.852251e+003,-6.578797e-001
2.853215e+003,7.551972e-001
2.854179e+003,1.859802e+000
2.855144e+003,2.279852e+000
2.856108e+003,2.021802e+000
2.857072e+003,1.258325e+000
2.858036e+003,1.292328e-001
2.859000e+003,-1.070902e+000
2.859965e+003,-2.332501e+000
2.860929e+003,-2.218811e+000
2.861893e+003,-7.232758e-001
2.862857e+003,6.116516e-001
2.863822e+003,1.692505e+000
2.864786e+003,1.626025e+000
2.865750e+003,1.045737e+000
2.866714e+003,2.349072e+000
2.867679e+003,4.481058e+000
2.868643e+003,3.860269e+000
2.869607e+003,9.062530e-001
2.870571e+003,-6.337891e-001
2.871536e+003,-6.767761e-001
2.872500e+003,7.383178e-001
2.873464e+003,3.430594e+000
2.874428e+003,3.523358e+000
2.875393e+003,1.675946e+000
2.876357e+003,-6.506042e-001
2.877321e+003,-2.523508e+000
2.878285e+003,-2.197354e+000
2.879250e+003,-3.615662e-001
2.880214e+003,2.141403e+000
2.881178e+003,4.302392e+000
2.882142e+003,3.831250e+000
2.883106e+003,1.520526e+000
2.884071e+003,2.095825e-001
2.885035e+003,-5.603027e-002
2.885999e+003,1.723853e+000
2.886963e+003,4.252561e+000
2.887927e+003,4.299802e+000
2.888892e+003,2.966501e+000
2.889856e+003,1.728174e+000
2.890820e+003,8.283722e-001
2.891784e+003,4.673523e-001
2.892749e+003,3.465057e-001
2.893713e+003,-9.549866e-002
2.894677e+003,-4.426422e-001
2.895641e+003,3.888092e-001
2.896606e+003,1.772232e+000
2.897570e+003,1.801178e+000
2.898534e+003,1.404205e+000
2.899498e+003,2.231772e+000
2.900463e+003,3.336316e+000
2.901427e+003,3.925644e+000
2.902391e+003,3.832874e+000
2.903355e+003,2.623938e+000
2.904320e+003,1.115924e+000
2.905284e+003,3.837891e-002
2.906248e+003,-6.045929e-001
2.907212e+003,-7.760437e-001
2.908177e+003,-4.542603e-001
2.909141e+003,9.701874e-001
2.910105e+003,2.130408e+000
2.911069e+003,9.803222e-001
2.912033e+003,-3.251160e-001
2.912998e+003,-1.154755e-001
2.913962e+003,6.751922e-001
2.914926e+003,1.763342e+000
2.915890e+003,2.066113e+000
2.916854e+003,7.074493e-001
2.917819e+003,-7.534943e-001
2.918783e+003,-7.893006e-001
2.919747e+003,-6.844177e-002
2.920711e+003,1.441516e+000
2.921676e+003,2.355820e+000
2.922640e+003,1.052881e+000
2.923604e+003,1.119446e-001
2.924568e+003,8.726593e-001
2.925533e+003,1.296228e+000
2.926497e+003,5.560669e-001
2.927461e+003,1.450409e-001
2.928425e+003,1.005328e+000
2.929390e+003,6.981598e-001
2.930354e+003,-3.192661e+000
2.931318e+003,-6.113303e+000
2.932282e+003,-3.900885e+000
2.933247e+003,-2.079593e+000
2.934211e+003,-1.755298e+000
2.935175e+003,-9.700989e-001
2.936139e+003,1.461121e-001
2.937104e+003,1.092194e+000
2.938068e+003,1.796008e+000
2.939032e+003,1.864270e+000
2.939996e+003,1.336765e+000
2.940960e+003,1.547208e+000
2.941925e+003,2.956241e+000
2.942889e+003,3.146979e+000
2.943853e+003,7.395538e-001
2.944817e+003,-8.494629e-001
2.945781e+003,-1.513660e+000
2.946746e+003,-1.207498e+000
2.947710e+003,-6.524353e-002
2.948674e+003,6.973969e-001
2.949638e+003,9.531463e-001
2.950603e+003,7.618347e-001
2.951567e+003,4.319214e-001
2.952531e+003,8.375885e-001
2.953495e+003,2.084027e+000
2.954460e+003,3.759897e+000
2.955424e+003,5.845880e+000
2.956388e+003,4.142774e+000
2.957352e+003,-6.721161e-001
2.958317e+003,-1.682172e+000
2.959281e+003,7.107238e-002
2.960245e+003,1.863538e+000
2.961209e+003,3.068240e+000
2.962174e+003,2.918872e+000
2.963138e+003,2.028665e+000
2.964102e+003,1.712347e+000
2.965066e+003,1.913229e+000
2.966031e+003,2.490057e+000
2.966995e+003,3.227609e+000
2.967959e+003,3.465604e+000
2.968923e+003,3.276553e+000
2.969887e+003,2.687503e+000
2.970852e+003,1.926953e+000
2.971816e+003,9.890229e-001
2.972780e+003,3.566345e-001
2.973744e+003,8.104218e-001
2.974708e+003,1.343991e+000
2.975673e+003,1.117966e+000
2.976637e+003,5.452453e-001
2.977601e+003,-6.625366e-003
2.978565e+003,-8.372192e-002
2.979530e+003,1.626941e+000
2.980494e+003,3.129456e+000
2.981458e+003,2.398083e+000
2.982422e+003,1.591760e+000
2.983387e+003,2.260284e+000
2.984351e+003,1.945334e+000
2.985315e+003,-3.641419e-001
2.986279e+003,-2.461493e+000
2.987244e+003,-3.194440e+000
2.988208e+003,-2.475394e+000
2.989172e+003,-1.216614e-001
2.990136e+003,1.282886e+000
2.991101e+003,-5.934814e-001
2.992065e+003,-1.830853e+000
2.993029e+003,-1.645367e+000
2.993993e+003,-6.768707e-001
2.994958e+003,1.063593e+000
2.995922e+003,1.905399e+000
2.996886e+003,1.604501e+000
2.997850e+003,3.680908e-001
2.998814e+003,-1.217249e+000
2.999779e+003,-5.132049e-001
3.000743e+003,3.108978e+000
3.001707e+003,4.013232e+000
3.002671e+003,1.321115e+000
3.003635e+003,5.065491e-001
3.004600e+003,1.389490e+000
3.005564e+003,9.915344e-001
3.006528e+003,-2.127350e-001
3.007492e+003,-1.931885e-001
3.008457e+003,7.025665e-001
3.009421e+003,1.261273e+000
3.010385e+003,1.521976e+000
3.011349e+003,2.297394e+000
3.012314e+003,3.018863e+000
3.013278e+003,1.770212e+000
3.014242e+003,-4.459991e-001
3.015206e+003,-6.137695e-002
3.016171e+003,1.439578e+000
3.017135e+003,1.781238e+000
3.018099e+003,1.533020e+000
3.019063e+003,1.131338e+000
3.020028e+003,8.089997e-001
3.020992e+003,6.262177e-001
3.021956e+003,7.780151e-001
3.022920e+003,1.449854e+000
3.023885e+003,2.317544e+000
3.024849e+003,3.312164e+000
3.025813e+003,3.356427e+000
3.026777e+003,2.882294e-001
3.027741e+003,-2.297470e+000
3.028706e+003,-2.416840e+000
3.029670e+003,-1.846555e+000
3.030634e+003,-8.308533e-001
3.031598e+003,-1.835205e-001
3.032563e+003,-1.566559e-001
3.033527e+003,7.945251e-002
3.034491e+003,8.908569e-001
3.035455e+003,2.035715e+000
3.036420e+003,3.669620e+000
3.037384e+003,3.734543e+000
3.038348e+003,1.032294e+000
3.039312e+003,-5.385284e-001
3.040277e+003,-8.985168e-001
3.041241e+003,-1.572665e+000
3.042205e+003,-2.419916e+000
3.043169e+003,-1.933469e+000
3.044134e+003,-4.871033e-001
3.045098e+003,1.591339e-001
3.046062e+003,-3.073120e-003
3.047026e+003,4.140625e-001
3.047990e+003,1.299371e+000
3.048955e+003,1.952863e+000
3.049919e+003,2.208356e+000
3.050883e+003,6.983246e-001
3.051847e+003,-1.154669e+000
3.052812e+003,-7.165161e-001
3.053776e+003,6.392609e-001
3.054740e+003,1.763013e+000
3.055704e+003,1.810648e+000
3.056668e+003,-2.215881e-001
3.057633e+003,-1.908856e+000
3.058597e+003,-4.743866e-001
3.059561e+003,1.671680e+000
3.060525e+003,1.707788e+000
3.061490e+003,6.798828e-001
3.062454e+003,-2.020648e+000
3.063418e+003,-3.088397e+000
3.064382e+003,-3.745056e-001
3.065347e+003,1.244977e+000
3.066311e+003,4.298035e-001
3.067275e+003,9.666137e-002
3.068239e+003,1.246350e+000
3.069204e+003,1.829285e+000
3.070168e+003,8.956116e-001
3.071132e+003,-4.207794e-001
3.072096e+003,-2.315768e+000
3.073061e+003,-2.423834e+000
3.074025e+003,-5.109711e-001
3.074989e+003,7.900788e-001
3.075953e+003,1.239554e+000
3.076917e+003,2.534668e-001
3.077882e+003,-1.350729e+000
3.078846e+003,-1.146137e+000
3.079810e+003,3.200043e-001
3.080774e+003,1.462372e-001
3.081739e+003,-1.044528e+000
3.082703e+003,-1.092917e+000
3.083667e+003,-3.039246e-001
3.084631e+003,7.151764e-001
3.085595e+003,1.529984e+000
3.086560e+003,1.238202e+000
3.087524e+003,6.435608e-001
3.088488e+003,5.643371e-001
3.089452e+003,4.593933e-001
3.090417e+003,-8.436890e-002
3.091381e+003,-5.964874e-001
3.092345e+003,-7.233429e-001
3.093309e+003,-4.289947e-001
3.094274e+003,4.789398e-001
3.095238e+003,1.213150e+000
3.096202e+003,1.269418e+000
3.097166e+003,1.086102e+000
3.098131e+003,5.617248e-001
3.099095e+003,8.277344e-001
3.100059e+003,1.948993e+000
3.101023e+003,1.573761e+000
3.101988e+003,-2.904633e-001
3.102952e+003,-4.110993e-001
3.103916e+003,1.759998e+000
3.104880e+003,2.539227e+000
3.105844e+003,1.475421e+000
3.106809e+003,1.178589e-002
3.107773e+003,-1.806036e+000
3.108737e+003,-3.839584e+000
3.109701e+003,-5.504883e+000
3.110666e+003,-4.961823e+000
3.111630e+003,-3.368671e+000
3.112594e+003,-2.255524e+000
3.113558e+003,-2.016510e+000
3.114522e+003,-3.178763e+000
3.115487e+003,-4.205380e+000
3.116451e+003,-2.684790e+000
3.117415e+003,-5.665802e-001
3.118379e+003,-5.027466e-001
3.119344e+003,-1.366641e+000
3.120308e+003,-3.101739e+000
3.121272e+003,-4.289523e+000
3.122236e+003,-4.578674e+000
3.123201e+003,-3.584842e+000
3.124165e+003,-1.251224e+000
3.125129e+003,1.016785e-001
3.126093e+003,-4.093079e-001
3.127058e+003,-1.315241e+000
3.128022e+003,-2.117477e+000
3.128986e+003,-1.878738e+000
3.129950e+003,-2.477112e-002
3.130915e+003,7.645447e-001
3.131879e+003,5.330566e-001
3.132843e+003,-1.050919e+000
3.133807e+003,-2.846109e+000
3.134771e+003,-8.601990e-001
3.135736e+003,2.747568e+000
3.136700e+003,2.061862e+000
3.137664e+003,-1.054248e+000
3.138628e+003,-2.536783e+000
3.139593e+003,-2.930240e+000
3.140557e+003,-3.594540e+000
3.141521e+003,-3.823834e+000
3.142485e+003,-1.906970e+000
3.143449e+003,1.120026e-001
3.144414e+003,1.230908e+000
3.145378e+003,6.084503e-001
3.146342e+003,-2.540002e+000
3.147306e+003,-4.135583e+000
3.148271e+003,-2.346323e+000
3.149235e+003,-3.497467e-001
3.150199e+003,9.857788e-002
3.151163e+003,-1.429535e-001
3.152128e+003,-1.082883e+000
3.153092e+003,-1.596548e+000
3.154056e+003,-1.624084e+000
3.155020e+003,-1.804745e+000
3.155985e+003,-2.129825e+000
3.156949e+003,-2.319006e+000
3.157913e+003,-2.257870e+000
3.158877e+003,-1.637817e+000
3.159842e+003,-8.749970e-001
3.160806e+003,-1.227609e+000
3.161770e+003,-1.939169e+000
3.162734e+003,-5.879028e-001
3.163698e+003,1.301331e+000
3.164663e+003,-1.956390e-001
3.165627e+003,-2.274280e+000
3.166591e+003,-1.827847e+000
3.167555e+003,-1.092511e+000
3.168520e+003,-1.502972e+000
3.169484e+003,-1.566666e+000
3.170448e+003,-5.728912e-001
3.171412e+003,-3.995422e-001
3.172376e+003,-2.152551e+000
3.173341e+003,-3.329108e+000
3.174305e+003,-2.202200e+000
3.175269e+003,-1.769803e+000
3.176233e+003,-2.398291e+000
3.177198e+003,-3.236350e+000
3.178162e+003,-4.154149e+000
3.179126e+003,-4.920639e+000
3.180090e+003,-5.181143e+000
3.181055e+003,-3.662033e+000
3.182019e+003,-1.281223e+000
3.182983e+003,-7.299469e-001
3.183947e+003,-1.423267e+000
3.184912e+003,-2.039249e+000
3.185876e+003,-2.388693e+000
3.186840e+003,-1.603476e+000
3.187804e+003,-8.946899e-001
3.188769e+003,-1.750397e+000
3.189733e+003,-2.890094e+000
3.190697e+003,-3.818988e+000
3.191661e+003,-4.139648e+000
3.192625e+003,-3.684422e+000
3.193590e+003,-2.988638e+000
3.194554e+003,-2.349936e+000
3.195518e+003,-2.031045e+000
3.196482e+003,-2.394357e+000
3.197447e+003,-1.894647e+000
3.198411e+003,-2.124085e-001
3.199375e+003,5.447205e-001
3.200339e+003,4.382385e-001
3.201303e+003,2.085114e-001
3.202268e+003,-5.202026e-002
3.203232e+003,-5.765289e-001
3.204196e+003,-1.054065e+000
3.205160e+003,-8.548431e-001
3.206125e+003,-2.126312e-001
3.207089e+003,6.525726e-001
3.208053e+003,1.103265e+000
3.209017e+003,-7.481995e-001
3.209982e+003,-2.465652e+000
3.210946e+003,-1.807660e+000
3.211910e+003,-5.735321e-001
3.212874e+003,7.172821e-001
3.213839e+003,1.521341e+000
3.214803e+003,1.630576e+000
3.215767e+003,7.848114e-001
3.216731e+003,-9.519593e-001
3.217696e+003,-2.052557e+000
3.218660e+003,-1.950806e+000
3.219624e+003,-1.506430e+000
3.220588e+003,-7.174713e-001
3.221552e+003,2.303925e-001
3.222517e+003,9.894134e-001
3.223481e+003,1.523315e-001
3.224445e+003,-1.338171e+000
3.225409e+003,-1.806576e+000
3.226374e+003,-1.636581e+000
3.227338e+003,-1.391153e+000
3.228302e+003,-1.326956e+000
3.229266e+003,-1.901373e+000
3.230230e+003,-2.120691e+000
3.231195e+003,2.638855e-001
3.232159e+003,1.460654e+000
3.233123e+003,-1.422916e+000
3.234087e+003,-3.252060e+000
3.235052e+003,-3.267073e+000
3.236016e+003,-2.224280e+000
3.236980e+003,-7.856933e-001
3.237944e+003,-1.257501e+000
3.238909e+003,-3.667421e+000
3.239873e+003,-4.040027e+000
3.240837e+003,-2.393541e+000
3.241801e+003,-6.762604e-001
3.242766e+003,7.654999e-001
3.243730e+003,5.652771e-002
3.244694e+003,-1.414676e+000
3.245658e+003,-1.673880e+000
3.246623e+003,-1.699081e+000
3.247587e+003,-2.536476e+000
3.248551e+003,-3.016234e+000
3.249515e+003,-2.371138e+000
3.250479e+003,-1.834097e+000
3.251444e+003,-2.431346e+000
3.252408e+003,-2.601334e+000
3.253372e+003,-5.971497e-001
3.254336e+003,-2.317505e-001
3.255301e+003,-1.829675e+000
3.256265e+003,-2.445071e+000
3.257229e+003,-2.074528e+000
3.258193e+003,-2.003610e+000
3.259157e+003,-2.228058e+000
3.260122e+003,-2.085179e+000
3.261086e+003,-1.678990e+000
3.262050e+003,-1.357318e+000
3.263014e+003,-1.209674e+000
3.263979e+003,-1.697992e+000
3.264943e+003,-2.122453e+000
3.265907e+003,-9.748200e-001
3.266871e+003,-5.275238e-001
3.267836e+003,-2.900166e+000
3.268800e+003,-3.444672e+000
3.269764e+003,-8.751190e-001
3.270728e+003,1.321838e-001
3.271693e+003,-1.825008e+000
3.272657e+003,-2.812065e+000
3.273621e+003,-1.417810e+000
3.274585e+003,-6.929382e-001
3.275550e+003,-8.102570e-001
3.276514e+003,-5.431183e-001
3.277478e+003,-1.364136e-002
3.278442e+003,7.824157e-001
3.279406e+003,1.230011e+000
3.280371e+003,-4.697876e-002
3.281335e+003,-1.511745e+000
3.282299e+003,-1.884013e+000
3.283263e+003,-1.362007e+000
3.284228e+003,-4.580383e-002
3.285192e+003,1.292246e+000
3.286156e+003,2.577805e+000
3.287120e+003,2.383102e+000
3.288084e+003,-3.593597e-001
3.289049e+003,-1.206206e+000
3.290013e+003,-2.968750e-002
3.290977e+003,3.782562e-001
3.291941e+003,-1.647095e-001
3.292906e+003,-7.659180e-001
3.293870e+003,-1.064684e+000
3.294834e+003,-5.394409e-001
3.295798e+003,2.825836e-001
3.296763e+003,-2.492950e-001
3.297727e+003,-1.153459e+000
3.298691e+003,-5.523682e-001
3.299655e+003,1.624207e-001
3.300620e+003,-4.026276e-001
3.301584e+003,-4.399353e-001
3.302548e+003,5.932007e-001
3.303512e+003,1.104398e+000
3.304477e+003,5.598785e-001
3.305441e+003,-4.588379e-001
3.306405e+003,-1.754794e+000
3.307369e+003,-1.500272e+000
3.308333e+003,3.963653e-001
3.309298e+003,1.806808e+000
3.310262e+003,2.689658e+000
3.311226e+003,2.399536e+000
3.312190e+003,1.941931e+000
3.313155e+003,3.136817e+000
3.314119e+003,4.296793e+000
3.315083e+003,4.043381e+000
3.316047e+003,3.380975e+000
3.317011e+003,3.107483e+000
3.317976e+003,3.050012e+000
3.318940e+003,3.287131e+000
3.319904e+003,3.113971e+000
3.320868e+003,2.348444e+000
3.321833e+003,1.628061e+000
3.322797e+003,1.195874e+000
3.323761e+003,2.665488e+000
3.324725e+003,5.005362e+000
3.325690e+003,4.813968e+000
3.326654e+003,3.318268e+000
3.327618e+003,3.957269e+000
3.328582e+003,5.278058e+000
3.329547e+003,4.418457e+000
3.330511e+003,2.887002e+000
3.331475e+003,2.378150e+000
3.332439e+003,1.744748e+000
3.333404e+003,2.125519e-001
3.334368e+003,-1.539429e-001
3.335332e+003,9.906433e-001
3.336296e+003,2.101630e+000
3.337260e+003,2.656647e+000
3.338225e+003,2.839456e+000
3.339189e+003,2.606323e+000
3.340153e+003,1.415329e+000
3.341117e+003,-4.230118e-001
3.342082e+003,-1.403744e+000
3.343046e+003,-1.600418e+000
3.344010e+003,-3.767288e-001
3.344974e+003,5.757904e-001
3.345938e+003,-2.974808e-001
3.346903e+003,-7.898544e-001
3.347867e+003,1.219147e-001
3.348831e+003,8.487976e-001
3.349795e+003,5.124024e-001
3.350760e+003,3.311859e-001
3.351724e+003,8.178864e-001
3.352688e+003,9.945221e-001
3.353652e+003,9.745178e-001
3.354617e+003,2.277466e+000
3.355581e+003,3.776044e+000
3.356545e+003,2.196994e+000
3.357509e+003,2.391357e-002
3.358474e+003,8.561188e-001
3.359438e+003,2.392459e+000
3.360402e+003,2.466592e+000
3.361366e+003,2.038959e+000
3.362331e+003,1.875720e+000
3.363295e+003,1.678574e+000
3.364259e+003,1.263528e+000
3.365223e+003,1.164984e+000
3.366188e+003,1.377921e+000
3.367152e+003,7.993225e-001
3.368116e+003,-2.125610e-001
3.369080e+003,5.352783e-002
3.370044e+003,1.030807e+000
3.371009e+003,8.203644e-001
3.371973e+003,-2.242889e-002
3.372937e+003,-5.599991e-001
3.373901e+003,-9.159546e-001
3.374865e+003,-1.660110e+000
3.375830e+003,-1.398358e+000
3.376794e+003,1.020560e+000
3.377758e+003,1.746179e+000
3.378722e+003,2.177811e-001
3.379687e+003,-1.089947e+000
3.380651e+003,-1.403307e+000
3.381615e+003,-5.091645e-001
3.382579e+003,1.219949e+000
3.383544e+003,1.715485e+000
3.384508e+003,1.315085e+000
3.385472e+003,8.879120e-001
3.386436e+003,7.495545e-001
3.387401e+003,1.452615e+000
3.388365e+003,2.323022e+000
3.389329e+003,3.071609e+000
3.390293e+003,3.506931e+000
3.391258e+003,3.595511e+000
3.392222e+003,3.959451e+000
3.393186e+003,4.867020e+000
3.394150e+003,4.413553e+000
3.395115e+003,2.324664e+000
3.396079e+003,3.714658e+000
3.397043e+003,6.910403e+000
3.398007e+003,6.040347e+000
3.398971e+003,4.177423e+000
3.399936e+003,6.318079e+000
3.400900e+003,8.598755e+000
3.401864e+003,8.549680e+000
3.402828e+003,7.886844e+000
3.403792e+003,7.771683e+000
3.404757e+003,7.997943e+000
3.405721e+003,8.326230e+000
3.406685e+003,9.639606e+000
3.407649e+003,1.189866e+001
3.408614e+003,1.297653e+001
3.409578e+003,1.331987e+001
3.410542e+003,1.475395e+001
3.411506e+003,1.592180e+001
3.412471e+003,1.374978e+001
3.413435e+003,1.279521e+001
3.414399e+003,1.789148e+001
3.415363e+003,2.289199e+001
3.416328e+003,2.101041e+001
3.417292e+003,1.921452e+001
3.418256e+003,1.993911e+001
3.419220e+003,2.061269e+001
3.420185e+003,2.109583e+001
3.421149e+003,2.183870e+001
3.422113e+003,2.251309e+001
3.423077e+003,2.196068e+001
3.424042e+003,2.074751e+001
3.425006e+003,2.005545e+001
3.425970e+003,1.983139e+001
3.426934e+003,2.032540e+001
