7.140112e+001,1.600289e+002
7.236536e+001,1.558621e+002
7.332959e+001,1.573763e+002
7.429382e+001,1.620906e+002
7.525806e+001,1.711027e+002
7.622229e+001,1.745581e+002
7.718652e+001,1.654056e+002
7.815076e+001,1.370059e+002
7.911499e+001,1.164635e+002
8.007922e+001,9.963344e+001
8.104346e+001,9.006844e+001
8.200769e+001,9.190141e+001
8.297192e+001,1.136920e+002
8.393616e+001,1.376684e+002
8.490039e+001,1.659025e+002
8.586462e+001,1.925625e+002
8.682886e+001,2.085918e+002
8.779310e+001,1.944783e+002
8.875733e+001,1.690667e+002
8.972157e+001,1.401788e+002
9.068580e+001,1.118358e+002
9.165003e+001,8.597390e+001
9.261427e+001,7.530619e+001
9.357850e+001,7.502141e+001
9.454273e+001,7.841505e+001
9.550697e+001,8.131157e+001
9.647120e+001,8.447382e+001
9.743543e+001,8.402683e+001
9.839967e+001,7.844971e+001
9.936390e+001,7.066046e+001
1.003281e+002,6.386929e+001
1.012924e+002,5.748545e+001
1.022566e+002,5.376775e+001
1.032208e+002,5.400562e+001
1.041851e+002,5.726288e+001
1.051493e+002,6.138029e+001
1.061135e+002,6.695510e+001
1.070778e+002,7.065343e+001
1.080420e+002,7.013545e+001
1.090062e+002,6.505875e+001
1.099705e+002,5.733390e+001
1.109347e+002,5.048228e+001
1.118989e+002,4.468029e+001
1.128632e+002,4.151007e+001
1.138274e+002,4.215609e+001
1.147916e+002,4.747876e+001
1.157559e+002,5.016045e+001
1.167201e+002,4.928400e+001
1.176843e+002,4.749171e+001
1.186486e+002,4.803710e+001
1.196128e+002,5.293354e+001
1.205770e+002,5.759667e+001
1.215413e+002,6.427974e+001
1.225055e+002,7.062891e+001
1.234697e+002,7.174699e+001
1.244340e+002,5.710093e+001
1.253982e+002,4.183213e+001
1.263624e+002,2.842186e+001
1.273267e+002,1.875051e+001
1.282909e+002,1.472656e+001
1.292551e+002,2.784113e+001
1.302194e+002,4.628474e+001
1.311836e+002,5.960516e+001
1.321478e+002,6.116669e+001
1.331121e+002,5.079542e+001
1.340763e+002,4.155523e+001
1.350405e+002,3.279694e+001
1.360048e+002,2.648998e+001
1.369690e+002,2.509359e+001
1.379332e+002,3.312885e+001
1.388975e+002,3.939000e+001
1.398617e+002,4.401220e+001
1.408259e+002,4.675917e+001
1.417902e+002,4.729176e+001
1.427544e+002,4.393164e+001
1.437186e+002,3.976801e+001
1.446829e+002,3.489376e+001
1.456471e+002,2.978829e+001
1.466113e+002,2.520989e+001
1.475756e+002,2.014954e+001
1.485398e+002,1.747700e+001
1.495040e+002,2.213306e+001
1.504683e+002,3.499270e+001
1.514325e+002,5.270527e+001
1.523967e+002,5.451093e+001
1.533610e+002,4.419203e+001
1.543252e+002,3.195020e+001
1.552894e+002,2.510563e+001
1.562537e+002,2.609296e+001
1.572179e+002,2.526783e+001
1.581821e+002,1.999036e+001
1.591464e+002,1.486849e+001
1.601106e+002,1.530789e+001
1.610748e+002,2.825128e+001
1.620391e+002,3.672726e+001
1.630033e+002,3.498222e+001
1.639676e+002,2.710454e+001
1.649318e+002,1.958112e+001
1.658960e+002,1.914804e+001
1.668603e+002,2.083964e+001
1.678245e+002,2.133276e+001
1.687887e+002,2.045081e+001
1.697530e+002,1.933358e+001
1.707172e+002,2.166842e+001
1.716814e+002,2.608020e+001
1.726457e+002,2.953186e+001
1.736099e+002,3.094174e+001
1.745741e+002,3.029380e+001
1.755384e+002,2.697498e+001
1.765026e+002,1.840063e+001
1.774668e+002,1.074276e+001
1.784311e+002,7.948730e+000
1.793953e+002,1.241631e+001
1.803595e+002,1.458723e+001
1.813238e+002,1.090419e+001
1.822880e+002,6.044287e+000
1.832522e+002,4.219482e+000
1.842165e+002,9.539477e+000
1.851807e+002,1.417418e+001
1.861449e+002,1.128627e+001
1.871092e+002,4.375610e+000
1.880734e+002,-2.009070e+000
1.890376e+002,-1.513049e+000
1.900019e+002,4.149109e+000
1.909661e+002,9.326892e+000
1.919303e+002,1.358115e+001
1.928946e+002,1.678264e+001
1.938588e+002,1.824600e+001
1.948230e+002,1.640705e+001
1.957873e+002,1.632379e+001
1.967515e+002,1.937301e+001
1.977157e+002,2.552538e+001
1.986800e+002,3.180037e+001
1.996442e+002,3.659594e+001
2.006084e+002,4.230586e+001
2.015727e+002,5.162443e+001
2.025369e+002,6.518661e+001
2.035011e+002,7.502988e+001
2.044654e+002,7.499014e+001
2.054296e+002,7.014301e+001
2.063938e+002,6.155695e+001
2.073581e+002,5.012165e+001
2.083223e+002,3.875477e+001
2.092865e+002,3.339351e+001
2.102508e+002,3.295510e+001
2.112150e+002,3.758918e+001
2.121792e+002,4.767158e+001
2.131435e+002,6.552391e+001
2.141077e+002,7.377116e+001
2.150719e+002,6.833480e+001
2.160362e+002,5.705891e+001
2.170004e+002,5.165066e+001
2.179646e+002,5.773164e+001
2.189289e+002,6.259662e+001
2.198931e+002,6.294239e+001
2.208573e+002,6.133704e+001
2.218216e+002,6.309365e+001
2.227858e+002,7.642123e+001
2.237500e+002,8.899088e+001
2.247143e+002,9.795943e+001
2.256785e+002,1.019132e+002
2.266427e+002,9.966277e+001
2.276070e+002,8.351823e+001
2.285712e+002,6.112698e+001
2.295354e+002,4.227167e+001
2.304997e+002,2.986685e+001
2.314639e+002,2.319701e+001
2.324281e+002,1.814324e+001
2.333924e+002,1.455559e+001
2.343566e+002,1.243672e+001
2.353208e+002,1.253606e+001
2.362851e+002,1.546653e+001
2.372493e+002,1.644369e+001
2.382135e+002,1.410635e+001
2.391778e+002,1.121566e+001
2.401420e+002,9.028064e+000
2.411062e+002,8.019300e+000
2.420705e+002,7.229602e+000
2.430347e+002,5.974243e+000
2.439989e+002,4.592590e+000
2.449632e+002,3.342566e+000
2.459274e+002,2.430920e+000
2.468916e+002,1.880005e+000
2.478559e+002,1.726575e+000
2.488201e+002,1.789709e+000
2.497843e+002,1.608240e+000
2.507486e+002,6.229248e-001
2.517128e+002,-1.425476e+000
2.526770e+002,-1.900842e+000
2.536413e+002,-6.992065e-001
2.546055e+002,1.606995e+000
2.555697e+002,4.297668e+000
2.565340e+002,8.717700e+000
2.574982e+002,1.148585e+001
2.584625e+002,1.205322e+001
2.594267e+002,1.113096e+001
2.603909e+002,9.822596e+000
2.613552e+002,8.084290e+000
2.623194e+002,6.536487e+000
2.632836e+002,5.572131e+000
2.642479e+002,5.111524e+000
2.652121e+002,4.890979e+000
2.661763e+002,4.509021e+000
2.671406e+002,4.148901e+000
2.681048e+002,3.904663e+000
2.690690e+002,3.832715e+000
2.700333e+002,4.154297e+000
2.709975e+002,6.027954e+000
2.719617e+002,1.054106e+001
2.729260e+002,1.319063e+001
2.738902e+002,1.207632e+001
2.748544e+002,7.256128e+000
2.758187e+002,3.769897e+000
2.767829e+002,2.611267e+000
2.777471e+002,1.815832e+000
2.787114e+002,9.469482e-001
2.796756e+002,-3.963623e-002
2.806398e+002,-7.248657e-001
2.816041e+002,-1.053809e+000
2.825683e+002,-9.903809e-001
2.835325e+002,-1.483643e-001
2.844968e+002,1.511487e+000
2.854610e+002,3.287354e+000
2.864252e+002,3.140051e+000
2.873895e+002,1.937634e+000
2.883537e+002,9.578980e-001
2.893179e+002,1.031836e+000
2.902822e+002,2.291602e+000
2.912464e+002,2.732141e+000
2.922106e+002,2.461658e+000
2.931749e+002,1.625000e+000
2.941391e+002,3.151856e-002
2.951033e+002,-2.897205e+000
2.960676e+002,-4.956714e+000
2.970318e+002,-6.095716e+000
2.979960e+002,-6.285022e+000
2.989603e+002,-5.174194e+000
2.999245e+002,-2.290894e+000
3.008887e+002,2.605835e-001
3.018530e+002,6.399414e-001
3.028172e+002,1.757568e-001
3.037814e+002,1.016846e-001
3.047457e+002,1.475757e+000
3.057099e+002,3.933667e+000
3.066741e+002,6.485425e+000
3.076384e+002,8.892529e+000
3.086026e+002,1.001331e+001
3.095668e+002,8.511023e+000
3.105311e+002,3.171008e+000
3.114953e+002,-2.455688e-001
3.124595e+002,-1.115076e+000
3.134238e+002,-8.430908e-001
3.143880e+002,-1.200220e+000
3.153522e+002,-3.425513e+000
3.163165e+002,-4.108045e+000
3.172807e+002,-1.727246e+000
3.182449e+002,2.041687e+000
3.192092e+002,5.337512e+000
3.201734e+002,6.877088e+000
3.211376e+002,7.474597e+000
3.221019e+002,7.807275e+000
3.230661e+002,8.009631e+000
3.240303e+002,8.201818e+000
3.249946e+002,8.512609e+000
3.259588e+002,8.868139e+000
3.269230e+002,9.017542e+000
3.278873e+002,8.943298e+000
3.288515e+002,8.835693e+000
3.298157e+002,9.038305e+000
3.307800e+002,9.843946e+000
3.317442e+002,1.083896e+001
3.327084e+002,1.185155e+001
3.336727e+002,1.293627e+001
3.346369e+002,1.435103e+001
3.356011e+002,1.708479e+001
3.365654e+002,1.880898e+001
3.375296e+002,1.838141e+001
3.384938e+002,1.680268e+001
3.394581e+002,1.553286e+001
3.404223e+002,1.564326e+001
3.413865e+002,1.684012e+001
3.423508e+002,1.880133e+001
3.433150e+002,2.148551e+001
3.442792e+002,2.483094e+001
3.452435e+002,2.878374e+001
3.462077e+002,3.342430e+001
3.471719e+002,3.802962e+001
3.481362e+002,4.191398e+001
3.491004e+002,4.660283e+001
3.500646e+002,5.554109e+001
3.510289e+002,6.906183e+001
3.519931e+002,8.845150e+001
3.529573e+002,1.147978e+002
3.539216e+002,1.465929e+002
3.548858e+002,1.830092e+002
3.558500e+002,2.372148e+002
3.568143e+002,2.756354e+002
3.577785e+002,2.864146e+002
3.587427e+002,2.742219e+002
3.597070e+002,2.470327e+002
3.606712e+002,2.066970e+002
3.616354e+002,1.623946e+002
3.625997e+002,1.246939e+002
3.635639e+002,9.455212e+001
3.645281e+002,7.189939e+001
3.654924e+002,5.646363e+001
3.664566e+002,5.049822e+001
3.674208e+002,4.414445e+001
3.683851e+002,3.647412e+001
3.693493e+002,2.870426e+001
3.703135e+002,2.361306e+001
3.712778e+002,2.397212e+001
3.722420e+002,2.393073e+001
3.732062e+002,2.273447e+001
3.741705e+002,2.095321e+001
3.751347e+002,1.953818e+001
3.760989e+002,1.911953e+001
3.770632e+002,1.898423e+001
3.780274e+002,1.838680e+001
3.789916e+002,1.764415e+001
3.799559e+002,1.751513e+001
3.809201e+002,1.922659e+001
3.818844e+002,2.165107e+001
3.828486e+002,2.167144e+001
3.838128e+002,1.942716e+001
3.847771e+002,1.603741e+001
3.857413e+002,1.311758e+001
3.867055e+002,1.045444e+001
3.876698e+002,9.694433e+000
3.886340e+002,1.117634e+001
3.895982e+002,1.410051e+001
3.905625e+002,1.776513e+001
3.915267e+002,2.365419e+001
3.924909e+002,2.738398e+001
3.934552e+002,2.774146e+001
3.944194e+002,2.616253e+001
3.953836e+002,2.397207e+001
3.963479e+002,2.161398e+001
3.973121e+002,1.966484e+001
3.982763e+002,1.867986e+001
3.992406e+002,1.834789e+001
4.002048e+002,1.801051e+001
4.011690e+002,1.696984e+001
4.021333e+002,1.574530e+001
4.030975e+002,1.770774e+001
4.040617e+002,2.285780e+001
4.050260e+002,2.857190e+001
4.059902e+002,3.205049e+001
4.069544e+002,3.195789e+001
4.079187e+002,3.320791e+001
4.088829e+002,3.611692e+001
4.098471e+002,3.965501e+001
4.108114e+002,4.262841e+001
4.117756e+002,4.414479e+001
4.127398e+002,4.818993e+001
4.137041e+002,5.925939e+001
4.146683e+002,7.093978e+001
4.156325e+002,7.918105e+001
4.165968e+002,8.180418e+001
4.175610e+002,7.925474e+001
4.185252e+002,6.933926e+001
4.194895e+002,5.654121e+001
4.204537e+002,4.656086e+001
4.214179e+002,4.296510e+001
4.223822e+002,4.537734e+001
4.233464e+002,4.736358e+001
4.243106e+002,4.888496e+001
4.252749e+002,4.995383e+001
4.262391e+002,4.960598e+001
4.272033e+002,4.745487e+001
4.281676e+002,4.960003e+001
4.291318e+002,5.679767e+001
4.300960e+002,6.743498e+001
4.310603e+002,8.158013e+001
4.320245e+002,9.885177e+001
4.329887e+002,1.181358e+002
4.339530e+002,1.395212e+002
4.349172e+002,1.621008e+002
4.358814e+002,1.890521e+002
4.368457e+002,2.186248e+002
4.378099e+002,2.446998e+002
4.387741e+002,2.535634e+002
4.397384e+002,2.480988e+002
4.407026e+002,2.364215e+002
4.416668e+002,2.195203e+002
4.426311e+002,1.990022e+002
4.435953e+002,1.803155e+002
4.445595e+002,1.625331e+002
4.455238e+002,1.485137e+002
4.464880e+002,1.400434e+002
4.474522e+002,1.352968e+002
4.484165e+002,1.305454e+002
4.493807e+002,1.252610e+002
4.503449e+002,1.196583e+002
4.513092e+002,1.142857e+002
4.522734e+002,1.083712e+002
4.532376e+002,1.004375e+002
4.542019e+002,8.842515e+001
4.551661e+002,7.583670e+001
4.561303e+002,6.721477e+001
4.570946e+002,6.181846e+001
4.580588e+002,5.794759e+001
4.590230e+002,5.373237e+001
4.599873e+002,4.921305e+001
4.609515e+002,4.594697e+001
4.619157e+002,4.357352e+001
4.628800e+002,4.246984e+001
4.638442e+002,4.326839e+001
4.648084e+002,4.680955e+001
4.657727e+002,4.977067e+001
4.667369e+002,5.119072e+001
4.677011e+002,5.293285e+001
4.686654e+002,5.663306e+001
4.696296e+002,6.283964e+001
4.705938e+002,6.817300e+001
4.715581e+002,7.132658e+001
4.725223e+002,7.187218e+001
4.734865e+002,6.808942e+001
4.744508e+002,6.000941e+001
4.754150e+002,5.019785e+001
4.763792e+002,4.540963e+001
4.773435e+002,4.408450e+001
4.783077e+002,4.270526e+001
4.792719e+002,4.016594e+001
4.802362e+002,3.675277e+001
4.812004e+002,3.394160e+001
4.821646e+002,3.207367e+001
4.831289e+002,3.027585e+001
4.840931e+002,2.808364e+001
4.850573e+002,2.577963e+001
4.860216e+002,2.430647e+001
4.869858e+002,2.551765e+001
4.879500e+002,2.598223e+001
4.889143e+002,2.396130e+001
4.898785e+002,2.053806e+001
4.908427e+002,1.746772e+001
4.918070e+002,1.619399e+001
4.927712e+002,1.601438e+001
4.937354e+002,1.538004e+001
4.946997e+002,1.456771e+001
4.956639e+002,1.429011e+001
4.966281e+002,1.529526e+001
4.975924e+002,1.774659e+001
4.985566e+002,1.911224e+001
4.995208e+002,1.854053e+001
5.004851e+002,1.833066e+001
5.014493e+002,2.039443e+001
5.024135e+002,2.533019e+001
5.033778e+002,2.981572e+001
5.043420e+002,3.343266e+001
5.053063e+002,3.689474e+001
5.062705e+002,4.119859e+001
5.072347e+002,4.616571e+001
5.081990e+002,4.915179e+001
5.091632e+002,4.516738e+001
5.101274e+002,3.952577e+001
5.110917e+002,3.534768e+001
5.120559e+002,3.322228e+001
5.130201e+002,3.184763e+001
5.139844e+002,2.848549e+001
5.149486e+002,2.325114e+001
5.159128e+002,1.878439e+001
5.168771e+002,1.554266e+001
5.178413e+002,1.308306e+001
5.188055e+002,1.035955e+001
5.197698e+002,6.282831e+000
5.207340e+002,3.777277e+000
5.216982e+002,3.947833e+000
5.226625e+002,5.044403e+000
5.236267e+002,4.947748e+000
5.245909e+002,2.457849e+000
5.255552e+002,4.657288e-001
5.265194e+002,1.014124e+000
5.274836e+002,2.330499e+000
5.284479e+002,2.794299e+000
5.294121e+002,1.550458e+000
5.303763e+002,-4.315857e-001
5.313406e+002,-1.274133e+000
5.323048e+002,-1.286273e+000
5.332690e+002,-5.092224e-001
5.342333e+002,1.107880e+000
5.351975e+002,3.382672e+000
5.361617e+002,4.752527e+000
5.371260e+002,4.820624e+000
5.380902e+002,4.742486e+000
5.390544e+002,4.515826e+000
5.400187e+002,4.169080e+000
5.409829e+002,3.956860e+000
5.419471e+002,4.463959e+000
5.429114e+002,4.585376e+000
5.438756e+002,3.505682e+000
5.448398e+002,1.925494e+000
5.458041e+002,9.897644e-001
5.467683e+002,1.709790e+000
5.477325e+002,3.001593e+000
5.486968e+002,3.161139e+000
5.496610e+002,2.552203e+000
5.506252e+002,1.876569e+000
5.515895e+002,1.712036e+000
5.525537e+002,2.031268e+000
5.535179e+002,1.680426e+000
5.544822e+002,5.072510e-001
5.554464e+002,-4.815857e-001
5.564106e+002,-8.357361e-001
5.573749e+002,-5.907532e-001
5.583391e+002,-1.352600e-001
5.593033e+002,1.216162e+000
5.602676e+002,2.122052e+000
5.612318e+002,1.930121e+000
5.621960e+002,9.094849e-001
5.631603e+002,-6.484985e-002
5.641245e+002,-4.100159e-001
5.650887e+002,-3.240662e-001
5.660530e+002,2.128479e-001
5.670172e+002,9.771912e-001
5.679814e+002,1.543249e+000
5.689457e+002,1.437592e+000
5.699099e+002,6.799194e-001
5.708741e+002,2.582153e-001
5.718384e+002,2.842529e-001
5.728026e+002,2.388977e-001
5.737668e+002,-5.732239e-001
5.747311e+002,-2.573785e+000
5.756953e+002,-3.273389e+000
5.766595e+002,-1.397528e+000
5.776238e+002,2.614136e-001
5.785880e+002,4.893005e-001
5.795522e+002,-6.686707e-001
5.805165e+002,-1.940479e+000
5.814807e+002,-2.392047e+000
5.824449e+002,-2.744586e+000
5.834092e+002,-3.748877e+000
5.843734e+002,-5.104712e+000
5.853376e+002,-5.908472e+000
5.863019e+002,-4.968493e+000
5.872661e+002,-2.631927e+000
5.882303e+002,-1.325598e+000
5.891946e+002,-1.064612e+000
5.901588e+002,-9.888183e-001
5.911230e+002,-7.312012e-002
5.920873e+002,2.255164e+000
5.930515e+002,2.926367e+000
5.940157e+002,1.385535e+000
5.949800e+002,-5.945801e-001
5.959442e+002,-2.685638e+000
5.969084e+002,-4.754748e+000
5.978727e+002,-5.587390e+000
5.988369e+002,-2.623480e+000
5.998011e+002,3.050232e-001
6.007654e+002,1.705737e+000
6.017296e+002,1.560095e+000
6.026938e+002,5.234558e-001
6.036581e+002,-9.221374e-001
6.046223e+002,-2.460651e+000
6.055865e+002,-3.237543e+000
6.065508e+002,-3.245368e+000
6.075150e+002,-2.817425e+000
6.084792e+002,-2.329449e+000
6.094435e+002,-1.858514e+000
6.104077e+002,-6.992493e-001
6.113719e+002,2.193305e+000
6.123362e+002,4.413818e+000
6.133004e+002,4.199371e+000
6.142646e+002,1.557208e+000
6.152289e+002,-2.933594e-001
6.161931e+002,6.886963e-001
6.171573e+002,2.079962e+000
6.181216e+002,3.287024e+000
6.190858e+002,4.251977e+000
6.200500e+002,5.158966e+000
6.210143e+002,6.129529e+000
6.219785e+002,7.091278e+000
6.229427e+002,7.961780e+000
6.239070e+002,8.737018e+000
6.248712e+002,9.476379e+000
6.258354e+002,1.026037e+001
6.267997e+002,1.115043e+001
6.277639e+002,1.241196e+001
6.287281e+002,1.448436e+001
6.296924e+002,1.609046e+001
6.306566e+002,1.646802e+001
6.316208e+002,1.572769e+001
6.325851e+002,1.513770e+001
6.335493e+002,1.534546e+001
6.345135e+002,1.564795e+001
6.354778e+002,1.589543e+001
6.364420e+002,1.601874e+001
6.374063e+002,1.597241e+001
6.383705e+002,1.569451e+001
6.393347e+002,1.527724e+001
6.402990e+002,1.509408e+001
6.412632e+002,1.501088e+001
6.422274e+002,1.450930e+001
6.431917e+002,1.315522e+001
6.441559e+002,1.100284e+001
6.451201e+002,1.023289e+001
6.460844e+002,1.186438e+001
6.470486e+002,1.268084e+001
6.480128e+002,1.104848e+001
6.489771e+002,7.668103e+000
6.499413e+002,5.600183e+000
6.509055e+002,7.028375e+000
6.518698e+002,7.580835e+000
6.528340e+002,5.103198e+000
6.537982e+002,1.578552e+000
6.547625e+002,-2.702942e-001
6.557267e+002,1.281152e+000
6.566909e+002,4.015668e+000
6.576552e+002,4.621900e+000
6.586194e+002,4.027204e+000
6.595836e+002,3.489276e+000
6.605479e+002,3.671387e+000
6.615121e+002,4.493835e+000
6.624763e+002,5.507294e+000
6.634406e+002,6.892151e+000
6.644048e+002,7.949097e+000
6.653690e+002,8.158691e+000
6.663333e+002,7.969678e+000
6.672975e+002,8.463470e+000
6.682617e+002,1.058619e+001
6.692260e+002,1.178281e+001
6.701902e+002,1.096179e+001
6.711544e+002,9.525446e+000
6.721187e+002,8.519567e+000
6.730829e+002,8.280957e+000
6.740471e+002,8.279315e+000
6.750114e+002,7.663452e+000
6.759756e+002,7.071546e+000
6.769398e+002,7.395081e+000
6.779041e+002,8.714630e+000
6.788683e+002,1.031196e+001
6.798325e+002,1.088149e+001
6.807968e+002,1.004788e+001
6.817610e+002,9.448895e+000
6.827252e+002,9.190448e+000
6.836895e+002,9.067670e+000
6.846537e+002,8.849573e+000
6.856179e+002,8.455792e+000
6.865822e+002,8.276648e+000
6.875464e+002,8.707532e+000
6.885106e+002,9.089923e+000
6.894749e+002,8.824908e+000
6.904391e+002,8.169165e+000
6.914034e+002,8.111005e+000
6.923676e+002,9.863134e+000
6.933318e+002,1.240131e+001
6.942961e+002,1.457267e+001
6.952603e+002,1.620259e+001
6.962245e+002,1.672451e+001
6.971888e+002,1.553045e+001
6.981530e+002,1.253432e+001
6.991172e+002,1.204797e+001
7.000815e+002,1.492911e+001
7.010457e+002,1.783515e+001
7.020099e+002,1.975848e+001
7.029742e+002,2.085445e+001
7.039384e+002,2.170481e+001
7.049026e+002,2.248808e+001
7.058669e+002,2.270500e+001
7.068311e+002,2.140828e+001
7.077953e+002,1.980396e+001
7.087596e+002,1.978959e+001
7.097238e+002,2.251545e+001
7.106880e+002,2.556055e+001
7.116523e+002,2.378521e+001
7.126165e+002,1.990430e+001
7.135807e+002,1.824514e+001
7.145450e+002,2.042780e+001
7.155092e+002,2.473069e+001
7.164734e+002,2.640509e+001
7.174377e+002,2.386456e+001
7.184019e+002,2.162515e+001
7.193661e+002,1.950314e+001
7.203304e+002,1.768289e+001
7.212946e+002,1.634479e+001
7.222589e+002,1.551614e+001
7.232231e+002,1.543169e+001
7.241873e+002,1.707518e+001
7.251516e+002,1.858590e+001
7.261158e+002,1.862139e+001
7.270800e+002,1.731051e+001
7.280443e+002,1.603093e+001
7.290085e+002,1.644446e+001
7.299727e+002,1.767696e+001
7.309370e+002,1.778348e+001
7.319012e+002,1.686187e+001
7.328654e+002,1.561592e+001
7.338297e+002,1.464892e+001
7.347939e+002,1.395364e+001
7.357581e+002,1.341688e+001
7.367224e+002,1.313828e+001
7.376866e+002,1.285015e+001
7.386508e+002,1.225251e+001
7.396151e+002,1.158550e+001
7.405793e+002,1.162370e+001
7.415435e+002,1.320996e+001
7.425078e+002,1.452101e+001
7.434720e+002,1.439155e+001
7.444362e+002,1.372966e+001
7.454005e+002,1.349368e+001
7.463647e+002,1.412894e+001
7.473289e+002,1.525212e+001
7.482932e+002,1.651127e+001
7.492574e+002,1.772814e+001
7.502216e+002,1.807228e+001
7.511859e+002,1.723881e+001
7.521501e+002,1.583378e+001
7.531143e+002,1.503261e+001
7.540786e+002,1.527215e+001
7.550428e+002,1.525280e+001
7.560070e+002,1.465568e+001
7.569713e+002,1.413254e+001
7.579355e+002,1.407010e+001
7.588997e+002,1.446615e+001
7.598640e+002,1.498160e+001
7.608282e+002,1.532924e+001
7.617924e+002,1.599039e+001
7.627567e+002,1.737133e+001
7.637209e+002,1.922443e+001
7.646851e+002,2.098613e+001
7.656494e+002,2.217771e+001
7.666136e+002,2.314929e+001
7.675778e+002,2.610014e+001
7.685421e+002,3.071819e+001
7.695063e+002,3.338593e+001
7.704705e+002,3.197977e+001
7.714348e+002,2.755493e+001
7.723990e+002,2.431388e+001
7.733632e+002,2.272660e+001
7.743275e+002,2.175628e+001
7.752917e+002,2.148632e+001
7.762559e+002,2.168427e+001
7.772202e+002,2.226118e+001
7.781844e+002,2.318180e+001
7.791486e+002,2.408566e+001
7.801129e+002,2.452981e+001
7.810771e+002,2.488428e+001
7.820413e+002,2.545855e+001
7.830056e+002,2.625970e+001
7.839698e+002,2.704752e+001
7.849340e+002,2.750781e+001
7.858983e+002,2.769238e+001
7.868625e+002,2.883059e+001
7.878267e+002,3.117639e+001
7.887910e+002,3.328297e+001
7.897552e+002,3.433294e+001
7.907194e+002,3.445833e+001
7.916837e+002,3.454398e+001
7.926479e+002,3.461291e+001
7.936121e+002,3.459182e+001
7.945764e+002,3.427590e+001
7.955406e+002,3.392081e+001
7.965048e+002,3.377494e+001
7.974691e+002,3.398696e+001
7.984333e+002,3.470671e+001
7.993975e+002,3.640272e+001
8.003618e+002,3.845439e+001
8.013260e+002,4.023722e+001
8.022902e+002,4.164745e+001
8.032545e+002,4.297020e+001
8.042187e+002,4.466600e+001
8.051829e+002,4.684777e+001
8.061472e+002,4.903476e+001
8.071114e+002,5.088530e+001
8.080756e+002,5.298345e+001
8.090399e+002,5.579338e+001
8.100041e+002,5.924820e+001
8.109683e+002,6.267132e+001
8.119326e+002,6.569166e+001
8.128968e+002,6.883599e+001
8.138610e+002,7.151040e+001
8.148253e+002,7.470809e+001
8.157895e+002,7.992107e+001
8.167537e+002,8.783238e+001
8.177180e+002,9.679527e+001
8.186822e+002,1.042236e+002
8.196464e+002,1.103596e+002
8.206107e+002,1.154033e+002
8.215749e+002,1.192793e+002
8.225391e+002,1.222182e+002
8.235034e+002,1.247334e+002
8.244676e+002,1.273229e+002
8.254318e+002,1.274565e+002
8.263961e+002,1.248543e+002
8.273603e+002,1.213002e+002
8.283245e+002,1.173886e+002
8.292888e+002,1.130813e+002
8.302530e+002,1.080070e+002
8.312172e+002,1.014028e+002
8.321815e+002,9.502592e+001
8.331457e+002,8.966496e+001
8.341099e+002,8.551088e+001
8.350742e+002,8.314476e+001
8.360384e+002,8.264769e+001
8.370026e+002,8.284755e+001
8.379669e+002,8.086482e+001
8.389311e+002,7.653504e+001
8.398953e+002,7.260380e+001
8.408596e+002,6.955610e+001
8.418238e+002,6.668759e+001
8.427880e+002,6.292774e+001
8.437523e+002,5.784391e+001
8.447165e+002,5.425002e+001
8.456807e+002,5.368684e+001
8.466450e+002,5.332122e+001
8.476092e+002,5.220679e+001
8.485734e+002,5.043889e+001
8.495377e+002,4.835986e+001
8.505019e+002,4.597759e+001
8.514661e+002,4.427776e+001
8.524304e+002,4.537992e+001
8.533946e+002,4.770433e+001
8.543588e+002,4.866063e+001
8.553231e+002,4.728281e+001
8.562873e+002,4.458257e+001
8.572515e+002,4.278036e+001
8.582158e+002,4.215549e+001
8.591800e+002,4.175305e+001
8.601442e+002,4.177207e+001
8.611085e+002,4.168638e+001
8.620727e+002,4.119435e+001
8.630369e+002,4.035560e+001
8.640012e+002,3.939742e+001
8.649654e+002,3.766300e+001
8.659296e+002,3.669533e+001
8.668939e+002,3.774357e+001
8.678581e+002,3.972683e+001
8.688223e+002,4.131654e+001
8.697866e+002,4.178834e+001
8.707508e+002,4.134258e+001
8.717150e+002,3.987676e+001
8.726793e+002,3.774419e+001
8.736435e+002,3.688882e+001
8.746077e+002,3.785712e+001
8.755720e+002,3.948201e+001
8.765362e+002,4.039541e+001
8.775004e+002,4.061495e+001
8.784647e+002,3.998829e+001
8.794289e+002,3.787611e+001
8.803931e+002,3.567175e+001
8.813574e+002,3.372242e+001
8.823216e+002,3.199093e+001
8.832858e+002,3.026283e+001
8.842501e+002,2.841757e+001
8.852143e+002,2.693957e+001
8.861785e+002,2.601548e+001
8.871428e+002,2.567908e+001
8.881070e+002,2.656159e+001
8.890712e+002,2.856836e+001
8.900355e+002,3.036680e+001
8.909997e+002,2.973140e+001
8.919639e+002,2.613044e+001
8.929282e+002,2.446302e+001
8.938924e+002,2.604667e+001
8.948566e+002,2.748812e+001
8.958209e+002,2.702959e+001
8.967851e+002,2.502984e+001
8.977493e+002,2.289126e+001
8.987136e+002,2.032489e+001
8.996778e+002,1.857781e+001
9.006420e+002,1.852576e+001
9.016063e+002,1.912761e+001
9.025705e+002,1.981152e+001
9.035347e+002,2.019759e+001
9.044990e+002,1.966401e+001
9.054632e+002,1.689031e+001
9.064274e+002,1.263926e+001
9.073917e+002,1.053475e+001
9.083559e+002,1.075328e+001
9.093201e+002,1.133589e+001
9.102844e+002,1.063453e+001
9.112486e+002,8.750452e+000
9.122128e+002,7.811859e+000
9.131771e+002,8.341333e+000
9.141413e+002,9.303192e+000
9.151055e+002,1.160917e+001
9.160698e+002,1.369383e+001
9.170340e+002,1.350617e+001
9.179982e+002,1.069576e+001
9.189625e+002,8.139246e+000
9.199267e+002,8.734332e+000
9.208909e+002,1.040442e+001
9.218552e+002,1.147458e+001
9.228194e+002,1.180112e+001
9.237836e+002,1.139045e+001
9.247479e+002,1.022712e+001
9.257121e+002,8.562414e+000
9.266763e+002,7.921637e+000
9.276406e+002,9.038623e+000
9.286048e+002,9.500025e+000
9.295690e+002,8.736933e+000
9.305333e+002,7.446149e+000
9.314975e+002,6.172320e+000
9.324617e+002,4.881226e+000
9.334260e+002,4.351367e+000
9.343902e+002,5.818488e+000
9.353545e+002,7.356311e+000
9.363187e+002,8.353076e+000
9.372830e+002,8.747070e+000
9.382472e+002,8.452197e+000
9.392114e+002,7.468036e+000
9.401757e+002,6.383478e+000
9.411399e+002,6.768121e+000
9.421041e+002,8.319550e+000
9.430684e+002,9.253876e+000
9.440326e+002,9.058807e+000
9.449968e+002,8.436548e+000
9.459611e+002,8.423254e+000
9.469253e+002,9.272730e+000
9.478895e+002,9.588061e+000
9.488538e+002,7.557953e+000
9.498180e+002,6.885651e+000
9.507822e+002,1.012060e+001
9.517465e+002,1.474853e+001
9.527107e+002,1.689092e+001
9.536749e+002,1.497338e+001
9.546392e+002,1.195893e+001
9.556034e+002,1.090909e+001
9.565676e+002,1.120848e+001
9.575319e+002,1.287675e+001
9.584961e+002,1.566114e+001
9.594603e+002,1.789366e+001
9.604246e+002,1.762393e+001
9.613888e+002,1.479950e+001
9.623530e+002,1.402233e+001
9.633173e+002,1.673578e+001
9.642815e+002,1.944679e+001
9.652457e+002,2.105978e+001
9.662100e+002,2.295828e+001
9.671742e+002,2.679689e+001
9.681384e+002,3.288633e+001
9.691027e+002,4.004200e+001
9.700669e+002,4.619426e+001
9.710311e+002,5.449576e+001
9.719954e+002,7.124784e+001
9.729596e+002,9.184383e+001
9.739238e+002,1.060080e+002
9.748881e+002,1.067519e+002
9.758523e+002,9.693987e+001
9.768165e+002,8.521947e+001
9.777808e+002,7.081713e+001
9.787450e+002,5.911325e+001
9.797092e+002,5.150379e+001
9.806735e+002,4.611019e+001
9.816377e+002,4.115835e+001
9.826019e+002,3.664399e+001
9.835662e+002,3.361120e+001
9.845304e+002,3.383488e+001
9.854946e+002,3.393739e+001
9.864589e+002,3.231345e+001
9.874231e+002,3.013268e+001
9.883873e+002,2.876874e+001
9.893516e+002,2.874328e+001
9.903158e+002,2.970267e+001
9.912800e+002,3.143561e+001
9.922443e+002,3.393362e+001
9.932085e+002,3.625974e+001
9.941727e+002,3.832035e+001
9.951370e+002,4.131055e+001
9.961012e+002,4.568909e+001
9.970654e+002,5.140054e+001
9.980297e+002,5.900871e+001
9.989939e+002,6.574895e+001
9.999581e+002,8.021416e+001
1.000922e+003,9.988776e+001
1.001887e+003,1.295896e+002
1.002851e+003,1.782335e+002
1.003815e+003,2.422079e+002
1.004779e+003,3.076709e+002
1.005744e+003,3.736095e+002
1.006708e+003,4.186902e+002
1.007672e+003,4.083782e+002
1.008636e+003,3.584242e+002
1.009600e+003,2.992827e+002
1.010565e+003,2.436109e+002
1.011529e+003,1.933222e+002
1.012493e+003,1.533399e+002
1.013457e+003,1.260088e+002
1.014422e+003,1.035605e+002
1.015386e+003,8.577913e+001
1.016350e+003,7.169652e+001
1.017314e+003,6.196025e+001
1.018279e+003,5.525842e+001
1.019243e+003,4.934797e+001
1.020207e+003,4.353553e+001
1.021171e+003,3.858063e+001
1.022135e+003,3.564453e+001
1.023100e+003,3.355912e+001
1.024064e+003,3.121454e+001
1.025028e+003,2.861079e+001
1.025992e+003,2.670574e+001
1.026957e+003,2.641431e+001
1.027921e+003,2.737553e+001
1.028885e+003,2.680185e+001
1.029849e+003,2.368116e+001
1.030814e+003,2.134429e+001
1.031778e+003,2.022073e+001
1.032742e+003,1.973829e+001
1.033706e+003,1.950989e+001
1.034671e+003,1.955932e+001
1.035635e+003,1.982871e+001
1.036599e+003,2.058686e+001
1.037563e+003,2.117007e+001
1.038527e+003,2.100900e+001
1.039492e+003,2.052932e+001
1.040456e+003,2.037899e+001
1.041420e+003,2.075134e+001
1.042384e+003,2.114764e+001
1.043349e+003,2.075361e+001
1.044313e+003,1.960190e+001
1.045277e+003,1.944751e+001
1.046241e+003,2.059626e+001
1.047206e+003,2.166551e+001
1.048170e+003,2.193961e+001
1.049134e+003,2.169474e+001
1.050098e+003,2.159112e+001
1.051063e+003,2.173096e+001
1.052027e+003,2.203382e+001
1.052991e+003,2.281445e+001
1.053955e+003,2.323114e+001
1.054919e+003,2.255270e+001
1.055884e+003,2.114711e+001
1.056848e+003,1.985312e+001
1.057812e+003,1.921536e+001
1.058776e+003,1.912043e+001
1.059741e+003,1.928030e+001
1.060705e+003,1.962695e+001
1.061669e+003,2.007416e+001
1.062633e+003,2.059454e+001
1.063598e+003,2.114153e+001
1.064562e+003,2.188631e+001
1.065526e+003,2.283618e+001
1.066490e+003,2.321833e+001
1.067454e+003,2.266704e+001
1.068419e+003,2.194064e+001
1.069383e+003,2.068818e+001
1.070347e+003,1.961429e+001
1.071311e+003,1.937976e+001
1.072276e+003,1.999670e+001
1.073240e+003,2.101600e+001
1.074204e+003,2.215962e+001
1.075168e+003,2.332512e+001
1.076133e+003,2.438712e+001
1.077097e+003,2.530057e+001
1.078061e+003,2.573787e+001
1.079025e+003,2.555427e+001
1.079990e+003,2.498961e+001
1.080954e+003,2.409647e+001
1.081918e+003,2.263432e+001
1.082882e+003,2.258566e+001
1.083846e+003,2.632395e+001
1.084811e+003,2.872394e+001
1.085775e+003,2.768884e+001
1.086739e+003,2.547535e+001
1.087703e+003,2.475651e+001
1.088668e+003,2.601063e+001
1.089632e+003,2.714305e+001
1.090596e+003,2.601018e+001
1.091560e+003,2.395524e+001
1.092525e+003,2.381124e+001
1.093489e+003,2.514797e+001
1.094453e+003,2.642842e+001
1.095417e+003,2.700262e+001
1.096381e+003,2.713596e+001
1.097346e+003,2.736926e+001
1.098310e+003,2.789301e+001
1.099274e+003,2.780996e+001
1.100238e+003,2.628824e+001
1.101203e+003,2.529197e+001
1.102167e+003,2.571650e+001
1.103131e+003,2.680244e+001
1.104095e+003,2.741941e+001
1.105060e+003,2.727068e+001
1.106024e+003,2.723901e+001
1.106988e+003,2.842599e+001
1.107952e+003,3.004175e+001
1.108917e+003,3.068040e+001
1.109881e+003,3.049417e+001
1.110845e+003,3.022880e+001
1.111809e+003,3.024219e+001
1.112773e+003,3.046133e+001
1.113738e+003,3.083175e+001
1.114702e+003,3.159594e+001
1.115666e+003,3.205538e+001
1.116630e+003,3.256992e+001
1.117595e+003,3.228658e+001
1.118559e+003,2.985368e+001
1.119523e+003,2.689227e+001
1.120487e+003,2.588984e+001
1.121452e+003,2.754128e+001
1.122416e+003,3.018287e+001
1.123380e+003,3.293175e+001
1.124344e+003,3.522819e+001
1.125308e+003,3.649638e+001
1.126273e+003,3.682717e+001
1.127237e+003,3.630104e+001
1.128201e+003,3.485964e+001
1.129165e+003,3.316730e+001
1.130130e+003,3.295975e+001
1.131094e+003,3.513038e+001
1.132058e+003,3.572368e+001
1.133022e+003,3.325541e+001
1.133987e+003,3.139365e+001
1.134951e+003,3.169491e+001
1.135915e+003,3.323698e+001
1.136879e+003,3.478157e+001
1.137844e+003,3.596707e+001
1.138808e+003,3.667459e+001
1.139772e+003,3.651810e+001
1.140736e+003,3.588013e+001
1.141700e+003,3.527969e+001
1.142665e+003,3.485769e+001
1.143629e+003,3.484317e+001
1.144593e+003,3.536500e+001
1.145557e+003,3.644664e+001
1.146522e+003,3.821511e+001
1.147486e+003,4.097908e+001
1.148450e+003,4.257003e+001
1.149414e+003,4.239933e+001
1.150379e+003,4.217377e+001
1.151343e+003,4.227549e+001
1.152307e+003,4.260144e+001
1.153271e+003,4.295637e+001
1.154235e+003,4.323475e+001
1.155200e+003,4.344930e+001
1.156164e+003,4.371821e+001
1.157128e+003,4.401456e+001
1.158092e+003,4.440010e+001
1.159057e+003,4.469670e+001
1.160021e+003,4.407960e+001
1.160985e+003,4.216730e+001
1.161949e+003,4.061553e+001
1.162914e+003,4.229351e+001
1.163878e+003,4.777843e+001
1.164842e+003,5.132914e+001
1.165806e+003,5.166735e+001
1.166771e+003,5.144639e+001
1.167735e+003,5.013545e+001
1.168699e+003,4.903773e+001
1.169663e+003,4.953287e+001
1.170627e+003,5.147771e+001
1.171592e+003,5.351033e+001
1.172556e+003,5.496407e+001
1.173520e+003,5.580771e+001
1.174484e+003,5.543781e+001
1.175449e+003,5.449020e+001
1.176413e+003,5.423936e+001
1.177377e+003,5.495895e+001
1.178341e+003,5.619397e+001
1.179306e+003,5.759852e+001
1.180270e+003,5.919708e+001
1.181234e+003,6.076439e+001
1.182198e+003,6.222455e+001
1.183162e+003,6.365940e+001
1.184127e+003,6.587267e+001
1.185091e+003,6.726993e+001
1.186055e+003,6.636931e+001
1.187019e+003,6.404790e+001
1.187984e+003,6.249919e+001
1.188948e+003,6.269860e+001
1.189912e+003,6.291100e+001
1.190876e+003,6.037600e+001
1.191841e+003,5.653224e+001
1.192805e+003,5.517541e+001
1.193769e+003,5.648523e+001
1.194733e+003,5.785352e+001
1.195698e+003,5.760700e+001
1.196662e+003,5.633107e+001
1.197626e+003,5.557755e+001
1.198590e+003,5.544522e+001
1.199554e+003,5.538144e+001
1.200519e+003,5.507424e+001
1.201483e+003,5.528259e+001
1.202447e+003,5.686706e+001
1.203411e+003,5.878253e+001
1.204376e+003,5.963995e+001
1.205340e+003,5.909813e+001
1.206304e+003,5.794578e+001
1.207268e+003,5.694496e+001
1.208233e+003,5.625059e+001
1.209197e+003,5.575004e+001
1.210161e+003,5.537280e+001
1.211125e+003,5.587748e+001
1.212089e+003,5.786433e+001
1.213054e+003,5.990167e+001
1.214018e+003,6.056105e+001
1.214982e+003,6.002052e+001
1.215946e+003,5.895467e+001
1.216911e+003,5.670961e+001
1.217875e+003,5.508572e+001
1.218839e+003,5.468679e+001
1.219803e+003,5.475657e+001
1.220768e+003,5.490297e+001
1.221732e+003,5.515559e+001
1.222696e+003,5.580830e+001
1.223660e+003,5.696219e+001
1.224625e+003,5.809670e+001
1.225589e+003,5.820380e+001
1.226553e+003,5.718758e+001
1.227517e+003,5.662667e+001
1.228481e+003,5.652303e+001
1.229446e+003,5.698650e+001
1.230410e+003,5.855043e+001
1.231374e+003,6.044963e+001
1.232338e+003,6.142434e+001
1.233303e+003,6.141511e+001
1.234267e+003,6.110991e+001
1.235231e+003,6.011866e+001
1.236195e+003,5.961538e+001
1.237160e+003,6.088764e+001
1.238124e+003,6.254294e+001
1.239088e+003,6.258428e+001
1.240052e+003,6.094520e+001
1.241016e+003,5.949708e+001
1.241981e+003,6.002750e+001
1.242945e+003,6.206654e+001
1.243909e+003,6.350447e+001
1.244873e+003,6.438913e+001
1.245838e+003,6.446839e+001
1.246802e+003,6.280090e+001
1.247766e+003,6.129899e+001
1.248730e+003,6.104415e+001
1.249695e+003,6.172834e+001
1.250659e+003,6.283144e+001
1.251623e+003,6.431766e+001
1.252587e+003,6.528537e+001
1.253552e+003,6.450983e+001
1.254516e+003,6.348549e+001
1.255480e+003,6.389671e+001
1.256444e+003,6.523450e+001
1.257408e+003,6.627602e+001
1.258373e+003,6.654663e+001
1.259337e+003,6.637395e+001
1.260301e+003,6.618407e+001
1.261265e+003,6.602110e+001
1.262230e+003,6.596770e+001
1.263194e+003,6.584550e+001
1.264158e+003,6.577093e+001
1.265122e+003,6.588942e+001
1.266087e+003,6.598293e+001
1.267051e+003,6.581596e+001
1.268015e+003,6.558318e+001
1.268979e+003,6.567807e+001
1.269943e+003,6.624077e+001
1.270908e+003,6.715535e+001
1.271872e+003,6.848067e+001
1.272836e+003,6.996075e+001
1.273800e+003,7.096259e+001
1.274765e+003,7.151714e+001
1.275729e+003,7.204758e+001
1.276693e+003,7.282079e+001
1.277657e+003,7.350933e+001
1.278622e+003,7.343712e+001
1.279586e+003,7.249608e+001
1.280550e+003,7.197436e+001
1.281514e+003,7.234361e+001
1.282479e+003,7.293645e+001
1.283443e+003,7.410102e+001
1.284407e+003,7.485173e+001
1.285371e+003,7.353611e+001
1.286335e+003,7.111717e+001
1.287300e+003,7.043521e+001
1.288264e+003,7.297093e+001
1.289228e+003,7.681433e+001
1.290192e+003,7.906460e+001
1.291157e+003,7.963923e+001
1.292121e+003,7.843020e+001
1.293085e+003,7.430471e+001
1.294049e+003,7.158515e+001
1.295014e+003,7.311786e+001
1.295978e+003,7.595868e+001
1.296942e+003,7.606288e+001
1.297906e+003,7.376708e+001
1.298870e+003,7.364656e+001
1.299835e+003,7.828658e+001
1.300799e+003,8.204704e+001
1.301763e+003,7.968410e+001
1.302727e+003,7.595963e+001
1.303692e+003,7.556747e+001
1.304656e+003,7.817404e+001
1.305620e+003,8.063882e+001
1.306584e+003,8.108617e+001
1.307549e+003,8.035748e+001
1.308513e+003,8.002662e+001
1.309477e+003,7.995498e+001
1.310441e+003,8.095241e+001
1.311406e+003,8.487102e+001
1.312370e+003,8.737294e+001
1.313334e+003,8.738171e+001
1.314298e+003,8.617466e+001
1.315263e+003,8.399614e+001
1.316227e+003,8.158211e+001
1.317191e+003,8.076262e+001
1.318155e+003,8.237450e+001
1.319120e+003,8.485829e+001
1.320084e+003,8.698006e+001
1.321048e+003,8.846836e+001
1.322012e+003,8.865511e+001
1.322976e+003,8.763612e+001
1.323941e+003,8.673483e+001
1.324905e+003,8.655283e+001
1.325869e+003,8.695205e+001
1.326833e+003,8.796443e+001
1.327798e+003,8.954131e+001
1.328762e+003,9.005869e+001
1.329726e+003,8.888822e+001
1.330690e+003,8.743008e+001
1.331655e+003,8.486794e+001
1.332619e+003,8.336073e+001
1.333583e+003,8.553429e+001
1.334547e+003,8.960710e+001
1.335511e+003,9.190906e+001
1.336476e+003,9.102583e+001
1.337440e+003,8.910451e+001
1.338404e+003,8.881895e+001
1.339368e+003,9.002814e+001
1.340333e+003,9.133218e+001
1.341297e+003,9.339753e+001
1.342261e+003,9.334011e+001
1.343225e+003,8.861248e+001
1.344190e+003,8.405801e+001
1.345154e+003,8.349937e+001
1.346118e+003,8.554261e+001
1.347082e+003,8.647124e+001
1.348047e+003,8.537542e+001
1.349011e+003,8.485069e+001
1.349975e+003,8.715636e+001
1.350939e+003,9.002251e+001
1.351903e+003,9.091969e+001
1.352868e+003,9.045634e+001
1.353832e+003,8.975270e+001
1.354796e+003,8.916368e+001
1.355760e+003,8.898386e+001
1.356725e+003,8.953942e+001
1.357689e+003,9.071359e+001
1.358653e+003,9.207898e+001
1.359617e+003,9.406880e+001
1.360582e+003,9.496761e+001
1.361546e+003,9.320460e+001
1.362510e+003,9.203078e+001
1.363474e+003,9.337894e+001
1.364438e+003,9.545396e+001
1.365403e+003,9.594562e+001
1.366367e+003,9.481049e+001
1.367331e+003,9.382841e+001
1.368295e+003,9.418214e+001
1.369260e+003,9.511952e+001
1.370224e+003,9.535667e+001
1.371188e+003,9.503928e+001
1.372152e+003,9.500455e+001
1.373117e+003,9.509743e+001
1.374081e+003,9.528620e+001
1.375045e+003,9.563366e+001
1.376009e+003,9.606924e+001
1.376974e+003,9.637753e+001
1.377938e+003,9.672826e+001
1.378902e+003,9.810785e+001
1.379866e+003,1.012933e+002
1.380830e+003,1.033735e+002
1.381795e+003,1.004890e+002
1.382759e+003,9.699357e+001
1.383723e+003,9.754618e+001
1.384687e+003,1.009352e+002
1.385652e+003,1.029255e+002
1.386616e+003,1.019226e+002
1.387580e+003,1.006101e+002
1.388544e+003,1.025406e+002
1.389509e+003,1.071143e+002
1.390473e+003,1.089362e+002
1.391437e+003,1.067779e+002
1.392401e+003,1.048916e+002
1.393365e+003,1.030175e+002
1.394330e+003,1.019790e+002
1.395294e+003,1.026808e+002
1.396258e+003,1.039551e+002
1.397222e+003,1.045092e+002
1.398187e+003,1.043225e+002
1.399151e+003,1.041132e+002
1.400115e+003,1.042520e+002
1.401079e+003,1.049651e+002
1.402044e+003,1.071833e+002
1.403008e+003,1.108820e+002
1.403972e+003,1.118348e+002
1.404936e+003,1.086951e+002
1.405901e+003,1.065094e+002
1.406865e+003,1.074656e+002
1.407829e+003,1.095492e+002
1.408793e+003,1.107386e+002
1.409757e+003,1.112323e+002
1.410722e+003,1.123490e+002
1.411686e+003,1.145674e+002
1.412650e+003,1.159474e+002
1.413614e+003,1.146078e+002
1.414579e+003,1.124922e+002
1.415543e+003,1.115007e+002
1.416507e+003,1.115628e+002
1.417471e+003,1.123673e+002
1.418436e+003,1.137427e+002
1.419400e+003,1.152229e+002
1.420364e+003,1.165000e+002
1.421328e+003,1.176579e+002
1.422292e+003,1.187633e+002
1.423257e+003,1.199199e+002
1.424221e+003,1.201727e+002
1.425185e+003,1.174142e+002
1.426149e+003,1.159625e+002
1.427114e+003,1.185326e+002
1.428078e+003,1.222322e+002
1.429042e+003,1.241300e+002
1.430006e+003,1.242434e+002
1.430971e+003,1.241673e+002
1.431935e+003,1.247789e+002
1.432899e+003,1.256170e+002
1.433863e+003,1.260779e+002
1.434828e+003,1.262271e+002
1.435792e+003,1.257500e+002
1.436756e+003,1.234053e+002
1.437720e+003,1.224613e+002
1.438684e+003,1.244878e+002
1.439649e+003,1.267538e+002
1.440613e+003,1.278744e+002
1.441577e+003,1.281418e+002
1.442541e+003,1.277555e+002
1.443506e+003,1.268411e+002
1.444470e+003,1.264941e+002
1.445434e+003,1.275570e+002
1.446398e+003,1.292214e+002
1.447363e+003,1.303189e+002
1.448327e+003,1.309869e+002
1.449291e+003,1.318902e+002
1.450255e+003,1.331483e+002
1.451219e+003,1.335323e+002
1.452184e+003,1.315683e+002
1.453148e+003,1.293933e+002
1.454112e+003,1.303344e+002
1.455076e+003,1.337264e+002
1.456041e+003,1.352507e+002
1.457005e+003,1.337827e+002
1.457969e+003,1.331760e+002
1.458933e+003,1.358411e+002
1.459898e+003,1.390096e+002
1.460862e+003,1.415192e+002
1.461826e+003,1.430261e+002
1.462790e+003,1.426790e+002
1.463755e+003,1.407702e+002
1.464719e+003,1.394424e+002
1.465683e+003,1.403475e+002
1.466647e+003,1.422980e+002
1.467611e+003,1.422783e+002
1.468576e+003,1.397287e+002
1.469540e+003,1.389329e+002
1.470504e+003,1.419594e+002
1.471468e+003,1.437962e+002
1.472433e+003,1.428564e+002
1.473397e+003,1.414809e+002
1.474361e+003,1.406523e+002
1.475325e+003,1.406431e+002
1.476290e+003,1.421393e+002
1.477254e+003,1.447641e+002
1.478218e+003,1.462245e+002
1.479182e+003,1.446698e+002
1.480146e+003,1.419600e+002
1.481111e+003,1.424237e+002
1.482075e+003,1.465114e+002
1.483039e+003,1.480880e+002
1.484003e+003,1.453170e+002
1.484968e+003,1.433261e+002
1.485932e+003,1.445118e+002
1.486896e+003,1.459436e+002
1.487860e+003,1.445607e+002
1.488825e+003,1.413755e+002
1.489789e+003,1.393216e+002
1.490753e+003,1.391692e+002
1.491717e+003,1.396683e+002
1.492682e+003,1.401567e+002
1.493646e+003,1.404208e+002
1.494610e+003,1.396529e+002
1.495574e+003,1.383514e+002
1.496538e+003,1.384010e+002
1.497503e+003,1.402038e+002
1.498467e+003,1.420510e+002
1.499431e+003,1.433401e+002
1.500395e+003,1.438846e+002
1.501360e+003,1.432061e+002
1.502324e+003,1.416980e+002
1.503288e+003,1.409239e+002
1.504252e+003,1.411867e+002
1.505217e+003,1.411940e+002
1.506181e+003,1.405970e+002
1.507145e+003,1.392696e+002
1.508109e+003,1.357257e+002
1.509073e+003,1.321110e+002
1.510038e+003,1.326316e+002
1.511002e+003,1.372839e+002
1.511966e+003,1.413885e+002
1.512930e+003,1.420340e+002
1.513895e+003,1.409463e+002
1.514859e+003,1.409975e+002
1.515823e+003,1.420451e+002
1.516787e+003,1.421171e+002
1.517752e+003,1.411007e+002
1.518716e+003,1.397906e+002
1.519680e+003,1.369022e+002
1.520644e+003,1.351179e+002
1.521609e+003,1.367724e+002
1.522573e+003,1.395154e+002
1.523537e+003,1.408346e+002
1.524501e+003,1.404916e+002
1.525465e+003,1.391912e+002
1.526430e+003,1.373425e+002
1.527394e+003,1.357706e+002
1.528358e+003,1.360052e+002
1.529322e+003,1.379212e+002
1.530287e+003,1.385363e+002
1.531251e+003,1.373681e+002
1.532215e+003,1.359879e+002
1.533179e+003,1.335102e+002
1.534144e+003,1.318638e+002
1.535108e+003,1.323319e+002
1.536072e+003,1.335524e+002
1.537036e+003,1.344336e+002
1.538000e+003,1.346835e+002
1.538965e+003,1.341081e+002
1.539929e+003,1.326420e+002
1.540893e+003,1.307421e+002
1.541857e+003,1.289517e+002
1.542822e+003,1.274623e+002
1.543786e+003,1.265765e+002
1.544750e+003,1.263210e+002
1.545714e+003,1.262794e+002
1.546679e+003,1.262104e+002
1.547643e+003,1.265463e+002
1.548607e+003,1.282659e+002
1.549571e+003,1.299459e+002
1.550536e+003,1.295943e+002
1.551500e+003,1.278777e+002
1.552464e+003,1.273170e+002
1.553428e+003,1.286751e+002
1.554392e+003,1.300047e+002
1.555357e+003,1.297124e+002
1.556321e+003,1.280785e+002
1.557285e+003,1.252623e+002
1.558249e+003,1.215589e+002
1.559214e+003,1.203542e+002
1.560178e+003,1.228703e+002
1.561142e+003,1.246723e+002
1.562106e+003,1.238149e+002
1.563071e+003,1.218792e+002
1.564035e+003,1.198722e+002
1.564999e+003,1.182066e+002
1.565963e+003,1.176493e+002
1.566927e+003,1.182089e+002
1.567892e+003,1.188802e+002
1.568856e+003,1.194357e+002
1.569820e+003,1.190494e+002
1.570784e+003,1.158802e+002
1.571749e+003,1.114333e+002
1.572713e+003,1.095930e+002
1.573677e+003,1.104037e+002
1.574641e+003,1.111941e+002
1.575606e+003,1.111074e+002
1.576570e+003,1.105765e+002
1.577534e+003,1.101480e+002
1.578498e+003,1.095452e+002
1.579463e+003,1.078198e+002
1.580427e+003,1.050450e+002
1.581391e+003,1.031417e+002
1.582355e+003,1.028347e+002
1.583319e+003,1.027959e+002
1.584284e+003,1.023753e+002
1.585248e+003,1.017101e+002
1.586212e+003,1.005770e+002
1.587176e+003,9.908897e+001
1.588141e+003,9.813377e+001
1.589105e+003,9.801324e+001
1.590069e+003,9.742267e+001
1.591033e+003,9.509569e+001
1.591998e+003,9.225161e+001
1.592962e+003,9.076534e+001
1.593926e+003,9.038700e+001
1.594890e+003,8.973114e+001
1.595854e+003,8.861786e+001
1.596819e+003,8.801976e+001
1.597783e+003,8.870109e+001
1.598747e+003,8.914894e+001
1.599711e+003,8.816701e+001
1.600676e+003,8.637447e+001
1.601640e+003,8.416654e+001
1.602604e+003,8.192030e+001
1.603568e+003,8.072673e+001
1.604533e+003,8.102639e+001
1.605497e+003,8.141957e+001
1.606461e+003,8.052028e+001
1.607425e+003,7.872532e+001
1.608390e+003,7.699776e+001
1.609354e+003,7.540538e+001
1.610318e+003,7.440236e+001
1.611282e+003,7.432395e+001
1.612246e+003,7.370630e+001
1.613211e+003,7.079018e+001
1.614175e+003,6.818990e+001
1.615139e+003,6.845444e+001
1.616103e+003,7.005381e+001
1.617068e+003,7.026006e+001
1.618032e+003,6.881669e+001
1.618996e+003,6.756927e+001
1.619960e+003,6.758783e+001
1.620925e+003,6.777376e+001
1.621889e+003,6.628880e+001
1.622853e+003,6.360632e+001
1.623817e+003,6.272590e+001
1.624781e+003,6.413753e+001
1.625746e+003,6.476929e+001
1.626710e+003,6.334748e+001
1.627674e+003,6.198176e+001
1.628638e+003,6.225311e+001
1.629603e+003,6.233821e+001
1.630567e+003,6.030825e+001
1.631531e+003,5.711872e+001
1.632495e+003,5.496812e+001
1.633460e+003,5.437838e+001
1.634424e+003,5.420089e+001
1.635388e+003,5.358324e+001
1.636352e+003,5.279380e+001
1.637317e+003,5.231807e+001
1.638281e+003,5.213915e+001
1.639245e+003,5.225254e+001
1.640209e+003,5.286244e+001
1.641173e+003,5.291267e+001
1.642138e+003,5.236880e+001
1.643102e+003,5.096739e+001
1.644066e+003,4.756276e+001
1.645030e+003,4.410365e+001
1.645995e+003,4.250713e+001
1.646959e+003,4.249317e+001
1.647923e+003,4.317062e+001
1.648887e+003,4.414845e+001
1.649852e+003,4.460920e+001
1.650816e+003,4.381197e+001
1.651780e+003,4.221430e+001
1.652744e+003,4.037991e+001
1.653708e+003,3.836078e+001
1.654673e+003,3.837095e+001
1.655637e+003,4.141785e+001
1.656601e+003,4.317267e+001
1.657565e+003,4.136668e+001
1.658530e+003,3.935535e+001
1.659494e+003,3.930921e+001
1.660458e+003,3.975794e+001
1.661422e+003,3.927821e+001
1.662387e+003,3.783567e+001
1.663351e+003,3.556575e+001
1.664315e+003,3.259987e+001
1.665279e+003,3.029885e+001
1.666244e+003,3.008698e+001
1.667208e+003,3.092670e+001
1.668172e+003,3.068825e+001
1.669136e+003,2.939992e+001
1.670100e+003,2.773062e+001
1.671065e+003,2.542561e+001
1.672029e+003,2.404349e+001
1.672993e+003,2.451353e+001
1.673957e+003,2.556833e+001
1.674922e+003,2.697731e+001
1.675886e+003,2.800527e+001
1.676850e+003,2.777986e+001
1.677814e+003,2.642106e+001
1.678779e+003,2.429679e+001
1.679743e+003,2.151149e+001
1.680707e+003,1.930389e+001
1.681671e+003,1.872556e+001
1.682635e+003,1.917958e+001
1.683600e+003,1.995301e+001
1.684564e+003,2.092913e+001
1.685528e+003,2.115884e+001
1.686492e+003,2.044013e+001
1.687457e+003,1.930436e+001
1.688421e+003,1.763969e+001
1.689385e+003,1.628185e+001
1.690349e+003,1.590707e+001
1.691314e+003,1.625581e+001
1.692278e+003,1.768988e+001
1.693242e+003,1.957106e+001
1.694206e+003,1.943871e+001
1.695171e+003,1.651869e+001
1.696135e+003,1.382875e+001
1.697099e+003,1.354728e+001
1.698063e+003,1.419744e+001
1.699027e+003,1.382462e+001
1.699992e+003,1.286122e+001
1.700956e+003,1.274160e+001
1.701920e+003,1.356067e+001
1.702884e+003,1.389705e+001
1.703849e+003,1.315562e+001
1.704813e+003,1.218884e+001
1.705777e+003,1.148586e+001
1.706741e+003,1.113554e+001
1.707706e+003,1.167742e+001
1.708670e+003,1.274841e+001
1.709634e+003,1.263430e+001
1.710598e+003,1.086139e+001
1.711563e+003,9.476755e+000
1.712527e+003,9.655844e+000
1.713491e+003,1.018671e+001
1.714455e+003,1.011694e+001
1.715419e+003,9.744894e+000
1.716384e+003,9.612844e+000
1.717348e+003,9.685715e+000
1.718312e+003,9.552564e+000
1.719276e+003,9.077594e+000
1.720241e+003,8.414169e+000
1.721205e+003,7.615912e+000
1.722169e+003,6.857507e+000
1.723133e+003,6.371219e+000
1.724098e+003,6.225595e+000
1.725062e+003,6.739136e+000
1.726026e+003,8.160553e+000
1.726990e+003,8.955945e+000
1.727954e+003,8.509112e+000
1.728919e+003,7.865042e+000
1.729883e+003,7.574402e+000
1.730847e+003,7.259354e+000
1.731811e+003,6.304276e+000
1.732776e+003,5.066904e+000
1.733740e+003,4.551856e+000
1.734704e+003,4.813531e+000
1.735668e+003,4.624969e+000
1.736633e+003,3.273923e+000
1.737597e+003,2.075412e+000
1.738561e+003,2.920929e+000
1.739525e+003,5.173660e+000
1.740490e+003,5.637213e+000
1.741454e+003,3.596295e+000
1.742418e+003,2.318817e+000
1.743382e+003,2.248730e+000
1.744346e+003,2.216510e+000
1.745311e+003,1.887930e+000
1.746275e+003,1.720285e+000
1.747239e+003,2.109784e+000
1.748203e+003,2.771478e+000
1.749168e+003,3.405075e+000
1.750132e+003,3.921783e+000
1.751096e+003,4.350876e+000
1.752060e+003,4.655441e+000
1.753025e+003,4.604520e+000
1.753989e+003,3.984653e+000
1.754953e+003,3.007025e+000
1.755917e+003,2.152850e+000
1.756881e+003,1.423859e+000
1.757846e+003,2.511414e-001
1.758810e+003,-2.026883e+000
1.759774e+003,-2.730521e+000
1.760738e+003,-1.547180e-001
1.761703e+003,2.120422e+000
1.762667e+003,2.850586e+000
1.763631e+003,2.785815e+000
1.764595e+003,2.198807e+000
1.765560e+003,1.462134e+000
1.766524e+003,1.190845e+000
1.767488e+003,1.349332e+000
1.768452e+003,1.140668e+000
1.769417e+003,1.248932e-001
1.770381e+003,-9.399414e-001
1.771345e+003,-1.127866e+000
1.772309e+003,-8.038238e-001
1.773273e+003,-9.996704e-001
1.774238e+003,-1.648828e+000
1.775202e+003,-1.722296e+000
1.776166e+003,-9.913757e-001
1.777130e+003,-1.730286e-001
1.778095e+003,7.016846e-001
1.779059e+003,1.090610e+000
1.780023e+003,-3.898621e-002
1.780987e+003,-1.589816e+000
1.781952e+003,-1.471259e+000
1.782916e+003,-1.094147e-001
1.783880e+003,3.369018e-001
1.784844e+003,-6.160858e-001
1.785808e+003,-1.509155e+000
1.786773e+003,-1.916354e+000
1.787737e+003,-1.858667e+000
1.788701e+003,-8.814026e-001
1.789665e+003,2.200134e-001
1.790630e+003,8.229675e-002
1.791594e+003,-9.921325e-001
1.792558e+003,-1.693744e+000
1.793522e+003,-1.692578e+000
1.794487e+003,-1.503223e+000
1.795451e+003,-1.421777e+000
1.796415e+003,-1.305008e+000
1.797379e+003,-1.021014e+000
1.798344e+003,-5.631897e-001
1.799308e+003,2.549835e-001
1.800272e+003,1.639990e+000
1.801236e+003,2.442084e+000
1.802201e+003,3.097684e+000
1.803165e+003,2.707672e+000
1.804129e+003,-2.996643e-001
1.805093e+003,-2.691736e+000
1.806057e+003,-1.948431e+000
1.807022e+003,-2.991028e-001
1.807986e+003,-4.394562e-001
1.808950e+003,-1.930875e+000
1.809914e+003,-2.890671e+000
1.810879e+003,-2.766678e+000
1.811843e+003,-2.300735e+000
1.812807e+003,-2.030719e+000
1.813771e+003,-2.009390e+000
1.814736e+003,-2.445538e+000
1.815700e+003,-3.129718e+000
1.816664e+003,-2.750037e+000
1.817628e+003,-1.131830e+000
1.818593e+003,-4.253632e-001
1.819557e+003,-1.243036e+000
1.820521e+003,-1.739108e+000
1.821485e+003,-9.527069e-001
1.822449e+003,-6.898499e-002
1.823414e+003,-1.687469e-001
1.824378e+003,-6.115357e-001
1.825342e+003,-3.945160e-001
1.826306e+003,3.002502e-001
1.827271e+003,4.975250e-001
1.828235e+003,-4.653626e-002
1.829199e+003,-7.923706e-001
1.830163e+003,-1.566498e+000
1.831128e+003,-2.282791e+000
1.832092e+003,-3.239136e+000
1.833056e+003,-3.881009e+000
1.834020e+003,-3.085663e+000
1.834984e+003,-1.212787e+000
1.835949e+003,6.965759e-001
1.836913e+003,2.305975e+000
1.837877e+003,2.953363e+000
1.838841e+003,2.225345e+000
1.839806e+003,7.975342e-001
1.840770e+003,-7.031158e-001
1.841734e+003,-2.024222e+000
1.842698e+003,-2.275952e+000
1.843663e+003,-1.261536e+000
1.844627e+003,-5.881195e-001
1.845591e+003,-5.714813e-001
1.846555e+003,-4.469879e-001
1.847520e+003,-3.373627e-001
1.848484e+003,-8.432006e-003
1.849448e+003,1.139371e+000
1.850412e+003,2.145447e+000
1.851376e+003,2.198773e+000
1.852341e+003,1.520941e+000
1.853305e+003,1.073303e-001
1.854269e+003,-1.571222e+000
1.855233e+003,-1.941348e+000
1.856198e+003,-3.114594e-001
1.857162e+003,1.654767e+000
1.858126e+003,2.352399e+000
1.859090e+003,2.219476e+000
1.860055e+003,1.802905e+000
1.861019e+003,1.227188e+000
1.861983e+003,1.797488e+000
1.862947e+003,3.655713e+000
1.863911e+003,4.261694e+000
1.864876e+003,2.736771e+000
1.865840e+003,1.291022e+000
1.866804e+003,1.154629e+000
1.867768e+003,1.520151e+000
1.868733e+003,1.069287e+000
1.869697e+003,5.311707e-001
1.870661e+003,2.868146e+000
1.871625e+003,8.118658e+000
1.872590e+003,9.836761e+000
1.873554e+003,4.979767e+000
1.874518e+003,1.446799e+000
1.875482e+003,2.288760e+000
1.876447e+003,4.041360e+000
1.877411e+003,5.149826e+000
1.878375e+003,5.659842e+000
1.879339e+003,5.569543e+000
1.880303e+003,5.008527e+000
1.881268e+003,3.981946e+000
1.882232e+003,2.742059e+000
1.883196e+003,2.184680e+000
1.884160e+003,2.748007e+000
1.885125e+003,3.450943e+000
1.886089e+003,3.078751e+000
1.887053e+003,2.284540e+000
1.888017e+003,3.218021e+000
1.888982e+003,5.928137e+000
1.889946e+003,7.376569e+000
1.890910e+003,7.362226e+000
1.891874e+003,7.088364e+000
1.892839e+003,6.590204e+000
1.893803e+003,6.185208e+000
1.894767e+003,6.089194e+000
1.895731e+003,6.126803e+000
1.896695e+003,6.198422e+000
1.897660e+003,6.236850e+000
1.898624e+003,6.165500e+000
1.899588e+003,5.966705e+000
1.900552e+003,5.461438e+000
1.901517e+003,4.382749e+000
1.902481e+003,3.766971e+000
1.903445e+003,4.507645e+000
1.904409e+003,5.314520e+000
1.905374e+003,5.160693e+000
1.906338e+003,4.812768e+000
1.907302e+003,5.214224e+000
1.908266e+003,6.044080e+000
1.909230e+003,6.621078e+000
1.910195e+003,6.790265e+000
1.911159e+003,6.569913e+000
1.912123e+003,6.047983e+000
1.913087e+003,5.749057e+000
1.914052e+003,6.174619e+000
1.915016e+003,6.841693e+000
1.915980e+003,6.701218e+000
1.916944e+003,5.854919e+000
1.917909e+003,5.667215e+000
1.918873e+003,6.299942e+000
1.919837e+003,6.800476e+000
1.920801e+003,7.171670e+000
1.921766e+003,7.041602e+000
1.922730e+003,5.804825e+000
1.923694e+003,4.654929e+000
1.924658e+003,4.457748e+000
1.925622e+003,4.873306e+000
1.926587e+003,6.025916e+000
1.927551e+003,7.445160e+000
1.928515e+003,7.252622e+000
1.929479e+003,5.073801e+000
1.930444e+003,3.538052e+000
1.931408e+003,3.797375e+000
1.932372e+003,4.151568e+000
1.933336e+003,3.611679e+000
1.934301e+003,3.084921e+000
1.935265e+003,3.358749e+000
1.936229e+003,4.118591e+000
1.937193e+003,5.098480e+000
1.938157e+003,6.001160e+000
1.939122e+003,6.251529e+000
1.940086e+003,5.826556e+000
1.941050e+003,5.286450e+000
1.942014e+003,4.977689e+000
1.942979e+003,5.142316e+000
1.943943e+003,6.168246e+000
1.944907e+003,7.731809e+000
1.945871e+003,9.167706e+000
1.946836e+003,1.044680e+001
1.947800e+003,9.936938e+000
1.948764e+003,7.230865e+000
1.949728e+003,6.050992e+000
1.950693e+003,7.578409e+000
1.951657e+003,8.990451e+000
1.952621e+003,8.992798e+000
1.953585e+003,8.385330e+000
1.954549e+003,7.710367e+000
1.955514e+003,7.050321e+000
1.956478e+003,6.633368e+000
1.957442e+003,6.440417e+000
1.958406e+003,6.120929e+000
1.959371e+003,5.446668e+000
1.960335e+003,5.219150e+000
1.961299e+003,5.788678e+000
1.962263e+003,6.523950e+000
1.963228e+003,7.654535e+000
1.964192e+003,8.364752e+000
1.965156e+003,7.352399e+000
1.966120e+003,6.123117e+000
1.967084e+003,6.962241e+000
1.968049e+003,9.204550e+000
1.969013e+003,1.073121e+001
1.969977e+003,1.094729e+001
1.970941e+003,1.053209e+001
1.971906e+003,9.873346e+000
1.972870e+003,8.901144e+000
1.973834e+003,7.192004e+000
1.974798e+003,5.480338e+000
1.975763e+003,5.154434e+000
1.976727e+003,5.806509e+000
1.977691e+003,6.311881e+000
1.978655e+003,6.606345e+000
1.979620e+003,7.137576e+000
1.980584e+003,8.008371e+000
1.981548e+003,8.256131e+000
1.982512e+003,7.289148e+000
1.983476e+003,6.290823e+000
1.984441e+003,6.532138e+000
1.985405e+003,7.520636e+000
1.986369e+003,8.098514e+000
1.987333e+003,8.303668e+000
1.988298e+003,8.624331e+000
1.989262e+003,8.988095e+000
1.990226e+003,9.545184e+000
1.991190e+003,1.079798e+001
1.992155e+003,1.136523e+001
1.993119e+003,1.057635e+001
1.994083e+003,9.465445e+000
1.995047e+003,7.927691e+000
1.996011e+003,6.788721e+000
1.996976e+003,7.370117e+000
1.997940e+003,8.926306e+000
1.998904e+003,9.454315e+000
1.999868e+003,8.840811e+000
2.000833e+003,9.088135e+000
2.001797e+003,1.116249e+001
2.002761e+003,1.284149e+001
2.003725e+003,1.319558e+001
2.004690e+003,1.296154e+001
2.005654e+003,1.198517e+001
2.006618e+003,1.121768e+001
2.007582e+003,1.234789e+001
2.008547e+003,1.401462e+001
2.009511e+003,1.347344e+001
2.010475e+003,1.104673e+001
2.011439e+003,9.214871e+000
2.012403e+003,8.854037e+000
2.013368e+003,9.100998e+000
2.014332e+003,9.406061e+000
2.015296e+003,9.451083e+000
2.016260e+003,8.275378e+000
2.017225e+003,6.908710e+000
2.018189e+003,8.498279e+000
2.019153e+003,1.197961e+001
2.020117e+003,1.271556e+001
2.021082e+003,1.065017e+001
2.022046e+003,9.325052e+000
2.023010e+003,9.664917e+000
2.023974e+003,1.040674e+001
2.024938e+003,1.086116e+001
2.025903e+003,1.130635e+001
2.026867e+003,1.215342e+001
2.027831e+003,1.276723e+001
2.028795e+003,1.147090e+001
2.029760e+003,8.426752e+000
2.030724e+003,7.452692e+000
2.031688e+003,9.476969e+000
2.032652e+003,9.790588e+000
2.033617e+003,6.844491e+000
2.034581e+003,5.486542e+000
2.035545e+003,7.821097e+000
2.036509e+003,1.062337e+001
2.037474e+003,1.250936e+001
2.038438e+003,1.354706e+001
2.039402e+003,1.386294e+001
2.040366e+003,1.344516e+001
2.041330e+003,1.188919e+001
2.042295e+003,9.286978e+000
2.043259e+003,7.771997e+000
2.044223e+003,8.156034e+000
2.045187e+003,8.106580e+000
2.046152e+003,5.853793e+000
2.047116e+003,4.895825e+000
2.048080e+003,8.066278e+000
2.049044e+003,1.126378e+001
2.050009e+003,1.146555e+001
2.050973e+003,1.020781e+001
2.051937e+003,9.053177e+000
2.052901e+003,8.356771e+000
2.053865e+003,8.351568e+000
2.054830e+003,8.913424e+000
2.055794e+003,9.316998e+000
2.056758e+003,9.245295e+000
2.057722e+003,9.058828e+000
2.058687e+003,9.001175e+000
2.059651e+003,9.014368e+000
2.060615e+003,9.120859e+000
2.061579e+003,9.129309e+000
2.062544e+003,8.602560e+000
2.063508e+003,7.948300e+000
2.064472e+003,7.916235e+000
2.065436e+003,8.550253e+000
2.066401e+003,9.891790e+000
2.067365e+003,1.165956e+001
2.068329e+003,1.240703e+001
2.069293e+003,1.125109e+001
2.070258e+003,9.480350e+000
2.071222e+003,8.457891e+000
2.072186e+003,8.265454e+000
2.073150e+003,9.641027e+000
2.074115e+003,1.196219e+001
2.075079e+003,1.203488e+001
2.076043e+003,1.014157e+001
2.077007e+003,1.009933e+001
2.077971e+003,1.239782e+001
2.078936e+003,1.283220e+001
2.079900e+003,9.783991e+000
2.080864e+003,7.129376e+000
2.081828e+003,7.678699e+000
2.082792e+003,9.694491e+000
2.083757e+003,1.081313e+001
2.084721e+003,1.125146e+001
2.085685e+003,1.183182e+001
2.086649e+003,1.260729e+001
2.087614e+003,1.260075e+001
2.088578e+003,1.157567e+001
2.089542e+003,1.092377e+001
2.090506e+003,1.075955e+001
2.091471e+003,1.094627e+001
2.092435e+003,1.161329e+001
2.093399e+003,1.237076e+001
2.094363e+003,1.319291e+001
2.095328e+003,1.359528e+001
2.096292e+003,1.262448e+001
2.097256e+003,1.080616e+001
2.098220e+003,1.014763e+001
2.099185e+003,1.083301e+001
2.100149e+003,1.132606e+001
2.101113e+003,1.147825e+001
2.102077e+003,1.161751e+001
2.103042e+003,1.204511e+001
2.104006e+003,1.202496e+001
2.104970e+003,1.085202e+001
2.105934e+003,9.870053e+000
2.106898e+003,9.871594e+000
2.107863e+003,1.031476e+001
2.108827e+003,1.081218e+001
2.109791e+003,1.129534e+001
2.110755e+003,1.161581e+001
2.111719e+003,1.175007e+001
2.112684e+003,1.183985e+001
2.113648e+003,1.195768e+001
2.114612e+003,1.197871e+001
2.115576e+003,1.195289e+001
2.116541e+003,1.163793e+001
2.117505e+003,1.081363e+001
2.118469e+003,9.879196e+000
2.119433e+003,8.496783e+000
2.120398e+003,7.659680e+000
2.121362e+003,9.026019e+000
2.122326e+003,1.131775e+001
2.123290e+003,1.202507e+001
2.124255e+003,1.116761e+001
2.125219e+003,1.047586e+001
2.126183e+003,1.038127e+001
2.127147e+003,1.107921e+001
2.128112e+003,1.359952e+001
2.129076e+003,1.553150e+001
2.130040e+003,1.480341e+001
2.131004e+003,1.378260e+001
2.131969e+003,1.480062e+001
2.132933e+003,1.614309e+001
2.133897e+003,1.559716e+001
2.134861e+003,1.395369e+001
2.135825e+003,1.285667e+001
2.136790e+003,1.243614e+001
2.137754e+003,1.185805e+001
2.138718e+003,1.093561e+001
2.139682e+003,1.066704e+001
2.140646e+003,1.188934e+001
2.141611e+003,1.296222e+001
2.142575e+003,1.175740e+001
2.143539e+003,1.050772e+001
2.144503e+003,1.247941e+001
2.145468e+003,1.510497e+001
2.146432e+003,1.424243e+001
2.147396e+003,1.145417e+001
2.148360e+003,1.021321e+001
2.149325e+003,1.072179e+001
2.150289e+003,1.163085e+001
2.151253e+003,1.235536e+001
2.152217e+003,1.263221e+001
2.153182e+003,1.232620e+001
2.154146e+003,1.202171e+001
2.155110e+003,1.234820e+001
2.156074e+003,1.283098e+001
2.157039e+003,1.278558e+001
2.158003e+003,1.244829e+001
2.158967e+003,1.199694e+001
2.159931e+003,1.177013e+001
2.160896e+003,1.286024e+001
2.161860e+003,1.471861e+001
2.162824e+003,1.521276e+001
2.163788e+003,1.407098e+001
2.164752e+003,1.304550e+001
2.165717e+003,1.299765e+001
2.166681e+003,1.296994e+001
2.167645e+003,1.201931e+001
2.168609e+003,1.116398e+001
2.169573e+003,1.235026e+001
2.170538e+003,1.431349e+001
2.171502e+003,1.440421e+001
2.172466e+003,1.329362e+001
2.173430e+003,1.267239e+001
2.174395e+003,1.253633e+001
2.175359e+003,1.207504e+001
2.176323e+003,1.129058e+001
2.177287e+003,1.117422e+001
2.178252e+003,1.199572e+001
2.179216e+003,1.272760e+001
2.180180e+003,1.265082e+001
2.181144e+003,1.198232e+001
2.182109e+003,1.063653e+001
2.183073e+003,9.349811e+000
2.184037e+003,9.943781e+000
2.185001e+003,1.160978e+001
2.185966e+003,1.251517e+001
2.186930e+003,1.267115e+001
2.187894e+003,1.196107e+001
2.188858e+003,1.074277e+001
2.189823e+003,1.058138e+001
2.190787e+003,1.173866e+001
2.191751e+003,1.304750e+001
2.192715e+003,1.386534e+001
2.193679e+003,1.385994e+001
2.194644e+003,1.253993e+001
2.195608e+003,1.099683e+001
2.196572e+003,1.136981e+001
2.197536e+003,1.266629e+001
2.198500e+003,1.212467e+001
2.199465e+003,1.056587e+001
2.200429e+003,1.063417e+001
2.201393e+003,1.201998e+001
2.202357e+003,1.274356e+001
2.203322e+003,1.246091e+001
2.204286e+003,1.172913e+001
2.205250e+003,1.087125e+001
2.206214e+003,1.027296e+001
2.207179e+003,1.019727e+001
2.208143e+003,1.081793e+001
2.209107e+003,1.257498e+001
2.210071e+003,1.462226e+001
2.211036e+003,1.534481e+001
2.212000e+003,1.520406e+001
2.212964e+003,1.541978e+001
2.213928e+003,1.569615e+001
2.214893e+003,1.475699e+001
2.215857e+003,1.298695e+001
2.216821e+003,1.210720e+001
2.217785e+003,1.252026e+001
2.218750e+003,1.381706e+001
2.219714e+003,1.569699e+001
2.220678e+003,1.738621e+001
2.221642e+003,1.828162e+001
2.222606e+003,1.884582e+001
2.223571e+003,1.963182e+001
2.224535e+003,2.046740e+001
2.225499e+003,2.102906e+001
2.226463e+003,2.145016e+001
2.227427e+003,2.174015e+001
2.228392e+003,2.222116e+001
2.229356e+003,2.408863e+001
2.230320e+003,2.691871e+001
2.231284e+003,2.861806e+001
2.232249e+003,2.876310e+001
2.233213e+003,2.889943e+001
2.234177e+003,2.984475e+001
2.235141e+003,3.093743e+001
2.236106e+003,3.152457e+001
2.237070e+003,3.225102e+001
2.238034e+003,3.398776e+001
2.238998e+003,3.617211e+001
2.239963e+003,3.812425e+001
2.240927e+003,3.997297e+001
2.241891e+003,4.181710e+001
2.242855e+003,4.386571e+001
2.243820e+003,4.685204e+001
2.244784e+003,5.032788e+001
2.245748e+003,5.227806e+001
2.246712e+003,5.251550e+001
2.247677e+003,5.398513e+001
2.248641e+003,5.834624e+001
2.249605e+003,6.232272e+001
2.250569e+003,6.299897e+001
2.251533e+003,6.262743e+001
2.252498e+003,6.276234e+001
2.253462e+003,6.338751e+001
2.254426e+003,6.539185e+001
2.255390e+003,6.721098e+001
2.256354e+003,6.653017e+001
2.257319e+003,6.411465e+001
2.258283e+003,6.171970e+001
2.259247e+003,5.953552e+001
2.260211e+003,5.681906e+001
2.261176e+003,5.340540e+001
2.262140e+003,4.983475e+001
2.263104e+003,4.623464e+001
2.264068e+003,4.277401e+001
2.265033e+003,3.917276e+001
2.265997e+003,3.625399e+001
2.266961e+003,3.488243e+001
2.267925e+003,3.394022e+001
2.268890e+003,3.294587e+001
2.269854e+003,3.156161e+001
2.270818e+003,2.903802e+001
2.271782e+003,2.622062e+001
2.272747e+003,2.485662e+001
2.273711e+003,2.455633e+001
2.274675e+003,2.306382e+001
2.275639e+003,1.992421e+001
2.276604e+003,1.730078e+001
2.277568e+003,1.574222e+001
2.278532e+003,1.475897e+001
2.279496e+003,1.443542e+001
2.280460e+003,1.425998e+001
2.281425e+003,1.417827e+001
2.282389e+003,1.404586e+001
2.283353e+003,1.400101e+001
2.284317e+003,1.376027e+001
2.285281e+003,1.275257e+001
2.286246e+003,1.150450e+001
2.287210e+003,1.083003e+001
2.288174e+003,1.073415e+001
2.289138e+003,1.129684e+001
2.290103e+003,1.284665e+001
2.291067e+003,1.328701e+001
2.292031e+003,1.181979e+001
2.292995e+003,1.083674e+001
2.293960e+003,1.096554e+001
2.294924e+003,1.043252e+001
2.295888e+003,8.151776e+000
2.296852e+003,6.437924e+000
2.297817e+003,6.719119e+000
2.298781e+003,7.523450e+000
2.299745e+003,7.642752e+000
2.300709e+003,7.336526e+000
2.301674e+003,6.948880e+000
2.302638e+003,6.490338e+000
2.303602e+003,6.109003e+000
2.304566e+003,5.787085e+000
2.305531e+003,5.345206e+000
2.306495e+003,4.769910e+000
2.307459e+003,4.555810e+000
2.308423e+003,4.733713e+000
2.309387e+003,5.312143e+000
2.310352e+003,6.363120e+000
2.311316e+003,6.742636e+000
2.312280e+003,5.884836e+000
2.313244e+003,4.728616e+000
2.314208e+003,3.994623e+000
2.315173e+003,3.786902e+000
2.316137e+003,4.495248e+000
2.317101e+003,5.330365e+000
2.318065e+003,3.528897e+000
2.319030e+003,1.376282e-001
2.319994e+003,-3.020477e-001
2.320958e+003,1.475156e+000
2.321922e+003,2.133801e+000
2.322887e+003,1.732864e+000
2.323851e+003,2.616641e+000
2.324815e+003,4.784183e+000
2.325779e+003,5.510477e+000
2.326744e+003,3.924802e+000
2.327708e+003,2.047772e+000
2.328672e+003,1.142487e+000
2.329636e+003,7.670563e-001
2.330601e+003,7.085479e-001
2.331565e+003,6.552490e-001
2.332529e+003,-1.230774e-002
2.333493e+003,-6.059906e-001
2.334458e+003,4.807434e-002
2.335422e+003,9.951813e-001
2.336386e+003,8.121643e-001
2.337350e+003,-1.380005e-002
2.338314e+003,-3.771362e-001
2.339279e+003,-3.739563e-001
2.340243e+003,-1.089978e+000
2.341207e+003,-2.520233e+000
2.342171e+003,-2.616440e+000
2.343135e+003,-3.423981e-001
2.344100e+003,1.369754e+000
2.345064e+003,1.334320e+000
2.346028e+003,6.871155e-001
2.346992e+003,-8.461761e-001
2.347957e+003,-1.972586e+000
2.348921e+003,-1.883945e+000
2.349885e+003,-1.378101e+000
2.350849e+003,-7.833282e-001
2.351814e+003,-3.613190e-001
2.352778e+003,-4.635437e-001
2.353742e+003,-9.079803e-001
2.354706e+003,-1.237942e+000
2.355671e+003,-1.440655e+000
2.356635e+003,-1.722687e+000
2.357599e+003,-2.202750e+000
2.358563e+003,-2.273291e+000
2.359528e+003,-1.647302e+000
2.360492e+003,-1.705426e+000
2.361456e+003,-2.852530e+000
2.362420e+003,-3.489932e+000
2.363385e+003,-3.015982e+000
2.364349e+003,-2.761908e+000
2.365313e+003,-3.494049e+000
2.366277e+003,-4.217087e+000
2.367241e+003,-3.975131e+000
2.368206e+003,-3.511908e+000
2.369170e+003,-4.105551e+000
2.370134e+003,-5.237045e+000
2.371098e+003,-5.238248e+000
2.372063e+003,-4.465292e+000
2.373027e+003,-4.442886e+000
2.373991e+003,-4.931464e+000
2.374955e+003,-5.087958e+000
2.375919e+003,-4.864276e+000
2.376884e+003,-4.412155e+000
2.377848e+003,-3.806378e+000
2.378812e+003,-2.960324e+000
2.379776e+003,-1.961813e+000
2.380741e+003,-1.601208e+000
2.381705e+003,-2.334802e+000
2.382669e+003,-3.050311e+000
2.383633e+003,-3.005444e+000
2.384598e+003,-2.457114e+000
2.385562e+003,-8.246673e-001
2.386526e+003,2.234283e-001
2.387490e+003,-1.470203e+000
2.388455e+003,-3.519165e+000
2.389419e+003,-3.337793e+000
2.390383e+003,-2.257947e+000
2.391347e+003,-2.265604e+000
2.392312e+003,-3.024243e+000
2.393276e+003,-3.335260e+000
2.394240e+003,-3.141748e+000
2.395204e+003,-2.990579e+000
2.396168e+003,-2.858701e+000
2.397133e+003,-3.042532e+000
2.398097e+003,-4.556272e+000
2.399061e+003,-4.382254e+000
2.400025e+003,-9.431580e-001
2.400990e+003,1.008423e+000
2.401954e+003,-2.740662e-001
2.402918e+003,-1.497687e+000
2.403882e+003,-1.034085e+000
2.404846e+003,-4.096710e-001
2.405811e+003,-9.077514e-001
2.406775e+003,-1.640161e+000
2.407739e+003,-1.338031e+000
2.408703e+003,-4.428864e-001
2.409668e+003,-8.110352e-002
2.410632e+003,-1.579987e-001
2.411596e+003,-2.441437e-001
2.412560e+003,-4.030701e-001
2.413525e+003,-9.363831e-001
2.414489e+003,-1.723019e+000
2.415453e+003,-2.263864e+000
2.416417e+003,-2.494092e+000
2.417382e+003,-2.700021e+000
2.418346e+003,-2.897574e+000
2.419310e+003,-2.572339e+000
2.420274e+003,-1.547046e+000
2.421239e+003,-7.008148e-001
2.422203e+003,-6.561401e-001
2.423167e+003,-6.864471e-001
2.424131e+003,-5.105713e-001
2.425095e+003,8.681335e-002
2.426060e+003,2.150436e+000
2.427024e+003,3.634930e+000
2.427988e+003,2.197430e+000
2.428952e+003,1.889679e-001
2.429917e+003,9.601440e-002
2.430881e+003,9.594574e-001
2.431845e+003,1.115176e+000
2.432809e+003,6.888489e-001
2.433773e+003,5.024292e-001
2.434738e+003,5.762787e-001
2.435702e+003,7.666626e-001
2.436666e+003,1.136594e+000
2.437630e+003,1.331635e+000
2.438595e+003,1.050964e+000
2.439559e+003,2.126031e+000
2.440523e+003,5.187399e+000
2.441487e+003,6.703589e+000
2.442452e+003,5.507886e+000
2.443416e+003,4.346011e+000
2.444380e+003,4.635144e+000
2.445344e+003,5.032580e+000
2.446309e+003,4.400144e+000
2.447273e+003,3.876190e+000
2.448237e+003,4.991687e+000
2.449201e+003,6.951962e+000
2.450166e+003,9.538318e+000
2.451130e+003,1.123086e+001
2.452094e+003,7.859787e+000
2.453058e+003,3.127957e+000
2.454022e+003,3.808914e+000
2.454987e+003,7.019406e+000
2.455951e+003,6.272192e+000
2.456915e+003,2.748651e+000
2.457879e+003,1.661999e+000
2.458844e+003,3.498944e+000
2.459808e+003,5.065543e+000
2.460772e+003,5.636618e+000
2.461736e+003,5.835721e+000
2.462700e+003,5.163058e+000
2.463665e+003,5.123001e+000
2.464629e+003,6.635141e+000
2.465593e+003,7.659528e+000
2.466557e+003,7.688922e+000
2.467522e+003,7.310580e+000
2.468486e+003,6.609909e+000
2.469450e+003,5.999350e+000
2.470414e+003,5.720129e+000
2.471379e+003,5.965680e+000
2.472343e+003,6.998627e+000
2.473307e+003,8.439816e+000
2.474271e+003,9.612821e+000
2.475236e+003,1.048382e+001
2.476200e+003,1.100171e+001
2.477164e+003,1.110292e+001
2.478128e+003,1.038391e+001
2.479093e+003,9.179682e+000
2.480057e+003,8.035437e+000
2.481021e+003,7.296503e+000
2.481985e+003,7.886407e+000
2.482949e+003,9.474689e+000
2.483914e+003,1.052801e+001
2.484878e+003,1.062193e+001
2.485842e+003,1.020799e+001
2.486806e+003,9.252286e+000
2.487771e+003,8.983713e+000
2.488735e+003,1.050646e+001
2.489699e+003,1.172770e+001
2.490663e+003,1.217423e+001
2.491627e+003,1.202918e+001
2.492592e+003,1.064382e+001
2.493556e+003,9.894541e+000
2.494520e+003,1.116298e+001
2.495484e+003,1.241478e+001
2.496449e+003,1.176760e+001
2.497413e+003,1.058361e+001
2.498377e+003,1.091193e+001
2.499341e+003,1.211266e+001
2.500306e+003,1.243976e+001
2.501270e+003,1.218770e+001
2.502234e+003,1.281804e+001
2.503198e+003,1.395707e+001
2.504163e+003,1.426533e+001
2.505127e+003,1.382837e+001
2.506091e+003,1.274784e+001
2.507055e+003,1.161967e+001
2.508020e+003,1.202202e+001
2.508984e+003,1.390043e+001
2.509948e+003,1.588257e+001
2.510912e+003,1.744777e+001
2.511876e+003,1.821855e+001
2.512841e+003,1.772193e+001
2.513805e+003,1.783193e+001
2.514769e+003,2.006392e+001
2.515733e+003,2.151522e+001
2.516698e+003,2.038785e+001
2.517662e+003,1.993561e+001
2.518626e+003,2.185304e+001
2.519590e+003,2.352017e+001
2.520554e+003,2.324747e+001
2.521519e+003,2.304429e+001
2.522483e+003,2.471963e+001
2.523447e+003,2.710645e+001
2.524411e+003,2.857090e+001
2.525376e+003,2.948616e+001
2.526340e+003,3.073348e+001
2.527304e+003,3.204996e+001
2.528268e+003,3.255085e+001
2.529233e+003,3.263517e+001
2.530197e+003,3.291730e+001
2.531161e+003,3.372668e+001
2.532125e+003,3.618738e+001
2.533090e+003,3.934493e+001
2.534054e+003,4.073266e+001
2.535018e+003,4.045451e+001
2.535982e+003,4.029853e+001
2.536947e+003,4.072872e+001
2.537911e+003,4.220366e+001
2.538875e+003,4.553788e+001
2.539839e+003,4.775292e+001
2.540803e+003,4.714314e+001
2.541768e+003,4.775120e+001
2.542732e+003,5.065788e+001
2.543696e+003,5.276978e+001
2.544660e+003,5.309471e+001
2.545625e+003,5.385778e+001
2.546589e+003,5.619160e+001
2.547553e+003,5.814179e+001
2.548517e+003,5.814817e+001
2.549482e+003,5.729363e+001
2.550446e+003,5.687260e+001
2.551410e+003,5.643502e+001
2.552374e+003,5.484405e+001
2.553339e+003,5.313572e+001
2.554303e+003,5.336336e+001
2.555267e+003,5.396286e+001
2.556231e+003,5.262727e+001
2.557196e+003,5.057119e+001
2.558160e+003,4.957315e+001
2.559124e+003,4.916408e+001
2.560088e+003,4.832854e+001
2.561052e+003,4.713676e+001
2.562017e+003,4.602084e+001
2.562981e+003,4.495555e+001
2.563945e+003,4.386506e+001
2.564909e+003,4.276305e+001
2.565874e+003,4.136563e+001
2.566838e+003,3.954527e+001
2.567802e+003,3.915585e+001
2.568766e+003,4.036411e+001
2.569730e+003,3.938777e+001
2.570695e+003,3.574950e+001
2.571659e+003,3.327520e+001
2.572623e+003,3.310592e+001
2.573587e+003,3.316995e+001
2.574552e+003,3.239420e+001
2.575516e+003,3.084618e+001
2.576480e+003,2.829767e+001
2.577444e+003,2.598939e+001
2.578409e+003,2.488139e+001
2.579373e+003,2.382908e+001
2.580337e+003,2.239235e+001
2.581301e+003,2.077758e+001
2.582266e+003,1.831192e+001
2.583230e+003,1.679914e+001
2.584194e+003,1.825550e+001
2.585158e+003,1.970092e+001
2.586123e+003,1.791365e+001
2.587087e+003,1.509766e+001
2.588051e+003,1.502809e+001
2.589015e+003,1.667288e+001
2.589979e+003,1.676548e+001
2.590944e+003,1.579009e+001
2.591908e+003,1.623409e+001
2.592872e+003,1.695332e+001
2.593836e+003,1.386500e+001
2.594801e+003,9.302759e+000
2.595765e+003,9.282598e+000
2.596729e+003,1.225356e+001
2.597693e+003,1.296866e+001
2.598657e+003,1.121130e+001
2.599622e+003,1.000154e+001
2.600586e+003,9.894903e+000
2.601550e+003,9.289105e+000
2.602514e+003,7.425797e+000
2.603479e+003,6.706088e+000
2.604443e+003,7.836240e+000
2.605407e+003,7.729953e+000
2.606371e+003,5.761554e+000
2.607336e+003,5.425336e+000
2.608300e+003,7.530789e+000
2.609264e+003,8.560740e+000
2.610228e+003,7.245010e+000
2.611193e+003,5.519519e+000
2.612157e+003,4.550470e+000
2.613121e+003,4.179669e+000
2.614085e+003,4.418881e+000
2.615050e+003,4.562640e+000
2.616014e+003,3.812250e+000
2.616978e+003,3.020563e+000
2.617942e+003,2.708475e+000
2.618906e+003,2.641489e+000
2.619871e+003,2.675259e+000
2.620835e+003,2.891650e+000
2.621799e+003,3.637848e+000
2.622763e+003,4.114487e+000
2.623728e+003,3.454828e+000
2.624692e+003,2.439945e+000
2.625656e+003,2.316748e+000
2.626620e+003,2.692963e+000
2.627584e+003,2.380569e+000
2.628549e+003,1.783514e+000
2.629513e+003,2.826572e+000
2.630477e+003,4.307053e+000
2.631441e+003,2.739960e+000
2.632406e+003,5.300903e-002
2.633370e+003,4.438080e-001
2.634334e+003,2.782834e+000
2.635298e+003,4.142795e+000
2.636263e+003,4.311460e+000
2.637227e+003,4.309527e+000
2.638191e+003,4.241565e+000
2.639155e+003,3.132156e+000
2.640120e+003,5.362183e-001
2.641084e+003,-8.799744e-002
2.642048e+003,1.712942e+000
2.643012e+003,2.058649e+000
2.643977e+003,7.611359e-001
2.644941e+003,8.292877e-001
2.645905e+003,2.543185e+000
2.646869e+003,4.025855e+000
2.647833e+003,4.595712e+000
2.648798e+003,3.892068e+000
2.649762e+003,1.967270e+000
2.650726e+003,5.309113e-001
2.651690e+003,5.013214e-001
2.652655e+003,7.767151e-001
2.653619e+003,1.090610e+000
2.654583e+003,1.286047e+000
2.655547e+003,1.377176e+000
2.656511e+003,1.246048e+000
2.657476e+003,8.065552e-001
2.658440e+003,8.942566e-002
2.659404e+003,-1.050076e+000
2.660368e+003,-1.524503e+000
2.661333e+003,-5.700287e-001
2.662297e+003,8.328674e-001
2.663261e+003,1.762033e+000
2.664225e+003,2.165100e+000
2.665190e+003,1.673718e+000
2.666154e+003,1.102960e+000
2.667118e+003,1.523022e+000
2.668082e+003,2.213318e+000
2.669047e+003,3.152768e+000
2.670011e+003,3.285486e+000
2.670975e+003,5.785888e-001
2.671939e+003,-2.363696e+000
2.672904e+003,-2.682281e+000
2.673868e+003,-1.334229e+000
2.674832e+003,7.173309e-001
2.675796e+003,2.681558e+000
2.676760e+003,2.328659e+000
2.677725e+003,3.546112e-001
2.678689e+003,-6.372040e-001
2.679653e+003,-6.893524e-001
2.680617e+003,5.743836e-001
2.681582e+003,2.268140e+000
2.682546e+003,2.680145e+000
2.683510e+003,2.183014e+000
2.684474e+003,1.608203e+000
2.685438e+003,1.071997e+000
2.686403e+003,3.218262e-001
2.687367e+003,-4.989868e-001
2.688331e+003,-3.786499e-001
2.689295e+003,7.426819e-001
2.690260e+003,2.180206e+000
2.691224e+003,4.178601e+000
2.692188e+003,3.806934e+000
2.693152e+003,1.155902e+000
2.694117e+003,-4.050446e-001
2.695081e+003,-6.905670e-001
2.696045e+003,-1.154272e+000
2.697009e+003,-1.854038e+000
2.697974e+003,-1.462964e+000
2.698938e+003,3.891296e-002
2.699902e+003,5.661621e-001
2.700866e+003,-6.433777e-001
2.701831e+003,-1.301163e+000
2.702795e+003,-4.360901e-001
2.703759e+003,2.511017e-001
2.704723e+003,6.082703e-001
2.705688e+003,1.151758e+000
2.706652e+003,2.083502e+000
2.707616e+003,1.752069e+000
2.708580e+003,-1.866943e-001
2.709544e+003,-1.396451e+000
2.710509e+003,-1.012918e+000
2.711473e+003,-6.372345e-001
2.712437e+003,-1.170670e+000
2.713401e+003,-1.335596e+000
2.714365e+003,-1.841431e-002
2.715330e+003,1.214200e+000
2.716294e+003,1.933716e+000
2.717258e+003,1.816364e+000
2.718222e+003,1.080841e-001
2.719187e+003,-1.538300e+000
2.720151e+003,-2.821262e+000
2.721115e+003,-3.370917e+000
2.722079e+003,-2.937106e+000
2.723044e+003,-2.394028e+000
2.724008e+003,-2.401398e+000
2.724972e+003,-2.185379e+000
2.725936e+003,-8.785003e-001
2.726901e+003,7.298157e-001
2.727865e+003,2.092728e+000
2.728829e+003,2.952026e+000
2.729793e+003,2.943085e+000
2.730758e+003,2.529373e+000
2.731722e+003,1.982050e+000
2.732686e+003,1.131628e+000
2.733650e+003,-5.268555e-001
2.734615e+003,-1.741315e+000
2.735579e+003,-1.326627e+000
2.736543e+003,-4.238709e-001
2.737507e+003,-5.534241e-001
2.738471e+003,-1.214301e+000
2.739436e+003,-1.837445e+000
2.740400e+003,-1.982513e+000
2.741364e+003,-1.346954e-001
2.742328e+003,1.823206e+000
2.743292e+003,1.446921e+000
2.744257e+003,1.947937e-001
2.745221e+003,-3.458008e-001
2.746185e+003,-6.760162e-001
2.747149e+003,-1.929443e+000
2.748114e+003,-3.122620e+000
2.749078e+003,-2.673535e+000
2.750042e+003,-1.216037e+000
2.751006e+003,-4.564728e-001
2.751971e+003,-1.388458e-001
2.752935e+003,8.506409e-001
2.753899e+003,1.941220e+000
2.754863e+003,1.674127e+000
2.755828e+003,7.922913e-001
2.756792e+003,3.591400e-001
2.757756e+003,3.360474e-001
2.758720e+003,6.733704e-001
2.759685e+003,1.100806e+000
2.760649e+003,1.048321e+000
2.761613e+003,7.065216e-001
2.762577e+003,6.108795e-001
2.763542e+003,7.157318e-001
2.764506e+003,9.069366e-001
2.765470e+003,1.137891e+000
2.766434e+003,1.121646e+000
2.767398e+003,9.471619e-001
2.768363e+003,7.338684e-001
2.769327e+003,5.504181e-001
2.770291e+003,6.107880e-001
2.771255e+003,8.262237e-001
2.772219e+003,7.878143e-001
2.773184e+003,5.911347e-001
2.774148e+003,1.135989e+000
2.775112e+003,2.289740e+000
2.776076e+003,1.745572e+000
2.777041e+003,-5.232514e-001
2.778005e+003,-1.117712e+000
2.778969e+003,-3.332062e-001
2.779933e+003,4.985901e-001
2.780898e+003,9.828033e-001
2.781862e+003,7.006226e-002
2.782826e+003,-1.625507e+000
2.783790e+003,-2.298459e+000
2.784755e+003,-1.863980e+000
2.785719e+003,-1.314209e+000
2.786683e+003,-7.825470e-001
2.787647e+003,-1.876526e-001
2.788612e+003,5.995026e-001
2.789576e+003,-3.673584e-001
2.790540e+003,-2.945615e+000
2.791504e+003,-2.858417e+000
2.792469e+003,-6.350098e-001
2.793433e+003,-4.511047e-001
2.794397e+003,-1.846622e+000
2.795361e+003,-9.733246e-001
2.796325e+003,1.967670e+000
2.797290e+003,3.515195e+000
2.798254e+003,3.014056e+000
2.799218e+003,1.349777e+000
2.800182e+003,-1.886057e+000
2.801146e+003,-2.273022e+000
2.802111e+003,5.779266e-001
2.803075e+003,2.475226e+000
2.804039e+003,3.190170e+000
2.805003e+003,3.011896e+000
2.805968e+003,2.122009e+000
2.806932e+003,9.419311e-001
2.807896e+003,-2.135437e-001
2.808860e+003,-1.025534e+000
2.809825e+003,-1.425626e+000
2.810789e+003,-1.383279e+000
2.811753e+003,-8.017029e-001
2.812717e+003,-5.731964e-001
2.813682e+003,-9.531494e-001
2.814646e+003,-1.069275e-001
2.815610e+003,1.941803e+000
2.816574e+003,2.553955e+000
2.817539e+003,1.659372e+000
2.818503e+003,1.774323e-001
2.819467e+003,-1.369611e+000
2.820431e+003,-1.927328e+000
2.821396e+003,-1.477399e+000
2.822360e+003,-1.740656e+000
2.823324e+003,-3.295871e+000
2.824288e+003,-2.424142e+000
2.825252e+003,2.486191e+000
2.826217e+003,3.262646e+000
2.827181e+003,-2.341766e-001
2.828145e+003,-1.202780e+000
2.829109e+003,4.022980e-001
2.830073e+003,1.175888e+000
2.831038e+003,6.598694e-001
2.832002e+003,-6.068481e-001
2.832966e+003,-2.055597e+000
2.833930e+003,-2.079526e+000
2.834895e+003,-3.283051e-001
2.835859e+003,7.738556e-001
2.836823e+003,9.236511e-001
2.837787e+003,1.029327e+000
2.838752e+003,1.106955e+000
2.839716e+003,8.855011e-001
2.840680e+003,4.487335e-001
2.841644e+003,3.151367e-001
2.842609e+003,6.120636e-001
2.843573e+003,1.957983e+000
2.844537e+003,3.833258e+000
2.845501e+003,3.932092e+000
2.846466e+003,1.945496e+000
2.847430e+003,7.039337e-001
2.848394e+003,5.894226e-001
2.849358e+003,1.400543e-001
2.850323e+003,-6.763886e-001
2.851287e+003,-7.671967e-001
2.852251e+003,-2.406220e-001
2.853215e+003,-2.495056e-001
2.854179e+003,-4.326538e-001
2.855144e+003,1.533820e+000
2.856108e+003,4.574033e+000
2.857072e+003,3.950385e+000
2.858036e+003,-3.149139e-001
2.859000e+003,-2.140143e+000
2.859965e+003,-1.129388e+000
2.860929e+003,-4.227844e-001
2.861893e+003,-6.420288e-002
2.862857e+003,8.517731e-001
2.863822e+003,2.065637e+000
2.864786e+003,1.621512e+000
2.865750e+003,2.866974e-001
2.866714e+003,8.266662e-001
2.867679e+003,2.538696e+000
2.868643e+003,2.810309e+000
2.869607e+003,1.639615e+000
2.870571e+003,5.036408e-001
2.871536e+003,-4.087952e-001
2.872500e+003,1.142151e-001
2.873464e+003,1.932205e+000
2.874428e+003,2.267996e+000
2.875393e+003,1.501547e+000
2.876357e+003,5.001801e-001
2.877321e+003,-2.483673e-001
2.878285e+003,2.686920e-001
2.879250e+003,1.467371e+000
2.880214e+003,2.274768e+000
2.881178e+003,2.531183e+000
2.882142e+003,2.173300e+000
2.883106e+003,1.461157e+000
2.884071e+003,1.357242e+000
2.885035e+003,1.723520e+000
2.885999e+003,1.969382e+000
2.886963e+003,1.967410e+000
2.887927e+003,1.084598e+000
2.888892e+003,1.233002e-001
2.889856e+003,4.927856e-001
2.890820e+003,1.478024e+000
2.891784e+003,1.680145e+000
2.892749e+003,1.785413e+000
2.893713e+003,3.389682e+000
2.894677e+003,5.213785e+000
2.895641e+003,4.068967e+000
2.896606e+003,1.262891e+000
2.897570e+003,1.781006e-001
2.898534e+003,2.549255e-001
2.899498e+003,1.198865e+000
2.900463e+003,2.079233e+000
2.901427e+003,1.358789e+000
2.902391e+003,6.171662e-001
2.903355e+003,2.172611e+000
2.904320e+003,3.708230e+000
2.905284e+003,2.756097e+000
2.906248e+003,6.516937e-001
2.907212e+003,-7.928925e-001
2.908177e+003,-1.338092e+000
2.909141e+003,1.840668e-001
2.910105e+003,1.809024e+000
2.911069e+003,1.108487e+000
2.912033e+003,1.077576e-002
2.912998e+003,-8.817139e-002
2.913962e+003,1.762909e-001
2.914926e+003,4.832001e-001
2.915890e+003,5.691376e-001
2.916854e+003,2.067078e-001
2.917819e+003,4.642029e-002
2.918783e+003,7.838837e-001
2.919747e+003,1.688266e+000
2.920711e+003,2.386835e+000
2.921676e+003,2.393326e+000
2.922640e+003,4.846832e-001
2.923604e+003,-7.346161e-001
2.924568e+003,1.674347e-001
2.925533e+003,8.826477e-001
2.926497e+003,5.511535e-001
2.927461e+003,7.469483e-002
2.928425e+003,1.098938e-001
2.929390e+003,-9.510010e-001
2.930354e+003,-4.941446e+000
2.931318e+003,-7.232867e+000
2.932282e+003,-3.004010e+000
2.933247e+003,1.446228e-001
2.934211e+003,5.909973e-001
2.935175e+003,4.430939e-001
2.936139e+003,-6.263825e-001
2.937104e+003,-2.007446e+000
2.938068e+003,-3.291708e+000
2.939032e+003,-1.913007e+000
2.939996e+003,2.333774e+000
2.940960e+003,5.324939e+000
2.941925e+003,5.437735e+000
2.942889e+003,4.675342e+000
2.943853e+003,3.107522e+000
2.944817e+003,2.781061e+000
2.945781e+003,4.282565e+000
2.946746e+003,3.349948e+000
2.947710e+003,7.527161e-002
2.948674e+003,-9.114685e-001
2.949638e+003,5.265778e-001
2.950603e+003,2.523770e+000
2.951567e+003,4.239026e+000
2.952531e+003,4.546533e+000
2.953495e+003,3.353619e+000
2.954460e+003,2.175223e+000
2.955424e+003,1.100995e+000
2.956388e+003,3.044190e-001
2.957352e+003,-2.048279e-001
2.958317e+003,-2.125946e-001
2.959281e+003,2.417389e-001
2.960245e+003,1.383108e+000
2.961209e+003,2.651623e+000
2.962174e+003,2.949811e+000
2.963138e+003,2.576611e+000
2.964102e+003,2.429251e+000
2.965066e+003,2.403226e+000
2.966031e+003,2.151770e+000
2.966995e+003,1.761453e+000
2.967959e+003,1.387167e+000
2.968923e+003,1.159430e+000
2.969887e+003,1.666623e+000
2.970852e+003,2.179181e+000
2.971816e+003,1.470740e+000
2.972780e+003,6.921082e-001
2.973744e+003,1.488022e+000
2.974708e+003,2.109546e+000
2.975673e+003,9.415283e-001
2.976637e+003,-4.950714e-001
2.977601e+003,-4.187836e-001
2.978565e+003,3.992859e-001
2.979530e+003,1.237476e+000
2.980494e+003,1.948642e+000
2.981458e+003,2.711951e+000
2.982422e+003,2.860300e+000
2.983387e+003,1.529669e+000
2.984351e+003,4.774811e-001
2.985315e+003,3.371552e-001
2.986279e+003,6.179565e-001
2.987244e+003,1.030685e+000
2.988208e+003,9.641327e-001
2.989172e+003,-3.035889e-002
2.990136e+003,-6.755798e-001
2.991101e+003,1.951294e-002
2.992065e+003,7.760102e-001
2.993029e+003,1.414011e+000
2.993993e+003,1.843402e+000
2.994958e+003,2.030899e+000
2.995922e+003,1.982794e+000
2.996886e+003,1.766730e+000
2.997850e+003,1.650299e+000
2.998814e+003,1.673407e+000
2.999779e+003,1.707593e+000
3.000743e+003,1.697470e+000
3.001707e+003,1.165277e+000
3.002671e+003,-5.731201e-003
3.003635e+003,-6.672791e-001
3.004600e+003,-8.187103e-001
3.005564e+003,1.227356e-001
3.006528e+003,1.595862e+000
3.007492e+003,1.732767e+000
3.008457e+003,1.033392e+000
3.009421e+003,1.030689e+000
3.010385e+003,1.507678e+000
3.011349e+003,1.505014e+000
3.012314e+003,9.971588e-001
3.013278e+003,-2.718201e-001
3.014242e+003,-1.732443e+000
3.015206e+003,-1.107074e+000
3.016171e+003,2.841583e-001
3.017135e+003,1.164398e-001
3.018099e+003,-4.687012e-001
3.019063e+003,-4.999664e-001
3.020028e+003,2.225220e-001
3.020992e+003,2.227377e+000
3.021956e+003,3.487463e+000
3.022920e+003,2.113763e+000
3.023885e+003,3.139496e-001
3.024849e+003,6.090790e-001
3.025813e+003,1.318182e+000
3.026777e+003,9.474090e-001
3.027741e+003,2.721283e-001
3.028706e+003,-5.750610e-001
3.029670e+003,-1.228351e+000
3.030634e+003,-1.638232e+000
3.031598e+003,-1.526840e+000
3.032563e+003,-8.495544e-001
3.033527e+003,1.084503e-001
3.034491e+003,1.193417e+000
3.035455e+003,2.219638e+000
3.036420e+003,3.296085e+000
3.037384e+003,2.857437e+000
3.038348e+003,-5.441192e-001
3.039312e+003,-1.389267e+000
3.040277e+003,4.123535e-001
3.041241e+003,8.612488e-001
3.042205e+003,-4.870911e-002
3.043169e+003,-6.438538e-001
3.044134e+003,-6.816162e-001
3.045098e+003,-3.211578e-001
3.046062e+003,1.861145e-001
3.047026e+003,2.674255e-002
3.047990e+003,-5.409851e-001
3.048955e+003,-1.562683e-001
3.049919e+003,9.214447e-001
3.050883e+003,2.081448e+000
3.051847e+003,2.640311e+000
3.052812e+003,3.099579e-001
3.053776e+003,-2.168506e+000
3.054740e+003,-8.385712e-001
3.055704e+003,1.344702e+000
3.056668e+003,1.632343e+000
3.057633e+003,1.122263e+000
3.058597e+003,9.231842e-001
3.059561e+003,1.093573e+000
3.060525e+003,2.370709e+000
3.061490e+003,2.857806e+000
3.062454e+003,-8.929443e-002
3.063418e+003,-2.306705e+000
3.064382e+003,-2.392590e+000
3.065347e+003,-8.656861e-001
3.066311e+003,2.219409e+000
3.067275e+003,3.768918e+000
3.068239e+003,2.779205e+000
3.069204e+003,1.630844e+000
3.070168e+003,1.349683e+000
3.071132e+003,6.341736e-001
3.072096e+003,-1.543506e+000
3.073061e+003,-2.056525e+000
3.074025e+003,-7.300873e-001
3.074989e+003,9.270813e-001
3.075953e+003,2.490299e+000
3.076917e+003,2.577521e+000
3.077882e+003,1.474615e+000
3.078846e+003,9.299012e-002
3.079810e+003,-1.150485e+000
3.080774e+003,-1.814230e+000
3.081739e+003,-1.866345e+000
3.082703e+003,-9.626404e-001
3.083667e+003,3.821533e-001
3.084631e+003,2.467438e-001
3.085595e+003,-3.730499e-001
3.086560e+003,3.379150e-001
3.087524e+003,1.209955e+000
3.088488e+003,7.736694e-001
3.089452e+003,2.777557e-001
3.090417e+003,6.272339e-001
3.091381e+003,9.994446e-001
3.092345e+003,7.547699e-001
3.093309e+003,2.365112e-001
3.094274e+003,-3.028809e-001
3.095238e+003,-8.391235e-001
3.096202e+003,-1.513577e+000
3.097166e+003,-1.809723e+000
3.098131e+003,-1.706146e+000
3.099095e+003,-9.201599e-001
3.100059e+003,4.872162e-001
3.101023e+003,8.921661e-001
3.101988e+003,1.328552e-001
3.102952e+003,-4.516998e-001
3.103916e+003,-5.559967e-001
3.104880e+003,-1.170020e+000
3.105844e+003,-2.404309e+000
3.106809e+003,-2.379547e+000
3.107773e+003,-1.271549e+000
3.108737e+003,-1.065451e+000
3.109701e+003,-1.664371e+000
3.110666e+003,-3.366299e+000
3.111630e+003,-4.946864e+000
3.112594e+003,-3.979123e+000
3.113558e+003,-2.358417e+000
3.114522e+003,-2.919159e+000
3.115487e+003,-3.674066e+000
3.116451e+003,-1.594434e+000
3.117415e+003,1.190305e+000
3.118379e+003,1.858157e+000
3.119344e+003,1.455356e+000
3.120308e+003,2.054138e-002
3.121272e+003,-1.108179e+000
3.122236e+003,-1.501282e+000
3.123201e+003,-1.221628e+000
3.124165e+003,-3.302917e-001
3.125129e+003,-1.893463e-001
3.126093e+003,-1.257550e+000
3.127058e+003,-2.071039e+000
3.128022e+003,-1.985681e+000
3.128986e+003,-1.764819e+000
3.129950e+003,-1.502261e+000
3.130915e+003,-1.141058e+000
3.131879e+003,-7.350830e-001
3.132843e+003,-1.317575e+000
3.133807e+003,-2.283728e+000
3.134771e+003,-1.402875e+000
3.135736e+003,3.513641e-001
3.136700e+003,2.931641e-001
3.137664e+003,-9.346619e-001
3.138628e+003,-1.882880e+000
3.139593e+003,-2.592056e+000
3.140557e+003,-3.427130e+000
3.141521e+003,-3.718796e+000
3.142485e+003,-1.467902e+000
3.143449e+003,5.059906e-001
3.144414e+003,-1.959259e-001
3.145378e+003,-1.828635e+000
3.146342e+003,-3.957249e+000
3.147306e+003,-4.787486e+000
3.148271e+003,-3.545586e+000
3.149235e+003,-2.050333e+000
3.150199e+003,-1.297018e+000
3.151163e+003,-1.030347e+000
3.152128e+003,-1.288794e+000
3.153092e+003,-1.651077e+000
3.154056e+003,-2.154529e+000
3.155020e+003,-2.183102e+000
3.155985e+003,-1.870361e+000
3.156949e+003,-1.879272e+000
3.157913e+003,-2.231406e+000
3.158877e+003,-2.924428e+000
3.159842e+003,-3.756862e+000
3.160806e+003,-4.408034e+000
3.161770e+003,-4.506287e+000
3.162734e+003,-2.688882e+000
3.163698e+003,-1.835327e-001
3.164663e+003,5.687500e-001
3.165627e+003,2.025116e-001
3.166591e+003,-1.471100e+000
3.167555e+003,-2.710893e+000
3.168520e+003,-2.418851e+000
3.169484e+003,-2.313509e+000
3.170448e+003,-3.194281e+000
3.171412e+003,-3.214851e+000
3.172376e+003,-1.298941e+000
3.173341e+003,4.496399e-001
3.174305e+003,1.259317e+000
3.175269e+003,4.909119e-001
3.176233e+003,-2.376057e+000
3.177198e+003,-2.962674e+000
3.178162e+003,-1.498425e+000
3.179126e+003,-1.168784e+000
3.180090e+003,-1.769508e+000
3.181055e+003,-1.348270e+000
3.182019e+003,-3.667603e-001
3.182983e+003,-9.011444e-001
3.183947e+003,-2.238126e+000
3.184912e+003,-2.717389e+000
3.185876e+003,-2.451504e+000
3.186840e+003,-1.051227e+000
3.187804e+003,1.299072e-001
3.188769e+003,-7.392181e-001
3.189733e+003,-1.783687e+000
3.190697e+003,-2.061629e+000
3.191661e+003,-1.931895e+000
3.192625e+003,-1.541722e+000
3.193590e+003,-1.252286e+000
3.194554e+003,-1.262534e+000
3.195518e+003,-1.757408e+000
3.196482e+003,-3.166969e+000
3.197447e+003,-3.439912e+000
3.198411e+003,-2.283594e+000
3.199375e+003,-1.344057e+000
3.200339e+003,-6.310394e-001
3.201303e+003,3.194733e-001
3.202268e+003,1.315558e+000
3.203232e+003,1.818060e+000
3.204196e+003,1.882623e+000
3.205160e+003,1.799786e+000
3.206125e+003,1.596439e+000
3.207089e+003,1.329852e+000
3.208053e+003,9.056641e-001
3.209017e+003,-2.762848e-001
3.209982e+003,-1.093639e+000
3.210946e+003,-2.310608e-001
3.211910e+003,7.697388e-001
3.212874e+003,1.465201e+000
3.213839e+003,1.483362e+000
3.214803e+003,7.371399e-001
3.215767e+003,-2.671753e-001
3.216731e+003,-1.273058e+000
3.217696e+003,-2.323364e+000
3.218660e+003,-3.634253e+000
3.219624e+003,-2.674652e+000
3.220588e+003,6.379669e-001
3.221552e+003,8.475128e-001
3.222517e+003,-1.058900e+000
3.223481e+003,-2.476079e+000
3.224445e+003,-3.166843e+000
3.225409e+003,-2.871802e+000
3.226374e+003,-2.170316e+000
3.227338e+003,-1.704855e+000
3.228302e+003,-1.341968e+000
3.229266e+003,-9.223740e-001
3.230230e+003,-4.654816e-001
3.231195e+003,2.410706e-001
3.232159e+003,6.472901e-001
3.233123e+003,4.042145e-001
3.234087e+003,-1.618835e-001
3.235052e+003,-1.014046e+000
3.236016e+003,-1.259227e+000
3.236980e+003,-7.737045e-001
3.237944e+003,3.031158e-001
3.238909e+003,1.584836e+000
3.239873e+003,5.648834e-001
3.240837e+003,-2.339211e+000
3.241801e+003,-2.558153e+000
3.242766e+003,-9.710449e-001
3.243730e+003,-1.132265e+000
3.244694e+003,-2.112855e+000
3.245658e+003,-2.815045e+000
3.246623e+003,-3.322081e+000
3.247587e+003,-3.917131e+000
3.248551e+003,-3.880571e+000
3.249515e+003,-2.720624e+000
3.250479e+003,-1.777809e+000
3.251444e+003,-2.115592e+000
3.252408e+003,-2.499687e+000
3.253372e+003,-2.152879e+000
3.254336e+003,-2.052437e+000
3.255301e+003,-2.269931e+000
3.256265e+003,-2.072305e+000
3.257229e+003,-1.638924e+000
3.258193e+003,-2.263107e+000
3.259157e+003,-3.489146e+000
3.260122e+003,-3.806114e+000
3.261086e+003,-3.152792e+000
3.262050e+003,-1.688516e+000
3.263014e+003,-1.025543e-002
3.263979e+003,5.909210e-001
3.264943e+003,5.241974e-001
3.265907e+003,-4.119263e-002
3.266871e+003,-5.699509e-001
3.267836e+003,-7.571167e-001
3.268800e+003,-1.038361e+000
3.269764e+003,-1.508594e+000
3.270728e+003,-1.749570e+000
3.271693e+003,-1.643863e+000
3.272657e+003,-1.588832e+000
3.273621e+003,-1.739093e+000
3.274585e+003,-1.431461e+000
3.275550e+003,-6.126770e-001
3.276514e+003,-2.061874e-001
3.277478e+003,-1.829422e-001
3.278442e+003,-7.507599e-001
3.279406e+003,-1.411270e+000
3.280371e+003,-1.324120e+000
3.281335e+003,-1.129872e+000
3.282299e+003,-1.429372e+000
3.283263e+003,-1.678143e+000
3.284228e+003,-1.372166e+000
3.285192e+003,-9.215118e-001
3.286156e+003,-8.343948e-001
3.287120e+003,-2.661408e-001
3.288084e+003,1.214841e+000
3.289049e+003,2.239566e+000
3.290013e+003,2.635239e+000
3.290977e+003,1.569711e+000
3.291941e+003,-2.057159e-001
3.292906e+003,3.219147e-002
3.293870e+003,1.923172e+000
3.294834e+003,3.048221e+000
3.295798e+003,3.225540e+000
3.296763e+003,1.396027e+000
3.297727e+003,-8.363830e-001
3.298691e+003,-7.989044e-001
3.299655e+003,1.488709e-001
3.300620e+003,1.836694e+000
3.301584e+003,2.487579e+000
3.302548e+003,1.567950e+000
3.303512e+003,6.631470e-003
3.304477e+003,-1.581308e+000
3.305441e+003,-1.426543e+000
3.306405e+003,1.135941e+000
3.307369e+003,1.700131e+000
3.308333e+003,-7.204895e-002
3.309298e+003,9.276581e-002
3.310262e+003,1.495071e+000
3.311226e+003,2.332407e+000
3.312190e+003,2.596442e+000
3.313155e+003,2.206619e+000
3.314119e+003,1.512857e+000
3.315083e+003,6.429871e-001
3.316047e+003,6.981751e-001
3.317011e+003,2.727194e+000
3.317976e+003,3.976144e+000
3.318940e+003,1.358047e+000
3.319904e+003,1.105331e-001
3.320868e+003,1.364926e+000
3.321833e+003,2.195877e+000
3.322797e+003,2.562979e+000
3.323761e+003,4.205298e+000
3.324725e+003,6.197076e+000
3.325690e+003,5.120639e+000
3.326654e+003,2.481137e+000
3.327618e+003,2.136066e+000
3.328582e+003,2.913788e+000
3.329547e+003,2.684732e+000
3.330511e+003,2.162137e+000
3.331475e+003,2.015479e+000
3.332439e+003,2.093054e+000
3.333404e+003,2.520160e+000
3.334368e+003,2.286508e+000
3.335332e+003,1.314429e+000
3.336296e+003,1.485814e+000
3.337260e+003,2.879263e+000
3.338225e+003,2.832675e+000
3.339189e+003,9.705795e-001
3.340153e+003,1.423660e-001
3.341117e+003,1.736252e-001
3.342082e+003,1.967468e-002
3.343046e+003,5.293732e-002
3.344010e+003,1.731825e+000
3.344974e+003,2.659299e+000
3.345938e+003,6.169266e-001
3.346903e+003,-1.466238e+000
3.347867e+003,-2.197653e+000
3.348831e+003,-1.227484e+000
3.349795e+003,1.695985e+000
3.350760e+003,2.786105e+000
3.351724e+003,-4.091293e-001
3.352688e+003,-8.872223e-001
3.353652e+003,1.018317e+000
3.354617e+003,1.893755e+000
3.355581e+003,1.908722e+000
3.356545e+003,1.348088e+000
3.357509e+003,1.163550e+000
3.358474e+003,2.877664e+000
3.359438e+003,3.853961e+000
3.360402e+003,1.414279e+000
3.361366e+003,-8.542435e-001
3.362331e+003,1.254071e+000
3.363295e+003,2.376617e+000
3.364259e+003,-4.321045e-001
3.365223e+003,-1.088591e+000
3.366188e+003,5.847229e-001
3.367152e+003,1.298058e+000
3.368116e+003,9.847473e-001
3.369080e+003,1.201607e+000
3.370044e+003,1.557687e+000
3.371009e+003,5.609543e-001
3.371973e+003,-8.343933e-001
3.372937e+003,-7.406494e-001
3.373901e+003,-1.558990e-001
3.374865e+003,-1.338837e-001
3.375830e+003,-3.673721e-001
3.376794e+003,-9.867477e-001
3.377758e+003,-5.702637e-001
3.378722e+003,9.944137e-001
3.379687e+003,1.931819e+000
3.380651e+003,1.905934e+000
3.381615e+003,1.748520e+000
3.382579e+003,1.623338e+000
3.383544e+003,1.537146e+000
3.384508e+003,1.587686e+000
3.385472e+003,2.533878e+000
3.386436e+003,3.353302e+000
3.387401e+003,2.522766e+000
3.388365e+003,1.233226e+000
3.389329e+003,-1.605530e-001
3.390293e+003,3.086899e-001
3.391258e+003,3.158286e+000
3.392222e+003,4.870160e+000
3.393186e+003,4.026532e+000
3.394150e+003,4.219687e+000
3.395115e+003,5.886121e+000
3.396079e+003,5.950629e+000
3.397043e+003,5.030829e+000
3.398007e+003,4.706851e+000
3.398971e+003,5.127817e+000
3.399936e+003,7.238937e+000
3.400900e+003,8.544062e+000
3.401864e+003,7.469531e+000
3.402828e+003,6.066388e+000
3.403792e+003,5.719464e+000
3.404757e+003,6.403320e+000
3.405721e+003,8.634741e+000
3.406685e+003,1.028148e+001
3.407649e+003,1.123821e+001
3.408614e+003,1.137633e+001
3.409578e+003,1.143507e+001
3.410542e+003,1.388371e+001
3.411506e+003,1.678122e+001
3.412471e+003,1.691546e+001
3.413435e+003,1.612128e+001
3.414399e+003,1.616500e+001
3.415363e+003,1.661957e+001
3.416328e+003,1.710807e+001
3.417292e+003,1.774921e+001
3.418256e+003,1.854864e+001
3.419220e+003,1.986443e+001
3.420185e+003,2.149981e+001
3.421149e+003,2.133166e+001
3.422113e+003,1.998434e+001
3.423077e+003,1.953342e+001
3.424042e+003,2.011003e+001
3.425006e+003,2.164964e+001
3.425970e+003,2.284726e+001
3.426934e+003,2.116126e+001
