7.140112e+001,1.890090e+002
7.236536e+001,1.812083e+002
7.332959e+001,1.853645e+002
7.429382e+001,1.942167e+002
7.525806e+001,2.096335e+002
7.622229e+001,2.156152e+002
7.718652e+001,2.001684e+002
7.815076e+001,1.512233e+002
7.911499e+001,1.186203e+002
8.007922e+001,9.855698e+001
8.104346e+001,9.097014e+001
8.200769e+001,9.700236e+001
8.297192e+001,1.251488e+002
8.393616e+001,1.572146e+002
8.490039e+001,1.994192e+002
8.586462e+001,2.416862e+002
8.682886e+001,2.674937e+002
8.779310e+001,2.409366e+002
8.875733e+001,1.978083e+002
8.972157e+001,1.564933e+002
9.068580e+001,1.240817e+002
9.165003e+001,1.004382e+002
9.261427e+001,9.096886e+001
9.357850e+001,9.095181e+001
9.454273e+001,9.203658e+001
9.550697e+001,8.842850e+001
9.647120e+001,7.843111e+001
9.743543e+001,7.101411e+001
9.839967e+001,6.615681e+001
9.936390e+001,6.293835e+001
1.003281e+002,6.031816e+001
1.012924e+002,5.767976e+001
1.022566e+002,5.638799e+001
1.032208e+002,5.713396e+001
1.041851e+002,5.958472e+001
1.051493e+002,6.289976e+001
1.061135e+002,7.014964e+001
1.070778e+002,7.485103e+001
1.080420e+002,7.280693e+001
1.090062e+002,6.333347e+001
1.099705e+002,4.969542e+001
1.109347e+002,3.633384e+001
1.118989e+002,2.509164e+001
1.128632e+002,2.261615e+001
1.138274e+002,3.400116e+001
1.147916e+002,6.253201e+001
1.157559e+002,7.559343e+001
1.167201e+002,6.916074e+001
1.176843e+002,5.535415e+001
1.186486e+002,4.890890e+001
1.196128e+002,5.620225e+001
1.205770e+002,6.322056e+001
1.215413e+002,7.251902e+001
1.225055e+002,8.094289e+001
1.234697e+002,8.215549e+001
1.244340e+002,6.197602e+001
1.253982e+002,4.093127e+001
1.263624e+002,2.162554e+001
1.273267e+002,6.901575e+000
1.282909e+002,8.371216e-001
1.292551e+002,2.501672e+001
1.302194e+002,5.806478e+001
1.311836e+002,8.047728e+001
1.321478e+002,7.999902e+001
1.331121e+002,5.661069e+001
1.340763e+002,3.812667e+001
1.350405e+002,2.283900e+001
1.360048e+002,1.394329e+001
1.369690e+002,1.628240e+001
1.379332e+002,4.313799e+001
1.388975e+002,5.922195e+001
1.398617e+002,6.104822e+001
1.408259e+002,5.367827e+001
1.417902e+002,4.501998e+001
1.427544e+002,3.591205e+001
1.437186e+002,2.847837e+001
1.446829e+002,2.323107e+001
1.456471e+002,2.011971e+001
1.466113e+002,1.863581e+001
1.475756e+002,1.715510e+001
1.485398e+002,1.778859e+001
1.495040e+002,2.489768e+001
1.504683e+002,3.914111e+001
1.514325e+002,5.725836e+001
1.523967e+002,5.870933e+001
1.533610e+002,4.744123e+001
1.543252e+002,3.395729e+001
1.552894e+002,2.559326e+001
1.562537e+002,2.414686e+001
1.572179e+002,2.343242e+001
1.581821e+002,2.185834e+001
1.591464e+002,2.173175e+001
1.601106e+002,2.648016e+001
1.610748e+002,4.361754e+001
1.620391e+002,5.343748e+001
1.630033e+002,4.746671e+001
1.639676e+002,3.276963e+001
1.649318e+002,2.053064e+001
1.658960e+002,2.497416e+001
1.668603e+002,3.197531e+001
1.678245e+002,3.040461e+001
1.687887e+002,2.089850e+001
1.697530e+002,9.580566e+000
1.707172e+002,1.608671e+001
1.716814e+002,3.338185e+001
1.726457e+002,4.425961e+001
1.736099e+002,4.188716e+001
1.745741e+002,2.563381e+001
1.755384e+002,1.429468e+001
1.765026e+002,7.907361e+000
1.774668e+002,4.268884e+000
1.784311e+002,3.126135e+000
1.793953e+002,5.695642e+000
1.803595e+002,7.411304e+000
1.813238e+002,6.530603e+000
1.822880e+002,5.071472e+000
1.832522e+002,5.145300e+000
1.842165e+002,9.234827e+000
1.851807e+002,1.181869e+001
1.861449e+002,7.765222e+000
1.871092e+002,2.090820e-001
1.880734e+002,-7.059705e+000
1.890376e+002,-9.123022e+000
1.900019e+002,-6.208838e+000
1.909661e+002,3.494751e-001
1.919303e+002,1.025836e+001
1.928946e+002,2.115210e+001
1.938588e+002,2.482720e+001
1.948230e+002,1.605750e+001
1.957873e+002,1.166389e+001
1.967515e+002,1.639663e+001
1.977157e+002,2.996982e+001
1.986800e+002,4.066453e+001
1.996442e+002,4.439049e+001
2.006084e+002,4.773066e+001
2.015727e+002,5.456959e+001
2.025369e+002,6.591820e+001
2.035011e+002,7.247388e+001
2.044654e+002,6.473789e+001
2.054296e+002,5.227301e+001
2.063938e+002,3.980619e+001
2.073581e+002,3.054437e+001
2.083223e+002,2.408782e+001
2.092865e+002,1.662610e+001
2.102508e+002,9.765589e+000
2.112150e+002,8.683459e+000
2.121792e+002,1.897698e+001
2.131435e+002,4.480988e+001
2.141077e+002,6.020140e+001
2.150719e+002,6.217295e+001
2.160362e+002,5.704922e+001
2.170004e+002,5.396967e+001
2.179646e+002,5.466949e+001
2.189289e+002,5.521188e+001
2.198931e+002,5.313180e+001
2.208573e+002,5.065208e+001
2.218216e+002,5.197545e+001
2.227858e+002,6.224286e+001
2.237500e+002,7.530823e+001
2.247143e+002,9.463953e+001
2.256785e+002,1.160422e+002
2.266427e+002,1.305824e+002
2.276070e+002,1.146807e+002
2.285712e+002,8.342683e+001
2.295354e+002,5.479050e+001
2.304997e+002,3.419581e+001
2.314639e+002,2.111089e+001
2.324281e+002,1.366653e+001
2.333924e+002,1.234758e+001
2.343566e+002,1.269824e+001
2.353208e+002,1.359451e+001
2.362851e+002,1.520278e+001
2.372493e+002,1.607274e+001
2.382135e+002,1.596560e+001
2.391778e+002,1.541027e+001
2.401420e+002,1.472443e+001
2.411062e+002,1.407822e+001
2.420705e+002,1.271406e+001
2.430347e+002,9.701673e+000
2.439989e+002,6.175525e+000
2.449632e+002,2.822839e+000
2.459274e+002,1.350952e-001
2.468916e+002,-1.515845e+000
2.478559e+002,-1.595886e+000
2.488201e+002,-5.804077e-001
2.497843e+002,5.029052e-001
2.507486e+002,4.109131e-001
2.517128e+002,-1.324463e+000
2.526770e+002,6.291504e-001
2.536413e+002,8.505481e+000
2.546055e+002,1.807958e+001
2.555697e+002,2.257191e+001
2.565340e+002,1.680486e+001
2.574982e+002,1.264060e+001
2.584625e+002,1.237419e+001
2.594267e+002,1.424299e+001
2.603909e+002,1.494832e+001
2.613552e+002,1.131533e+001
2.623194e+002,7.154675e+000
2.632836e+002,3.376831e+000
2.642479e+002,5.603638e-001
2.652121e+002,-5.493286e-001
2.661763e+002,2.620898e+000
2.671406e+002,7.409253e+000
2.681048e+002,9.201673e+000
2.690690e+002,7.312354e+000
2.700333e+002,3.250024e+000
2.709975e+002,3.460339e+000
2.719617e+002,9.987659e+000
2.729260e+002,1.400289e+001
2.738902e+002,1.234127e+001
2.748544e+002,5.089942e+000
2.758187e+002,-2.806763e-001
2.767829e+002,-3.068616e+000
2.777471e+002,-4.576709e+000
2.787114e+002,-4.510571e+000
2.796756e+002,-2.920093e+000
2.806398e+002,-1.232544e+000
2.816041e+002,-1.831946e+000
2.825683e+002,-1.942969e+000
2.835325e+002,8.029053e-001
2.844968e+002,7.105530e+000
2.854610e+002,1.449626e+001
2.864252e+002,1.718588e+001
2.873895e+002,1.679753e+001
2.883537e+002,1.486309e+001
2.893179e+002,1.235272e+001
2.902822e+002,9.274328e+000
2.912464e+002,6.432080e+000
2.922106e+002,3.862134e+000
2.931749e+002,1.283142e+000
2.941391e+002,-1.881824e+000
2.951033e+002,-6.499634e+000
2.960676e+002,-8.948181e+000
2.970318e+002,-8.668005e+000
2.979960e+002,-6.844104e+000
2.989603e+002,-4.059289e+000
2.999245e+002,-4.185425e-001
3.008887e+002,3.393640e+000
3.018530e+002,7.616333e+000
3.028172e+002,1.145382e+001
3.037814e+002,1.401171e+001
3.047457e+002,1.451523e+001
3.057099e+002,1.348939e+001
3.066741e+002,1.306108e+001
3.076384e+002,1.297612e+001
3.086026e+002,1.236045e+001
3.095668e+002,1.019042e+001
3.105311e+002,5.737219e+000
3.114953e+002,2.843298e+000
3.124595e+002,2.007751e+000
3.134238e+002,2.069348e+000
3.143880e+002,1.659314e+000
3.153522e+002,1.690674e-001
3.163165e+002,-9.637573e-001
3.172807e+002,-1.960767e+000
3.182449e+002,-2.175378e+000
3.192092e+002,-7.671509e-001
3.201734e+002,3.371741e+000
3.211376e+002,8.047949e+000
3.221019e+002,1.157963e+001
3.230661e+002,1.435029e+001
3.240303e+002,1.718509e+001
3.249946e+002,2.125510e+001
3.259588e+002,2.570079e+001
3.269230e+002,2.695995e+001
3.278873e+002,2.493261e+001
3.288515e+002,2.106826e+001
3.298157e+002,1.790882e+001
3.307800e+002,1.588350e+001
3.317442e+002,1.437008e+001
3.327084e+002,1.269044e+001
3.336727e+002,1.146201e+001
3.346369e+002,1.205469e+001
3.356011e+002,1.743862e+001
3.365654e+002,2.090851e+001
3.375296e+002,1.976216e+001
3.384938e+002,1.601130e+001
3.394581e+002,1.285281e+001
3.404223e+002,1.321953e+001
3.413865e+002,1.495918e+001
3.423508e+002,1.597778e+001
3.433150e+002,1.644739e+001
3.442792e+002,1.708167e+001
3.452435e+002,1.907693e+001
3.462077e+002,2.240442e+001
3.471719e+002,2.380450e+001
3.481362e+002,2.165820e+001
3.491004e+002,1.962985e+001
3.500646e+002,2.587815e+001
3.510289e+002,4.330715e+001
3.519931e+002,6.844606e+001
3.529573e+002,1.029128e+002
3.539216e+002,1.444355e+002
3.548858e+002,1.917112e+002
3.558500e+002,2.640705e+002
3.568143e+002,3.119242e+002
3.577785e+002,3.135455e+002
3.587427e+002,2.804007e+002
3.597070e+002,2.318451e+002
3.606712e+002,1.809018e+002
3.616354e+002,1.333534e+002
3.625997e+002,9.418636e+001
3.635639e+002,6.398569e+001
3.645281e+002,4.306026e+001
3.654924e+002,3.194532e+001
3.664566e+002,3.403414e+001
3.674208e+002,3.355098e+001
3.683851e+002,2.931267e+001
3.693493e+002,2.282596e+001
3.703135e+002,1.726973e+001
3.712778e+002,1.219072e+001
3.722420e+002,9.533960e+000
3.732062e+002,1.028195e+001
3.741705e+002,1.318286e+001
3.751347e+002,1.653975e+001
3.760989e+002,2.023164e+001
3.770632e+002,2.296122e+001
3.780274e+002,2.361027e+001
3.789916e+002,2.286504e+001
3.799559e+002,2.192776e+001
3.809201e+002,2.231401e+001
3.818844e+002,2.322034e+001
3.828486e+002,2.226222e+001
3.838128e+002,1.958117e+001
3.847771e+002,1.631287e+001
3.857413e+002,1.414403e+001
3.867055e+002,1.361205e+001
3.876698e+002,1.314246e+001
3.886340e+002,1.122528e+001
3.895982e+002,9.844202e+000
3.905625e+002,1.238606e+001
3.915267e+002,2.346498e+001
3.924909e+002,3.055584e+001
3.934552e+002,3.010469e+001
3.944194e+002,2.583042e+001
3.953836e+002,2.138784e+001
3.963479e+002,1.843137e+001
3.973121e+002,1.727766e+001
3.982763e+002,1.876305e+001
3.992406e+002,2.147904e+001
4.002048e+002,2.324410e+001
4.011690e+002,2.188586e+001
4.021333e+002,1.810986e+001
4.030975e+002,1.799105e+001
4.040617e+002,2.158016e+001
4.050260e+002,2.541945e+001
4.059902e+002,2.559929e+001
4.069544e+002,1.954536e+001
4.079187e+002,1.722368e+001
4.088829e+002,2.056339e+001
4.098471e+002,2.506079e+001
4.108114e+002,2.728771e+001
4.117756e+002,2.605557e+001
4.127398e+002,2.486374e+001
4.137041e+002,2.530548e+001
4.146683e+002,2.626144e+001
4.156325e+002,2.704093e+001
4.165968e+002,2.725289e+001
4.175610e+002,2.694569e+001
4.185252e+002,2.584872e+001
4.194895e+002,2.453843e+001
4.204537e+002,2.362472e+001
4.214179e+002,2.351665e+001
4.223822e+002,2.427726e+001
4.233464e+002,2.741677e+001
4.243106e+002,3.401243e+001
4.252749e+002,3.836216e+001
4.262391e+002,3.578066e+001
4.272033e+002,2.517430e+001
4.281676e+002,2.113118e+001
4.291318e+002,2.863516e+001
4.300960e+002,3.800159e+001
4.310603e+002,4.532764e+001
4.320245e+002,5.034286e+001
4.329887e+002,5.743422e+001
4.339530e+002,6.792825e+001
4.349172e+002,8.398136e+001
4.358814e+002,1.099443e+002
4.368457e+002,1.449684e+002
4.378099e+002,1.844732e+002
4.387741e+002,2.244570e+002
4.397384e+002,2.602475e+002
4.407026e+002,2.758737e+002
4.416668e+002,2.668368e+002
4.426311e+002,2.380598e+002
4.435953e+002,2.056792e+002
4.445595e+002,1.612993e+002
4.455238e+002,1.245993e+002
4.464880e+002,9.738721e+001
4.474522e+002,7.821898e+001
4.484165e+002,6.472180e+001
4.493807e+002,6.021272e+001
4.503449e+002,5.721412e+001
4.513092e+002,5.386794e+001
4.522734e+002,5.020380e+001
4.532376e+002,4.678844e+001
4.542019e+002,4.444460e+001
4.551661e+002,4.184111e+001
4.561303e+002,3.658525e+001
4.570946e+002,2.976492e+001
4.580588e+002,2.372064e+001
4.590230e+002,2.103736e+001
4.599873e+002,2.208936e+001
4.609515e+002,2.214048e+001
4.619157e+002,2.071259e+001
4.628800e+002,1.923638e+001
4.638442e+002,1.899182e+001
4.648084e+002,2.029365e+001
4.657727e+002,2.204152e+001
4.667369e+002,2.516431e+001
4.677011e+002,2.791478e+001
4.686654e+002,2.904938e+001
4.696296e+002,2.813850e+001
4.705938e+002,2.655601e+001
4.715581e+002,2.506992e+001
4.725223e+002,2.358269e+001
4.734865e+002,2.215265e+001
4.744508e+002,2.077462e+001
4.754150e+002,1.926893e+001
4.763792e+002,1.616832e+001
4.773435e+002,1.242134e+001
4.783077e+002,1.176122e+001
4.792719e+002,1.598850e+001
4.802362e+002,2.368644e+001
4.812004e+002,2.666559e+001
4.821646e+002,1.969662e+001
4.831289e+002,1.410236e+001
4.840931e+002,1.079701e+001
4.850573e+002,9.497126e+000
4.860216e+002,9.666449e+000
4.869858e+002,1.390499e+001
4.879500e+002,1.633136e+001
4.889143e+002,1.340647e+001
4.898785e+002,7.732123e+000
4.908427e+002,3.546112e+000
4.918070e+002,4.690106e+000
4.927712e+002,8.513281e+000
4.937354e+002,1.050530e+001
4.946997e+002,1.097347e+001
4.956639e+002,1.062405e+001
4.966281e+002,1.015162e+001
4.975924e+002,9.550848e+000
4.985566e+002,8.623865e+000
4.995208e+002,6.750379e+000
5.004851e+002,5.432349e+000
5.014493e+002,6.286462e+000
5.024135e+002,1.016805e+001
5.033778e+002,1.208238e+001
5.043420e+002,9.660498e+000
5.053063e+002,7.384540e+000
5.062705e+002,8.000952e+000
5.072347e+002,1.168229e+001
5.081990e+002,1.466449e+001
5.091632e+002,1.113492e+001
5.101274e+002,6.726935e+000
5.110917e+002,5.285767e+000
5.120559e+002,7.255542e+000
5.130201e+002,1.045168e+001
5.139844e+002,1.042349e+001
5.149486e+002,7.363208e+000
5.159128e+002,5.247241e+000
5.168771e+002,4.721198e+000
5.178413e+002,5.159583e+000
5.188055e+002,5.141449e+000
5.197698e+002,3.957245e+000
5.207340e+002,3.425586e+000
5.216982e+002,4.448846e+000
5.226625e+002,5.651099e+000
5.236267e+002,5.201739e+000
5.245909e+002,1.800732e+000
5.255552e+002,-1.044507e+000
5.265194e+002,-1.246338e+000
5.274836e+002,-3.556641e-001
5.284479e+002,4.114868e-001
5.294121e+002,3.792725e-001
5.303763e+002,-1.168945e-001
5.313406e+002,-1.010406e+000
5.323048e+002,-1.902264e+000
5.332690e+002,-1.420203e+000
5.342333e+002,1.210181e+000
5.351975e+002,5.558301e+000
5.361617e+002,8.055292e+000
5.371260e+002,7.493494e+000
5.380902e+002,7.102740e+000
5.390544e+002,7.772443e+000
5.400187e+002,8.983057e+000
5.409829e+002,9.107904e+000
5.419471e+002,6.779291e+000
5.429114e+002,4.699628e+000
5.438756e+002,3.610467e+000
5.448398e+002,3.195349e+000
5.458041e+002,2.905572e+000
5.467683e+002,2.365302e+000
5.477325e+002,1.848718e+000
5.486968e+002,1.721808e+000
5.496610e+002,1.855176e+000
5.506252e+002,2.097278e+000
5.515895e+002,2.326178e+000
5.525537e+002,2.513043e+000
5.535179e+002,1.637323e+000
5.544822e+002,-8.456360e-001
5.554464e+002,-2.525867e+000
5.564106e+002,-1.593225e+000
5.573749e+002,1.957074e+000
5.583391e+002,3.890759e+000
5.593033e+002,2.219135e+000
5.602676e+002,5.467834e-001
5.612318e+002,-5.585572e-001
5.621960e+002,-8.928955e-001
5.631603e+002,-1.861084e-001
5.641245e+002,2.989185e+000
5.650887e+002,5.767138e+000
5.660530e+002,5.238989e+000
5.670172e+002,2.370154e+000
5.679814e+002,-5.639526e-001
5.689457e+002,-1.106787e+000
5.699099e+002,6.174744e-001
5.708741e+002,1.707947e+000
5.718384e+002,2.282251e+000
5.728026e+002,2.280188e+000
5.737668e+002,1.115369e+000
5.747311e+002,-1.916638e+000
5.756953e+002,-2.526239e+000
5.766595e+002,1.932861e+000
5.776238e+002,5.695288e+000
5.785880e+002,6.153479e+000
5.795522e+002,3.443695e+000
5.805165e+002,4.340210e-001
5.814807e+002,-1.459583e+000
5.824449e+002,-2.546460e+000
5.834092e+002,-2.607410e+000
5.843734e+002,-1.987085e+000
5.853376e+002,-1.446252e+000
5.863019e+002,-1.986371e+000
5.872661e+002,-3.144311e+000
5.882303e+002,-2.483905e+000
5.891946e+002,6.218872e-002
5.901588e+002,2.843756e+000
5.911230e+002,4.100220e+000
5.920873e+002,3.320978e+000
5.930515e+002,2.859546e+000
5.940157e+002,3.110040e+000
5.949800e+002,3.228113e+000
5.959442e+002,2.538220e+000
5.969084e+002,1.051855e+000
5.978727e+002,2.819214e-002
5.988369e+002,9.630798e-001
5.998011e+002,1.908069e+000
6.007654e+002,2.185046e+000
6.017296e+002,1.711456e+000
6.026938e+002,5.513672e-001
6.036581e+002,-1.593744e+000
6.046223e+002,-3.875110e+000
6.055865e+002,-3.673804e+000
6.065508e+002,-1.157239e+000
6.075150e+002,1.333368e+000
6.084792e+002,1.085748e+000
6.094435e+002,-2.932733e+000
6.104077e+002,-4.171021e+000
6.113719e+002,-8.220093e-001
6.123362e+002,2.423431e+000
6.133004e+002,2.900159e+000
6.142646e+002,5.549316e-001
6.152289e+002,-1.437506e+000
6.161931e+002,-1.564642e+000
6.171573e+002,-1.306891e+000
6.181216e+002,-1.071185e+000
6.190858e+002,-8.194092e-001
6.200500e+002,-2.284241e-001
6.210143e+002,1.137024e+000
6.219785e+002,2.719489e+000
6.229427e+002,3.442194e+000
6.239070e+002,3.404187e+000
6.248712e+002,3.133460e+000
6.258354e+002,3.172101e+000
6.267997e+002,3.644031e+000
6.277639e+002,3.928571e+000
6.287281e+002,4.433740e+000
6.296924e+002,4.198706e+000
6.306566e+002,1.977838e+000
6.316208e+002,-1.915808e+000
6.325851e+002,-4.025891e+000
6.335493e+002,-1.466266e+000
6.345135e+002,1.508649e+000
6.354778e+002,4.254346e+000
6.364420e+002,6.409406e+000
6.374063e+002,7.773578e+000
6.383705e+002,8.210688e+000
6.393347e+002,7.586029e+000
6.402990e+002,5.331988e+000
6.412632e+002,2.229089e+000
6.422274e+002,1.949097e-001
6.431917e+002,6.937683e-001
6.441559e+002,3.559631e+000
6.451201e+002,4.950910e+000
6.460844e+002,4.358624e+000
6.470486e+002,3.644214e+000
6.480128e+002,3.446167e+000
6.489771e+002,3.607373e+000
6.499413e+002,3.386432e+000
6.509055e+002,2.033850e+000
6.518698e+002,1.071326e+000
6.528340e+002,1.304724e+000
6.537982e+002,2.031567e+000
6.547625e+002,2.193433e+000
6.557267e+002,1.072681e+000
6.566909e+002,-2.434998e-001
6.576552e+002,-8.807983e-002
6.586194e+002,9.241760e-001
6.595836e+002,2.155280e+000
6.605479e+002,3.283807e+000
6.615121e+002,4.206769e+000
6.624763e+002,4.284692e+000
6.634406e+002,3.161975e+000
6.644048e+002,2.023358e+000
6.653690e+002,7.450622e-001
6.663333e+002,-5.127808e-001
6.672975e+002,-1.417004e+000
6.682617e+002,-2.002167e+000
6.692260e+002,-1.712799e+000
6.701902e+002,2.130005e-001
6.711544e+002,2.408411e+000
6.721187e+002,3.762592e+000
6.730829e+002,3.870508e+000
6.740471e+002,3.296906e+000
6.750114e+002,2.221320e+000
6.759756e+002,1.256409e+000
6.769398e+002,1.273761e+000
6.779041e+002,2.359674e+000
6.788683e+002,3.862860e+000
6.798325e+002,4.616809e+000
6.807968e+002,4.404474e+000
6.817610e+002,3.995685e+000
6.827252e+002,3.289404e+000
6.836895e+002,2.488226e+000
6.846537e+002,1.502063e+000
6.856179e+002,8.759155e-002
6.865822e+002,-1.674072e-001
6.875464e+002,2.671869e+000
6.885106e+002,5.172980e+000
6.894749e+002,5.449158e+000
6.904391e+002,3.828442e+000
6.914034e+002,2.259564e+000
6.923676e+002,2.635101e+000
6.933318e+002,3.903223e+000
6.942961e+002,4.583069e+000
6.952603e+002,4.704211e+000
6.962245e+002,4.533435e+000
6.971888e+002,4.302356e+000
6.981530e+002,3.984015e+000
6.991172e+002,3.142731e+000
7.000815e+002,1.092365e+000
7.010457e+002,-2.249329e-001
7.020099e+002,4.228210e-001
7.029742e+002,2.600684e+000
7.039384e+002,4.070849e+000
7.049026e+002,3.985376e+000
7.058669e+002,3.545477e+000
7.068311e+002,2.472064e+000
7.077953e+002,1.480267e+000
7.087596e+002,1.705908e+000
7.097238e+002,3.853320e+000
7.106880e+002,6.334949e+000
7.116523e+002,6.272790e+000
7.126165e+002,4.823438e+000
7.135807e+002,3.578656e+000
7.145450e+002,3.172192e+000
7.155092e+002,3.259546e+000
7.164734e+002,2.828522e+000
7.174377e+002,1.172443e+000
7.184019e+002,6.826782e-001
7.193661e+002,2.620044e+000
7.203304e+002,4.823810e+000
7.212946e+002,4.683124e+000
7.222589e+002,1.357336e+000
7.232231e+002,-1.075256e+000
7.241873e+002,-8.495728e-001
7.251516e+002,1.379456e-001
7.261158e+002,1.092590e+000
7.270800e+002,1.793036e+000
7.280443e+002,2.403119e+000
7.290085e+002,3.088135e+000
7.299727e+002,3.886206e+000
7.309370e+002,5.149615e+000
7.319012e+002,6.699079e+000
7.328654e+002,7.437506e+000
7.338297e+002,6.252686e+000
7.347939e+002,3.001318e+000
7.357581e+002,9.107239e-001
7.367224e+002,5.087280e-001
7.376866e+002,3.392578e-001
7.386508e+002,1.167725e-001
7.396151e+002,-1.502380e-001
7.405793e+002,-3.922729e-001
7.415435e+002,-4.839050e-001
7.425078e+002,-6.687500e-001
7.434720e+002,-1.353668e+000
7.444362e+002,-2.092078e+000
7.454005e+002,-2.403906e+000
7.463647e+002,-2.069873e+000
7.473289e+002,-1.293030e+000
7.482932e+002,-2.510376e-002
7.492574e+002,1.409033e+000
7.502216e+002,1.798029e+000
7.511859e+002,7.311890e-001
7.521501e+002,-8.778564e-001
7.531143e+002,-1.190216e+000
7.540786e+002,1.072711e+000
7.550428e+002,1.532471e+000
7.560070e+002,-1.736749e+000
7.569713e+002,-4.612586e+000
7.579355e+002,-3.967615e+000
7.588997e+002,7.246093e-002
7.598640e+002,3.279407e+000
7.608282e+002,2.089618e+000
7.617924e+002,7.481201e-001
7.627567e+002,1.721320e+000
7.637209e+002,4.280579e+000
7.646851e+002,6.478143e+000
7.656494e+002,6.695422e+000
7.666136e+002,5.927917e+000
7.675778e+002,9.293836e+000
7.685421e+002,1.612526e+001
7.695063e+002,2.057324e+001
7.704705e+002,1.959584e+001
7.714348e+002,1.440695e+001
7.723990e+002,9.779346e+000
7.733632e+002,5.432752e+000
7.743275e+002,2.251819e+000
7.752917e+002,9.440735e-001
7.762559e+002,3.211304e-001
7.772202e+002,-8.945130e-001
7.781844e+002,-3.036884e+000
7.791486e+002,-4.567084e+000
7.801129e+002,-3.221014e+000
7.810771e+002,-1.249103e+000
7.820413e+002,-2.060547e-002
7.830056e+002,3.344788e-001
7.839698e+002,3.573731e-001
7.849340e+002,6.688721e-001
7.858983e+002,1.213312e+000
7.868625e+002,9.273010e-001
7.878267e+002,-5.202515e-001
7.887910e+002,-1.610480e+000
7.897552e+002,-1.208527e+000
7.907194e+002,4.708801e-001
7.916837e+002,1.532288e+000
7.926479e+002,1.356457e+000
7.936121e+002,1.041913e+000
7.945764e+002,9.146484e-001
7.955406e+002,6.851807e-001
7.965048e+002,-2.600769e-001
7.974691e+002,-2.124744e+000
7.984333e+002,-3.594739e+000
7.993975e+002,-1.949567e+000
8.003618e+002,6.283997e-001
8.013260e+002,1.810919e+000
8.022902e+002,1.170843e+000
8.032545e+002,-4.544434e-001
8.042187e+002,-1.882288e+000
8.051829e+002,-3.253033e+000
8.061472e+002,-2.934479e+000
8.071114e+002,6.223084e-001
8.080756e+002,3.724756e+000
8.090399e+002,4.009924e+000
8.100041e+002,1.966956e+000
8.109683e+002,9.732910e-001
8.119326e+002,2.995117e+000
8.128968e+002,4.757263e+000
8.138610e+002,4.698273e+000
8.148253e+002,3.859436e+000
8.157895e+002,3.663983e+000
8.167537e+002,4.793359e+000
8.177180e+002,6.390436e+000
8.186822e+002,6.797150e+000
8.196464e+002,6.468432e+000
8.206107e+002,6.353973e+000
8.215749e+002,6.660455e+000
8.225391e+002,7.042291e+000
8.235034e+002,6.916425e+000
8.244676e+002,5.978119e+000
8.254318e+002,5.430713e+000
8.263961e+002,5.169946e+000
8.273603e+002,5.397326e+000
8.283245e+002,6.743402e+000
8.292888e+002,8.723102e+000
8.302530e+002,9.546259e+000
8.312172e+002,7.662714e+000
8.321815e+002,5.575098e+000
8.331457e+002,5.273023e+000
8.341099e+002,5.823523e+000
8.350742e+002,5.801453e+000
8.360384e+002,4.559534e+000
8.370026e+002,2.886829e+000
8.379669e+002,2.743689e+000
8.389311e+002,4.198260e+000
8.398953e+002,5.163550e+000
8.408596e+002,5.586139e+000
8.418238e+002,5.272779e+000
8.427880e+002,3.646399e+000
8.437523e+002,2.523621e-001
8.447165e+002,-2.018018e+000
8.456807e+002,-2.084613e+000
8.466450e+002,-1.807575e+000
8.476092e+002,-1.742078e+000
8.485734e+002,-1.881244e+000
8.495377e+002,-2.014319e+000
8.505019e+002,-2.033954e+000
8.514661e+002,-1.840454e+000
8.524304e+002,-1.098694e+000
8.533946e+002,-1.513794e-001
8.543588e+002,4.020019e-001
8.553231e+002,3.416870e-001
8.562873e+002,-8.159790e-002
8.572515e+002,-3.166199e-001
8.582158e+002,-3.103088e-001
8.591800e+002,-2.514038e-001
8.601442e+002,-1.926819e-001
8.611085e+002,-1.068054e-001
8.620727e+002,2.264954e-001
8.630369e+002,7.786316e-001
8.640012e+002,8.433411e-001
8.649654e+002,-4.273010e-001
8.659296e+002,-1.567517e+000
8.668939e+002,-1.799335e+000
8.678581e+002,-1.549896e+000
8.688223e+002,-1.618457e+000
8.697866e+002,-2.355756e+000
8.707508e+002,-3.002698e+000
8.717150e+002,-1.460510e+000
8.726793e+002,1.631610e+000
8.736435e+002,3.174701e+000
8.746077e+002,2.511865e+000
8.755720e+002,7.708069e-001
8.765362e+002,-7.757508e-001
8.775004e+002,-2.193146e+000
8.784647e+002,-3.043268e+000
8.794289e+002,-2.974323e+000
8.803931e+002,-2.835254e+000
8.813574e+002,-2.869733e+000
8.823216e+002,-3.043060e+000
8.832858e+002,-3.178455e+000
8.842501e+002,-3.129077e+000
8.852143e+002,-3.127594e+000
8.861785e+002,-3.607855e+000
8.871428e+002,-4.273016e+000
8.881070e+002,-4.827075e+000
8.890712e+002,-5.147473e+000
8.900355e+002,-5.168152e+000
8.909997e+002,-4.747839e+000
8.919639e+002,-3.759863e+000
8.929282e+002,-3.204620e+000
8.938924e+002,-3.136798e+000
8.948566e+002,-3.340827e+000
8.958209e+002,-3.867877e+000
8.967851e+002,-4.609198e+000
8.977493e+002,-5.097992e+000
8.987136e+002,-5.105329e+000
8.996778e+002,-5.143207e+000
9.006420e+002,-5.651166e+000
9.016063e+002,-6.097809e+000
9.025705e+002,-5.706500e+000
9.035347e+002,-4.426623e+000
9.044990e+002,-3.264514e+000
9.054632e+002,-3.703418e+000
9.064274e+002,-5.372070e+000
9.073917e+002,-6.241529e+000
9.083559e+002,-6.227099e+000
9.093201e+002,-5.939923e+000
9.102844e+002,-5.885034e+000
9.112486e+002,-6.040656e+000
9.122128e+002,-5.834167e+000
9.131771e+002,-5.064691e+000
9.141413e+002,-4.129004e+000
9.151055e+002,-2.347803e+000
9.160698e+002,-8.411682e-001
9.170340e+002,-1.117566e+000
9.179982e+002,-3.431006e+000
9.189625e+002,-5.603955e+000
9.199267e+002,-5.586511e+000
9.208909e+002,-4.667951e+000
9.218552e+002,-3.791388e+000
9.228194e+002,-3.132135e+000
9.237836e+002,-2.890332e+000
9.247479e+002,-3.236035e+000
9.257121e+002,-4.038501e+000
9.266763e+002,-4.526202e+000
9.276406e+002,-4.645703e+000
9.286048e+002,-4.575946e+000
9.295690e+002,-4.288171e+000
9.305333e+002,-3.835199e+000
9.314975e+002,-3.053027e+000
9.324617e+002,-1.836243e+000
9.334260e+002,-1.375061e+000
9.343902e+002,-3.326709e+000
9.353545e+002,-5.150531e+000
9.363187e+002,-5.705670e+000
9.372830e+002,-5.307062e+000
9.382472e+002,-4.650146e+000
9.392114e+002,-4.157568e+000
9.401757e+002,-3.708624e+000
9.411399e+002,-3.057556e+000
9.421041e+002,-2.289813e+000
9.430684e+002,-1.824518e+000
9.440326e+002,-1.856909e+000
9.449968e+002,-2.070258e+000
9.459611e+002,-1.914404e+000
9.469253e+002,-1.184894e+000
9.478895e+002,-9.705261e-001
9.488538e+002,-1.948334e+000
9.498180e+002,-2.838165e+000
9.507822e+002,-3.503223e+000
9.517465e+002,-3.826459e+000
9.527107e+002,-3.589343e+000
9.536749e+002,-2.671216e+000
9.546392e+002,-1.527313e+000
9.556034e+002,-6.492920e-001
9.565676e+002,4.364014e-003
9.575319e+002,4.275452e-001
9.584961e+002,6.877075e-001
9.594603e+002,1.041559e+000
9.604246e+002,1.748395e+000
9.613888e+002,2.782611e+000
9.623530e+002,3.534540e+000
9.633173e+002,3.418640e+000
9.642815e+002,3.795233e+000
9.652457e+002,5.038354e+000
9.662100e+002,6.859143e+000
9.671742e+002,8.656092e+000
9.681384e+002,1.023300e+001
9.691027e+002,1.266368e+001
9.700669e+002,1.272554e+001
9.710311e+002,1.760195e+001
9.719954e+002,3.611296e+001
9.729596e+002,6.352252e+001
9.739238e+002,9.091795e+001
9.748881e+002,1.118638e+002
9.758523e+002,1.234828e+002
9.768165e+002,1.134200e+002
9.777808e+002,7.603904e+001
9.787450e+002,4.692556e+001
9.797092e+002,3.199584e+001
9.806735e+002,2.455314e+001
9.816377e+002,1.920194e+001
9.826019e+002,1.598651e+001
9.835662e+002,1.375925e+001
9.845304e+002,1.301838e+001
9.854946e+002,1.245347e+001
9.864589e+002,1.144205e+001
9.874231e+002,1.044036e+001
9.883873e+002,9.889575e+000
9.893516e+002,9.977496e+000
9.903158e+002,1.079763e+001
9.912800e+002,1.273285e+001
9.922443e+002,1.567896e+001
9.932085e+002,1.835743e+001
9.941727e+002,2.067913e+001
9.951370e+002,2.362277e+001
9.961012e+002,2.718227e+001
9.970654e+002,3.153997e+001
9.980297e+002,3.838473e+001
9.989939e+002,3.909931e+001
9.999581e+002,5.910796e+001
1.000922e+003,9.803114e+001
1.001887e+003,1.573915e+002
1.002851e+003,2.664011e+002
1.003815e+003,4.059942e+002
1.004779e+003,4.937794e+002
1.005744e+003,4.620374e+002
1.006708e+003,3.633221e+002
1.007672e+003,2.680946e+002
1.008636e+003,1.805239e+002
1.009600e+003,1.150217e+002
1.010565e+003,7.809105e+001
1.011529e+003,6.107466e+001
1.012493e+003,4.784697e+001
1.013457e+003,3.918491e+001
1.014422e+003,3.278977e+001
1.015386e+003,2.911185e+001
1.016350e+003,2.653310e+001
1.017314e+003,2.479684e+001
1.018279e+003,2.351603e+001
1.019243e+003,2.203453e+001
1.020207e+003,2.004517e+001
1.021171e+003,1.844008e+001
1.022135e+003,1.854842e+001
1.023100e+003,1.907932e+001
1.024064e+003,1.884533e+001
1.025028e+003,1.779208e+001
1.025992e+003,1.655238e+001
1.026957e+003,1.571853e+001
1.027921e+003,1.529036e+001
1.028885e+003,1.499211e+001
1.029849e+003,1.482578e+001
1.030814e+003,1.480245e+001
1.031778e+003,1.495413e+001
1.032742e+003,1.504785e+001
1.033706e+003,1.478132e+001
1.034671e+003,1.422781e+001
1.035635e+003,1.421358e+001
1.036599e+003,1.576812e+001
1.037563e+003,1.698740e+001
1.038527e+003,1.647648e+001
1.039492e+003,1.517336e+001
1.040456e+003,1.431819e+001
1.041420e+003,1.437787e+001
1.042384e+003,1.481072e+001
1.043349e+003,1.476502e+001
1.044313e+003,1.427966e+001
1.045277e+003,1.490830e+001
1.046241e+003,1.717932e+001
1.047206e+003,1.888879e+001
1.048170e+003,1.859085e+001
1.049134e+003,1.707651e+001
1.050098e+003,1.621186e+001
1.051063e+003,1.618132e+001
1.052027e+003,1.688176e+001
1.052991e+003,1.933039e+001
1.053955e+003,2.126350e+001
1.054919e+003,2.115444e+001
1.055884e+003,1.949445e+001
1.056848e+003,1.750399e+001
1.057812e+003,1.596586e+001
1.058776e+003,1.498643e+001
1.059741e+003,1.467610e+001
1.060705e+003,1.498710e+001
1.061669e+003,1.620512e+001
1.062633e+003,1.886664e+001
1.063598e+003,2.096317e+001
1.064562e+003,2.023742e+001
1.065526e+003,1.698737e+001
1.066490e+003,1.475077e+001
1.067454e+003,1.346738e+001
1.068419e+003,1.384365e+001
1.069383e+003,1.715045e+001
1.070347e+003,2.095168e+001
1.071311e+003,2.352414e+001
1.072276e+003,2.464874e+001
1.073240e+003,2.498198e+001
1.074204e+003,2.492914e+001
1.075168e+003,2.461459e+001
1.076133e+003,2.428250e+001
1.077097e+003,2.392892e+001
1.078061e+003,2.352875e+001
1.079025e+003,2.305415e+001
1.079990e+003,2.255944e+001
1.080954e+003,2.211316e+001
1.081918e+003,2.171960e+001
1.082882e+003,2.138801e+001
1.083846e+003,2.085565e+001
1.084811e+003,2.066760e+001
1.085775e+003,2.107645e+001
1.086739e+003,2.179266e+001
1.087703e+003,2.264954e+001
1.088668e+003,2.359700e+001
1.089632e+003,2.450063e+001
1.090596e+003,2.519144e+001
1.091560e+003,2.565897e+001
1.092525e+003,2.588095e+001
1.093489e+003,2.590113e+001
1.094453e+003,2.609281e+001
1.095417e+003,2.670743e+001
1.096381e+003,2.741619e+001
1.097346e+003,2.733456e+001
1.098310e+003,2.588218e+001
1.099274e+003,2.572571e+001
1.100238e+003,2.869576e+001
1.101203e+003,3.073807e+001
1.102167e+003,3.004216e+001
1.103131e+003,2.794449e+001
1.104095e+003,2.603957e+001
1.105060e+003,2.482148e+001
1.106024e+003,2.438038e+001
1.106988e+003,2.515650e+001
1.107952e+003,2.664738e+001
1.108917e+003,2.819381e+001
1.109881e+003,2.960925e+001
1.110845e+003,3.019325e+001
1.111809e+003,2.946136e+001
1.112773e+003,2.805868e+001
1.113738e+003,2.762012e+001
1.114702e+003,2.866311e+001
1.115666e+003,2.946806e+001
1.116630e+003,2.990335e+001
1.117595e+003,3.017421e+001
1.118559e+003,3.004316e+001
1.119523e+003,2.993098e+001
1.120487e+003,3.074973e+001
1.121452e+003,3.273361e+001
1.122416e+003,3.428585e+001
1.123380e+003,3.348544e+001
1.124344e+003,3.174960e+001
1.125308e+003,3.082891e+001
1.126273e+003,3.085996e+001
1.127237e+003,3.216086e+001
1.128201e+003,3.502671e+001
1.129165e+003,3.839666e+001
1.130130e+003,3.965006e+001
1.131094e+003,3.786408e+001
1.132058e+003,3.652079e+001
1.133022e+003,3.615127e+001
1.133987e+003,3.554558e+001
1.134951e+003,3.379426e+001
1.135915e+003,3.189717e+001
1.136879e+003,3.144152e+001
1.137844e+003,3.277638e+001
1.138808e+003,3.435537e+001
1.139772e+003,3.481088e+001
1.140736e+003,3.475448e+001
1.141700e+003,3.530911e+001
1.142665e+003,3.630596e+001
1.143629e+003,3.697515e+001
1.144593e+003,3.693950e+001
1.145557e+003,3.664822e+001
1.146522e+003,3.691788e+001
1.147486e+003,3.778356e+001
1.148450e+003,3.850079e+001
1.149414e+003,3.931956e+001
1.150379e+003,3.993837e+001
1.151343e+003,4.030693e+001
1.152307e+003,4.045349e+001
1.153271e+003,4.012752e+001
1.154235e+003,3.932521e+001
1.155200e+003,3.888195e+001
1.156164e+003,3.970032e+001
1.157128e+003,4.104794e+001
1.158092e+003,4.175834e+001
1.159057e+003,4.201202e+001
1.160021e+003,4.221241e+001
1.160985e+003,4.247811e+001
1.161949e+003,4.289471e+001
1.162914e+003,4.372926e+001
1.163878e+003,4.513985e+001
1.164842e+003,4.596138e+001
1.165806e+003,4.551958e+001
1.166771e+003,4.519936e+001
1.167735e+003,4.486169e+001
1.168699e+003,4.496008e+001
1.169663e+003,4.643313e+001
1.170627e+003,4.889689e+001
1.171592e+003,5.037102e+001
1.172556e+003,4.951381e+001
1.173520e+003,4.760957e+001
1.174484e+003,4.606956e+001
1.175449e+003,4.495660e+001
1.176413e+003,4.458462e+001
1.177377e+003,4.501681e+001
1.178341e+003,4.595554e+001
1.179306e+003,4.722372e+001
1.180270e+003,4.882767e+001
1.181234e+003,5.037582e+001
1.182198e+003,5.217054e+001
1.183162e+003,5.317863e+001
1.184127e+003,5.272063e+001
1.185091e+003,5.210360e+001
1.186055e+003,5.215032e+001
1.187019e+003,5.280559e+001
1.187984e+003,5.392346e+001
1.188948e+003,5.542539e+001
1.189912e+003,5.603426e+001
1.190876e+003,5.307825e+001
1.191841e+003,4.853533e+001
1.192805e+003,4.762630e+001
1.193769e+003,5.059440e+001
1.194733e+003,5.380247e+001
1.195698e+003,5.508472e+001
1.196662e+003,5.498268e+001
1.197626e+003,5.483063e+001
1.198590e+003,5.450721e+001
1.199554e+003,5.449397e+001
1.200519e+003,5.522925e+001
1.201483e+003,5.601644e+001
1.202447e+003,5.646089e+001
1.203411e+003,5.691201e+001
1.204376e+003,5.805601e+001
1.205340e+003,5.977766e+001
1.206304e+003,6.086092e+001
1.207268e+003,6.024113e+001
1.208233e+003,5.866614e+001
1.209197e+003,5.769633e+001
1.210161e+003,5.719257e+001
1.211125e+003,5.745989e+001
1.212089e+003,5.893913e+001
1.213054e+003,6.035981e+001
1.214018e+003,5.994574e+001
1.214982e+003,5.805454e+001
1.215946e+003,5.811222e+001
1.216911e+003,6.182878e+001
1.217875e+003,6.470457e+001
1.218839e+003,6.484918e+001
1.219803e+003,6.417544e+001
1.220768e+003,6.420109e+001
1.221732e+003,6.484798e+001
1.222696e+003,6.508545e+001
1.223660e+003,6.433282e+001
1.224625e+003,6.337930e+001
1.225589e+003,6.375563e+001
1.226553e+003,6.541238e+001
1.227517e+003,6.588924e+001
1.228481e+003,6.470211e+001
1.229446e+003,6.381190e+001
1.230410e+003,6.427364e+001
1.231374e+003,6.543339e+001
1.232338e+003,6.628203e+001
1.233303e+003,6.679893e+001
1.234267e+003,6.734501e+001
1.235231e+003,6.803085e+001
1.236195e+003,6.867865e+001
1.237160e+003,6.904392e+001
1.238124e+003,6.929983e+001
1.239088e+003,6.977366e+001
1.240052e+003,7.051254e+001
1.241016e+003,7.123301e+001
1.241981e+003,7.163898e+001
1.242945e+003,7.182581e+001
1.243909e+003,7.232561e+001
1.244873e+003,7.389170e+001
1.245838e+003,7.387187e+001
1.246802e+003,7.022716e+001
1.247766e+003,6.716075e+001
1.248730e+003,6.763467e+001
1.249695e+003,7.026170e+001
1.250659e+003,7.183626e+001
1.251623e+003,7.156195e+001
1.252587e+003,7.122389e+001
1.253552e+003,7.223539e+001
1.254516e+003,7.343032e+001
1.255480e+003,7.362856e+001
1.256444e+003,7.311705e+001
1.257408e+003,7.244116e+001
1.258373e+003,7.187490e+001
1.259337e+003,7.193882e+001
1.260301e+003,7.351139e+001
1.261265e+003,7.666348e+001
1.262230e+003,7.896731e+001
1.263194e+003,7.983125e+001
1.264158e+003,8.015676e+001
1.265122e+003,7.972028e+001
1.266087e+003,7.911760e+001
1.267051e+003,7.853914e+001
1.268015e+003,7.823405e+001
1.268979e+003,7.877468e+001
1.269943e+003,8.038987e+001
1.270908e+003,8.187206e+001
1.271872e+003,8.184251e+001
1.272836e+003,8.078072e+001
1.273800e+003,7.973544e+001
1.274765e+003,7.878326e+001
1.275729e+003,7.849559e+001
1.276693e+003,7.926131e+001
1.277657e+003,8.056859e+001
1.278622e+003,8.175327e+001
1.279586e+003,8.278129e+001
1.280550e+003,8.320852e+001
1.281514e+003,8.252132e+001
1.282479e+003,8.241039e+001
1.283443e+003,8.404252e+001
1.284407e+003,8.558724e+001
1.285371e+003,8.510341e+001
1.286335e+003,8.318996e+001
1.287300e+003,8.196016e+001
1.288264e+003,8.258205e+001
1.289228e+003,8.413696e+001
1.290192e+003,8.513078e+001
1.291157e+003,8.555890e+001
1.292121e+003,8.598576e+001
1.293085e+003,8.638956e+001
1.294049e+003,8.635128e+001
1.295014e+003,8.524861e+001
1.295978e+003,8.423492e+001
1.296942e+003,8.492238e+001
1.297906e+003,8.717580e+001
1.298870e+003,8.904657e+001
1.299835e+003,8.974934e+001
1.300799e+003,9.008268e+001
1.301763e+003,9.048923e+001
1.302727e+003,9.082874e+001
1.303692e+003,9.108518e+001
1.304656e+003,9.136607e+001
1.305620e+003,9.169208e+001
1.306584e+003,9.202281e+001
1.307549e+003,9.246638e+001
1.308513e+003,9.331618e+001
1.309477e+003,9.458997e+001
1.310441e+003,9.560895e+001
1.311406e+003,9.665051e+001
1.312370e+003,9.725362e+001
1.313334e+003,9.709824e+001
1.314298e+003,9.672684e+001
1.315263e+003,9.673318e+001
1.316227e+003,9.694552e+001
1.317191e+003,9.646870e+001
1.318155e+003,9.482121e+001
1.319120e+003,9.335976e+001
1.320084e+003,9.390615e+001
1.321048e+003,9.545469e+001
1.322012e+003,9.551073e+001
1.322976e+003,9.419507e+001
1.323941e+003,9.382361e+001
1.324905e+003,9.585061e+001
1.325869e+003,9.872845e+001
1.326833e+003,9.994209e+001
1.327798e+003,9.946826e+001
1.328762e+003,9.974286e+001
1.329726e+003,1.015394e+002
1.330690e+003,1.028570e+002
1.331655e+003,1.027001e+002
1.332619e+003,1.024305e+002
1.333583e+003,1.031907e+002
1.334547e+003,1.044960e+002
1.335511e+003,1.052229e+002
1.336476e+003,1.049226e+002
1.337440e+003,1.041493e+002
1.338404e+003,1.035742e+002
1.339368e+003,1.032847e+002
1.340333e+003,1.036996e+002
1.341297e+003,1.052264e+002
1.342261e+003,1.058888e+002
1.343225e+003,1.048076e+002
1.344190e+003,1.035662e+002
1.345154e+003,1.029013e+002
1.346118e+003,1.029766e+002
1.347082e+003,1.043716e+002
1.348047e+003,1.072804e+002
1.349011e+003,1.098139e+002
1.349975e+003,1.109913e+002
1.350939e+003,1.111420e+002
1.351903e+003,1.100530e+002
1.352868e+003,1.084530e+002
1.353832e+003,1.080619e+002
1.354796e+003,1.092924e+002
1.355760e+003,1.109022e+002
1.356725e+003,1.117810e+002
1.357689e+003,1.120351e+002
1.358653e+003,1.120052e+002
1.359617e+003,1.114215e+002
1.360582e+003,1.113324e+002
1.361546e+003,1.121330e+002
1.362510e+003,1.129588e+002
1.363474e+003,1.135254e+002
1.364438e+003,1.142296e+002
1.365403e+003,1.156988e+002
1.366367e+003,1.175817e+002
1.367331e+003,1.185570e+002
1.368295e+003,1.177877e+002
1.369260e+003,1.163827e+002
1.370224e+003,1.164044e+002
1.371188e+003,1.180302e+002
1.372152e+003,1.195549e+002
1.373117e+003,1.212001e+002
1.374081e+003,1.215087e+002
1.375045e+003,1.183475e+002
1.376009e+003,1.149439e+002
1.376974e+003,1.158447e+002
1.377938e+003,1.202598e+002
1.378902e+003,1.224090e+002
1.379866e+003,1.199933e+002
1.380830e+003,1.174820e+002
1.381795e+003,1.187439e+002
1.382759e+003,1.207914e+002
1.383723e+003,1.206748e+002
1.384687e+003,1.191584e+002
1.385652e+003,1.186346e+002
1.386616e+003,1.199940e+002
1.387580e+003,1.220850e+002
1.388544e+003,1.235560e+002
1.389509e+003,1.243860e+002
1.390473e+003,1.250644e+002
1.391437e+003,1.257945e+002
1.392401e+003,1.263181e+002
1.393365e+003,1.260321e+002
1.394330e+003,1.260320e+002
1.395294e+003,1.270206e+002
1.396258e+003,1.282492e+002
1.397222e+003,1.290436e+002
1.398187e+003,1.293812e+002
1.399151e+003,1.294258e+002
1.400115e+003,1.291441e+002
1.401079e+003,1.287426e+002
1.402044e+003,1.288055e+002
1.403008e+003,1.293677e+002
1.403972e+003,1.299981e+002
1.404936e+003,1.311134e+002
1.405901e+003,1.315974e+002
1.406865e+003,1.303030e+002
1.407829e+003,1.287440e+002
1.408793e+003,1.284425e+002
1.409757e+003,1.293920e+002
1.410722e+003,1.311899e+002
1.411686e+003,1.338087e+002
1.412650e+003,1.360109e+002
1.413614e+003,1.370806e+002
1.414579e+003,1.374263e+002
1.415543e+003,1.374566e+002
1.416507e+003,1.372118e+002
1.417471e+003,1.363363e+002
1.418436e+003,1.346588e+002
1.419400e+003,1.334039e+002
1.420364e+003,1.339693e+002
1.421328e+003,1.361362e+002
1.422292e+003,1.386421e+002
1.423257e+003,1.415785e+002
1.424221e+003,1.439935e+002
1.425185e+003,1.462865e+002
1.426149e+003,1.470830e+002
1.427114e+003,1.443973e+002
1.428078e+003,1.417057e+002
1.429042e+003,1.427635e+002
1.430006e+003,1.466351e+002
1.430971e+003,1.496348e+002
1.431935e+003,1.498817e+002
1.432899e+003,1.488467e+002
1.433863e+003,1.486880e+002
1.434828e+003,1.494070e+002
1.435792e+003,1.496435e+002
1.436756e+003,1.486077e+002
1.437720e+003,1.479838e+002
1.438684e+003,1.486827e+002
1.439649e+003,1.493250e+002
1.440613e+003,1.488790e+002
1.441577e+003,1.479726e+002
1.442541e+003,1.475264e+002
1.443506e+003,1.476041e+002
1.444470e+003,1.479018e+002
1.445434e+003,1.483136e+002
1.446398e+003,1.492497e+002
1.447363e+003,1.516743e+002
1.448327e+003,1.547589e+002
1.449291e+003,1.561638e+002
1.450255e+003,1.557180e+002
1.451219e+003,1.559713e+002
1.452184e+003,1.588058e+002
1.453148e+003,1.619917e+002
1.454112e+003,1.621768e+002
1.455076e+003,1.599547e+002
1.456041e+003,1.592558e+002
1.457005e+003,1.609472e+002
1.457969e+003,1.632119e+002
1.458933e+003,1.668499e+002
1.459898e+003,1.690550e+002
1.460862e+003,1.663879e+002
1.461826e+003,1.617939e+002
1.462790e+003,1.600553e+002
1.463755e+003,1.617541e+002
1.464719e+003,1.636272e+002
1.465683e+003,1.632644e+002
1.466647e+003,1.619158e+002
1.467611e+003,1.625729e+002
1.468576e+003,1.656436e+002
1.469540e+003,1.671523e+002
1.470504e+003,1.656817e+002
1.471468e+003,1.650171e+002
1.472433e+003,1.659072e+002
1.473397e+003,1.673784e+002
1.474361e+003,1.693581e+002
1.475325e+003,1.713133e+002
1.476290e+003,1.725475e+002
1.477254e+003,1.728193e+002
1.478218e+003,1.722073e+002
1.479182e+003,1.707977e+002
1.480146e+003,1.692966e+002
1.481111e+003,1.692337e+002
1.482075e+003,1.707012e+002
1.483039e+003,1.718494e+002
1.484003e+003,1.732231e+002
1.484968e+003,1.733869e+002
1.485932e+003,1.706689e+002
1.486896e+003,1.682559e+002
1.487860e+003,1.692823e+002
1.488825e+003,1.723833e+002
1.489789e+003,1.742375e+002
1.490753e+003,1.740846e+002
1.491717e+003,1.734557e+002
1.492682e+003,1.733492e+002
1.493646e+003,1.732297e+002
1.494610e+003,1.713120e+002
1.495574e+003,1.686248e+002
1.496538e+003,1.692313e+002
1.497503e+003,1.740968e+002
1.498467e+003,1.784430e+002
1.499431e+003,1.799674e+002
1.500395e+003,1.794645e+002
1.501360e+003,1.769131e+002
1.502324e+003,1.732417e+002
1.503288e+003,1.729586e+002
1.504252e+003,1.773567e+002
1.505217e+003,1.811697e+002
1.506181e+003,1.820596e+002
1.507145e+003,1.813365e+002
1.508109e+003,1.798161e+002
1.509073e+003,1.778032e+002
1.510038e+003,1.753023e+002
1.511002e+003,1.725791e+002
1.511966e+003,1.710718e+002
1.512930e+003,1.718023e+002
1.513895e+003,1.739231e+002
1.514859e+003,1.764045e+002
1.515823e+003,1.790658e+002
1.516787e+003,1.790507e+002
1.517752e+003,1.750307e+002
1.518716e+003,1.721696e+002
1.519680e+003,1.716244e+002
1.520644e+003,1.722699e+002
1.521609e+003,1.743697e+002
1.522573e+003,1.769501e+002
1.523537e+003,1.802038e+002
1.524501e+003,1.831347e+002
1.525465e+003,1.822951e+002
1.526430e+003,1.758210e+002
1.527394e+003,1.677121e+002
1.528358e+003,1.643661e+002
1.529322e+003,1.655528e+002
1.530287e+003,1.666165e+002
1.531251e+003,1.680262e+002
1.532215e+003,1.686023e+002
1.533179e+003,1.676361e+002
1.534144e+003,1.666170e+002
1.535108e+003,1.665170e+002
1.536072e+003,1.662813e+002
1.537036e+003,1.641870e+002
1.538000e+003,1.609826e+002
1.538965e+003,1.593158e+002
1.539929e+003,1.601949e+002
1.540893e+003,1.614387e+002
1.541857e+003,1.605873e+002
1.542822e+003,1.584389e+002
1.543786e+003,1.577924e+002
1.544750e+003,1.590322e+002
1.545714e+003,1.601139e+002
1.546679e+003,1.617862e+002
1.547643e+003,1.621398e+002
1.548607e+003,1.594785e+002
1.549571e+003,1.563962e+002
1.550536e+003,1.550446e+002
1.551500e+003,1.552180e+002
1.552464e+003,1.563287e+002
1.553428e+003,1.582075e+002
1.554392e+003,1.601023e+002
1.555357e+003,1.614367e+002
1.556321e+003,1.617018e+002
1.557285e+003,1.595899e+002
1.558249e+003,1.553827e+002
1.559214e+003,1.527643e+002
1.560178e+003,1.521946e+002
1.561142e+003,1.522080e+002
1.562106e+003,1.532065e+002
1.563071e+003,1.534098e+002
1.564035e+003,1.504867e+002
1.564999e+003,1.460829e+002
1.565963e+003,1.439864e+002
1.566927e+003,1.446516e+002
1.567892e+003,1.454479e+002
1.568856e+003,1.451836e+002
1.569820e+003,1.442447e+002
1.570784e+003,1.426275e+002
1.571749e+003,1.408371e+002
1.572713e+003,1.406960e+002
1.573677e+003,1.421836e+002
1.574641e+003,1.417176e+002
1.575606e+003,1.370472e+002
1.576570e+003,1.320678e+002
1.577534e+003,1.298903e+002
1.578498e+003,1.296593e+002
1.579463e+003,1.299904e+002
1.580427e+003,1.306721e+002
1.581391e+003,1.308041e+002
1.582355e+003,1.300251e+002
1.583319e+003,1.293045e+002
1.584284e+003,1.300763e+002
1.585248e+003,1.306332e+002
1.586212e+003,1.276700e+002
1.587176e+003,1.226087e+002
1.588141e+003,1.203677e+002
1.589105e+003,1.220929e+002
1.590069e+003,1.228615e+002
1.591033e+003,1.185275e+002
1.591998e+003,1.126877e+002
1.592962e+003,1.105736e+002
1.593926e+003,1.116729e+002
1.594890e+003,1.137201e+002
1.595854e+003,1.169986e+002
1.596819e+003,1.183998e+002
1.597783e+003,1.157054e+002
1.598747e+003,1.121727e+002
1.599711e+003,1.097739e+002
1.600676e+003,1.082444e+002
1.601640e+003,1.078164e+002
1.602604e+003,1.082055e+002
1.603568e+003,1.082673e+002
1.604533e+003,1.075354e+002
1.605497e+003,1.057391e+002
1.606461e+003,1.016240e+002
1.607425e+003,9.676389e+001
1.608390e+003,9.643355e+001
1.609354e+003,1.009071e+002
1.610318e+003,1.021571e+002
1.611282e+003,9.715395e+001
1.612246e+003,9.294092e+001
1.613211e+003,9.463297e+001
1.614175e+003,9.639503e+001
1.615139e+003,9.323277e+001
1.616103e+003,8.803284e+001
1.617068e+003,8.574255e+001
1.618032e+003,8.683193e+001
1.618996e+003,8.830031e+001
1.619960e+003,8.849684e+001
1.620925e+003,8.764700e+001
1.621889e+003,8.567361e+001
1.622853e+003,8.294667e+001
1.623817e+003,8.177948e+001
1.624781e+003,8.267844e+001
1.625746e+003,8.255795e+001
1.626710e+003,7.998894e+001
1.627674e+003,7.742700e+001
1.628638e+003,7.563444e+001
1.629603e+003,7.448566e+001
1.630567e+003,7.482650e+001
1.631531e+003,7.560563e+001
1.632495e+003,7.438554e+001
1.633460e+003,7.085913e+001
1.634424e+003,6.732980e+001
1.635388e+003,6.526961e+001
1.636352e+003,6.456242e+001
1.637317e+003,6.570897e+001
1.638281e+003,6.847282e+001
1.639245e+003,6.903154e+001
1.640209e+003,6.663879e+001
1.641173e+003,6.452502e+001
1.642138e+003,6.378392e+001
1.643102e+003,6.318497e+001
1.644066e+003,6.228877e+001
1.645030e+003,6.104794e+001
1.645995e+003,5.905804e+001
1.646959e+003,5.673146e+001
1.647923e+003,5.503760e+001
1.648887e+003,5.429126e+001
1.649852e+003,5.426533e+001
1.650816e+003,5.506445e+001
1.651780e+003,5.581152e+001
1.652744e+003,5.406966e+001
1.653708e+003,4.998130e+001
1.654673e+003,4.840407e+001
1.655637e+003,5.047129e+001
1.656601e+003,5.176154e+001
1.657565e+003,5.028882e+001
1.658530e+003,4.874714e+001
1.659494e+003,4.932753e+001
1.660458e+003,5.005137e+001
1.661422e+003,4.817269e+001
1.662387e+003,4.454447e+001
1.663351e+003,4.247982e+001
1.664315e+003,4.304253e+001
1.665279e+003,4.354211e+001
1.666244e+003,4.140010e+001
1.667208e+003,3.822258e+001
1.668172e+003,3.777241e+001
1.669136e+003,3.972944e+001
1.670100e+003,3.917267e+001
1.671065e+003,3.475709e+001
1.672029e+003,3.207687e+001
1.672993e+003,3.436203e+001
1.673957e+003,3.692105e+001
1.674922e+003,3.668172e+001
1.675886e+003,3.504583e+001
1.676850e+003,3.318296e+001
1.677814e+003,3.137275e+001
1.678779e+003,3.004213e+001
1.679743e+003,2.932904e+001
1.680707e+003,2.868768e+001
1.681671e+003,2.753675e+001
1.682635e+003,2.633002e+001
1.683600e+003,2.597987e+001
1.684564e+003,2.638611e+001
1.685528e+003,2.666111e+001
1.686492e+003,2.661207e+001
1.687457e+003,2.678769e+001
1.688421e+003,2.784660e+001
1.689385e+003,2.841517e+001
1.690349e+003,2.675367e+001
1.691314e+003,2.455703e+001
1.692278e+003,2.387967e+001
1.693242e+003,2.431921e+001
1.694206e+003,2.411606e+001
1.695171e+003,2.278248e+001
1.696135e+003,2.160500e+001
1.697099e+003,2.172128e+001
1.698063e+003,2.207571e+001
1.699027e+003,2.107391e+001
1.699992e+003,1.927443e+001
1.700956e+003,1.845952e+001
1.701920e+003,1.875759e+001
1.702884e+003,1.861722e+001
1.703849e+003,1.730427e+001
1.704813e+003,1.624375e+001
1.705777e+003,1.696681e+001
1.706741e+003,1.819471e+001
1.707706e+003,1.765333e+001
1.708670e+003,1.582605e+001
1.709634e+003,1.436652e+001
1.710598e+003,1.341967e+001
1.711563e+003,1.303020e+001
1.712527e+003,1.374874e+001
1.713491e+003,1.444424e+001
1.714455e+003,1.421619e+001
1.715419e+003,1.336375e+001
1.716384e+003,1.202845e+001
1.717348e+003,1.048547e+001
1.718312e+003,9.980817e+000
1.719276e+003,1.089478e+001
1.720241e+003,1.203827e+001
1.721205e+003,1.270088e+001
1.722169e+003,1.280005e+001
1.723133e+003,1.205339e+001
1.724098e+003,1.064300e+001
1.725062e+003,9.651733e+000
1.726026e+003,9.041632e+000
1.726990e+003,8.698725e+000
1.727954e+003,8.712458e+000
1.728919e+003,8.850103e+000
1.729883e+003,9.289258e+000
1.730847e+003,9.584473e+000
1.731811e+003,9.310858e+000
1.732776e+003,8.517700e+000
1.733740e+003,7.012537e+000
1.734704e+003,5.079242e+000
1.735668e+003,4.334455e+000
1.736633e+003,5.696771e+000
1.737597e+003,7.440021e+000
1.738561e+003,7.236566e+000
1.739525e+003,5.696777e+000
1.740490e+003,5.623865e+000
1.741454e+003,7.635345e+000
1.742418e+003,8.667297e+000
1.743382e+003,8.036921e+000
1.744346e+003,7.489148e+000
1.745311e+003,7.598382e+000
1.746275e+003,7.517401e+000
1.747239e+003,6.367682e+000
1.748203e+003,5.046765e+000
1.749168e+003,4.776746e+000
1.750132e+003,5.403778e+000
1.751096e+003,5.981763e+000
1.752060e+003,6.119519e+000
1.753025e+003,6.201434e+000
1.753989e+003,6.621368e+000
1.754953e+003,7.023462e+000
1.755917e+003,6.500665e+000
1.756881e+003,5.027795e+000
1.757846e+003,3.695508e+000
1.758810e+003,2.343665e+000
1.759774e+003,1.720569e+000
1.760738e+003,2.095752e+000
1.761703e+003,2.895081e+000
1.762667e+003,4.969482e+000
1.763631e+003,6.396222e+000
1.764595e+003,4.869372e+000
1.765560e+003,1.968860e+000
1.766524e+003,5.518860e-001
1.767488e+003,9.789001e-001
1.768452e+003,1.968094e+000
1.769417e+003,2.994720e+000
1.770381e+003,3.420755e+000
1.771345e+003,2.083408e+000
1.772309e+003,-2.326019e-001
1.773273e+003,-1.656561e+000
1.774238e+003,-2.227066e+000
1.775202e+003,-2.096875e+000
1.776166e+003,-1.182355e+000
1.777130e+003,-1.357758e-001
1.778095e+003,1.021374e+000
1.779059e+003,1.789563e+000
1.780023e+003,1.169763e+000
1.780987e+003,2.499817e-001
1.781952e+003,1.427301e+000
1.782916e+003,4.015332e+000
1.783880e+003,4.336768e+000
1.784844e+003,1.334821e+000
1.785808e+003,-1.207227e+000
1.786773e+003,-1.611502e+000
1.787737e+003,-1.158966e+000
1.788701e+003,-6.010101e-001
1.789665e+003,1.381836e-002
1.790630e+003,8.885925e-001
1.791594e+003,1.773807e+000
1.792558e+003,1.658612e+000
1.793522e+003,4.053680e-001
1.794487e+003,-4.718201e-001
1.795451e+003,1.795044e-002
1.796415e+003,1.033829e+000
1.797379e+003,1.479932e+000
1.798344e+003,1.281958e+000
1.799308e+003,8.819886e-002
1.800272e+003,-2.992896e+000
1.801236e+003,-3.655399e+000
1.802201e+003,7.035828e-001
1.803165e+003,3.370154e+000
1.804129e+003,2.019449e+000
1.805093e+003,3.619202e-001
1.806057e+003,5.314026e-001
1.807022e+003,1.337738e+000
1.807986e+003,1.389279e+000
1.808950e+003,7.595581e-001
1.809914e+003,4.409180e-002
1.810879e+003,-5.046142e-001
1.811843e+003,-7.496430e-001
1.812807e+003,-5.774109e-001
1.813771e+003,-4.657013e-001
1.814736e+003,-1.375519e+000
1.815700e+003,-2.918796e+000
1.816664e+003,-2.663788e+000
1.817628e+003,-3.261169e-001
1.818593e+003,6.236084e-001
1.819557e+003,-8.192566e-001
1.820521e+003,-1.628949e+000
1.821485e+003,1.538544e-001
1.822449e+003,1.700967e+000
1.823414e+003,2.890106e-001
1.824378e+003,-2.205975e+000
1.825342e+003,-3.666962e+000
1.826306e+003,-3.968210e+000
1.827271e+003,-2.981833e+000
1.828235e+003,-4.888245e-001
1.829199e+003,1.162668e+000
1.830163e+003,1.179993e-001
1.831128e+003,-1.365643e+000
1.832092e+003,-1.392746e+000
1.833056e+003,-6.317902e-001
1.834020e+003,2.303467e-002
1.834984e+003,4.589294e-001
1.835949e+003,7.532929e-001
1.836913e+003,9.192474e-001
1.837877e+003,5.391815e-001
1.838841e+003,-6.728668e-001
1.839806e+003,-1.868652e+000
1.840770e+003,-2.135889e+000
1.841734e+003,-1.548563e+000
1.842698e+003,-8.502807e-002
1.843663e+003,2.597198e+000
1.844627e+003,3.483057e+000
1.845591e+003,3.836700e-001
1.846555e+003,-1.113400e+000
1.847520e+003,7.538666e-001
1.848484e+003,2.050082e+000
1.849448e+003,3.828216e-001
1.850412e+003,-1.461154e+000
1.851376e+003,-8.453491e-001
1.852341e+003,1.123773e+000
1.853305e+003,2.434906e+000
1.854269e+003,2.707043e+000
1.855233e+003,2.545126e+000
1.856198e+003,2.278976e+000
1.857162e+003,1.967361e+000
1.858126e+003,1.643185e+000
1.859090e+003,1.356210e+000
1.860055e+003,1.107938e+000
1.861019e+003,8.939514e-001
1.861983e+003,1.032205e+000
1.862947e+003,1.572165e+000
1.863911e+003,1.905865e+000
1.864876e+003,1.958093e+000
1.865840e+003,1.572046e+000
1.866804e+003,3.768768e-001
1.867768e+003,-8.956024e-001
1.868733e+003,-1.576767e+000
1.869697e+003,-1.654761e+000
1.870661e+003,-8.961700e-001
1.871625e+003,7.046936e-001
1.872590e+003,1.954770e+000
1.873554e+003,2.706699e+000
1.874518e+003,3.188538e+000
1.875482e+003,3.697376e+000
1.876447e+003,3.703171e+000
1.877411e+003,2.616458e+000
1.878375e+003,1.092410e+000
1.879339e+003,-6.435059e-001
1.880303e+003,-2.082303e+000
1.881268e+003,-2.003641e+000
1.882232e+003,-5.400635e-001
1.883196e+003,5.344055e-001
1.884160e+003,2.922638e-001
1.885125e+003,-3.683167e-001
1.886089e+003,-4.994537e-001
1.887053e+003,-1.861237e-001
1.888017e+003,5.478333e-001
1.888982e+003,1.729016e+000
1.889946e+003,2.382056e+000
1.890910e+003,2.537500e+000
1.891874e+003,1.923624e+000
1.892839e+003,-1.582062e-001
1.893803e+003,-1.585953e+000
1.894767e+003,-1.002951e+000
1.895731e+003,2.280609e-001
1.896695e+003,1.035593e+000
1.897660e+003,1.552493e+000
1.898624e+003,2.024689e+000
1.899588e+003,2.430536e+000
1.900552e+003,2.430188e+000
1.901517e+003,1.712012e+000
1.902481e+003,1.405441e+000
1.903445e+003,2.648004e+000
1.904409e+003,3.670267e+000
1.905374e+003,2.769660e+000
1.906338e+003,1.518582e+000
1.907302e+003,2.140891e+000
1.908266e+003,3.665921e+000
1.909230e+003,3.567425e+000
1.910195e+003,1.843915e+000
1.911159e+003,6.617218e-001
1.912123e+003,1.024738e+000
1.913087e+003,2.292947e+000
1.914052e+003,3.919366e+000
1.915016e+003,5.137222e+000
1.915980e+003,4.146411e+000
1.916944e+003,1.190305e+000
1.917909e+003,-4.986816e-001
1.918873e+003,-7.810852e-001
1.919837e+003,-4.158142e-001
1.920801e+003,8.336304e-001
1.921766e+003,1.816937e+000
1.922730e+003,1.925595e+000
1.923694e+003,1.896332e+000
1.924658e+003,2.315524e+000
1.925622e+003,2.897986e+000
1.926587e+003,3.406628e+000
1.927551e+003,3.799735e+000
1.928515e+003,3.886560e+000
1.929479e+003,3.633255e+000
1.930444e+003,3.295914e+000
1.931408e+003,2.558575e+000
1.932372e+003,2.283960e+000
1.933336e+003,3.527408e+000
1.934301e+003,4.711194e+000
1.935265e+003,4.188828e+000
1.936229e+003,3.036008e+000
1.937193e+003,2.671988e+000
1.938157e+003,3.155539e+000
1.939122e+003,4.443088e+000
1.940086e+003,6.166498e+000
1.941050e+003,6.719550e+000
1.942014e+003,5.176801e+000
1.942979e+003,3.342477e+000
1.943943e+003,3.531473e+000
1.944907e+003,4.922793e+000
1.945871e+003,5.163547e+000
1.946836e+003,4.339850e+000
1.947800e+003,3.632697e+000
1.948764e+003,2.985275e+000
1.949728e+003,2.944693e+000
1.950693e+003,3.808524e+000
1.951657e+003,4.522555e+000
1.952621e+003,4.614786e+000
1.953585e+003,4.433807e+000
1.954549e+003,4.248090e+000
1.955514e+003,4.016318e+000
1.956478e+003,3.611249e+000
1.957442e+003,3.050314e+000
1.958406e+003,2.575180e+000
1.959371e+003,2.029968e+000
1.960335e+003,1.974802e+000
1.961299e+003,2.902872e+000
1.962263e+003,3.790567e+000
1.963228e+003,4.419137e+000
1.964192e+003,4.717084e+000
1.965156e+003,4.122861e+000
1.966120e+003,3.547128e+000
1.967084e+003,4.460834e+000
1.968049e+003,6.327875e+000
1.969013e+003,7.564654e+000
1.969977e+003,7.734375e+000
1.970941e+003,7.320557e+000
1.971906e+003,6.565179e+000
1.972870e+003,5.951926e+000
1.973834e+003,6.206338e+000
1.974798e+003,6.763422e+000
1.975763e+003,6.448321e+000
1.976727e+003,5.590704e+000
1.977691e+003,5.279666e+000
1.978655e+003,5.511374e+000
1.979620e+003,5.727536e+000
1.980584e+003,5.821945e+000
1.981548e+003,5.811417e+000
1.982512e+003,5.658783e+000
1.983476e+003,5.569312e+000
1.984441e+003,5.810379e+000
1.985405e+003,6.139795e+000
1.986369e+003,5.933020e+000
1.987333e+003,5.241876e+000
1.988298e+003,5.207208e+000
1.989262e+003,6.196472e+000
1.990226e+003,6.563013e+000
1.991190e+003,5.597525e+000
1.992155e+003,5.277753e+000
1.993119e+003,6.986072e+000
1.994083e+003,8.383222e+000
1.995047e+003,8.017926e+000
1.996011e+003,6.906372e+000
1.996976e+003,5.967898e+000
1.997940e+003,5.208673e+000
1.998904e+003,4.250369e+000
1.999868e+003,3.131174e+000
2.000833e+003,3.309293e+000
2.001797e+003,5.805591e+000
2.002761e+003,7.833112e+000
2.003725e+003,8.029327e+000
2.004690e+003,7.750049e+000
2.005654e+003,7.859137e+000
2.006618e+003,7.924823e+000
2.007582e+003,7.260199e+000
2.008547e+003,6.326221e+000
2.009511e+003,6.128067e+000
2.010475e+003,6.501752e+000
2.011439e+003,6.166177e+000
2.012403e+003,4.829709e+000
2.013368e+003,4.053107e+000
2.014332e+003,5.030710e+000
2.015296e+003,6.407804e+000
2.016260e+003,6.121549e+000
2.017225e+003,5.107724e+000
2.018189e+003,5.884534e+000
2.019153e+003,7.832587e+000
2.020117e+003,8.219745e+000
2.021082e+003,7.037482e+000
2.022046e+003,6.785205e+000
2.023010e+003,8.095795e+000
2.023974e+003,9.002344e+000
2.024938e+003,8.388367e+000
2.025903e+003,7.083087e+000
2.026867e+003,5.835177e+000
2.027831e+003,5.045984e+000
2.028795e+003,5.823169e+000
2.029760e+003,8.114337e+000
2.030724e+003,9.264435e+000
2.031688e+003,8.976941e+000
2.032652e+003,8.286847e+000
2.033617e+003,6.880216e+000
2.034581e+003,5.941483e+000
2.035545e+003,5.630008e+000
2.036509e+003,6.175543e+000
2.037474e+003,8.400671e+000
2.038438e+003,1.074491e+001
2.039402e+003,1.178111e+001
2.040366e+003,1.171792e+001
2.041330e+003,1.067583e+001
2.042295e+003,8.747729e+000
2.043259e+003,7.530487e+000
2.044223e+003,7.281793e+000
2.045187e+003,7.506525e+000
2.046152e+003,8.650678e+000
2.047116e+003,9.467608e+000
2.048080e+003,9.060461e+000
2.049044e+003,8.580945e+000
2.050009e+003,8.956403e+000
2.050973e+003,9.710785e+000
2.051937e+003,1.042090e+001
2.052901e+003,1.091155e+001
2.053865e+003,1.084313e+001
2.054830e+003,1.024604e+001
2.055794e+003,9.841120e+000
2.056758e+003,1.000537e+001
2.057722e+003,9.873462e+000
2.058687e+003,8.374298e+000
2.059651e+003,6.864362e+000
2.060615e+003,6.602460e+000
2.061579e+003,7.113452e+000
2.062544e+003,8.026733e+000
2.063508e+003,9.179120e+000
2.064472e+003,1.063043e+001
2.065436e+003,1.198033e+001
2.066401e+003,1.186424e+001
2.067365e+003,1.010392e+001
2.068329e+003,8.424726e+000
2.069293e+003,7.936786e+000
2.070258e+003,7.879926e+000
2.071222e+003,7.327527e+000
2.072186e+003,6.703604e+000
2.073150e+003,6.934036e+000
2.074115e+003,7.877368e+000
2.075079e+003,9.211865e+000
2.076043e+003,1.072939e+001
2.077007e+003,1.083634e+001
2.077971e+003,9.405909e+000
2.078936e+003,8.621790e+000
2.079900e+003,9.278852e+000
2.080864e+003,1.014923e+001
2.081828e+003,1.037459e+001
2.082792e+003,1.031044e+001
2.083757e+003,1.046511e+001
2.084721e+003,1.066480e+001
2.085685e+003,1.022701e+001
2.086649e+003,9.116882e+000
2.087614e+003,8.973950e+000
2.088578e+003,1.017953e+001
2.089542e+003,1.041667e+001
2.090506e+003,9.023132e+000
2.091471e+003,7.763367e+000
2.092435e+003,7.034375e+000
2.093399e+003,7.204684e+000
2.094363e+003,9.090546e+000
2.095328e+003,1.112093e+001
2.096292e+003,1.102617e+001
2.097256e+003,9.454468e+000
2.098220e+003,8.761902e+000
2.099185e+003,9.079187e+000
2.100149e+003,9.510803e+000
2.101113e+003,1.018975e+001
2.102077e+003,1.063698e+001
2.103042e+003,1.131777e+001
2.104006e+003,1.106406e+001
2.104970e+003,7.981946e+000
2.105934e+003,5.868512e+000
2.106898e+003,8.065948e+000
2.107863e+003,1.108359e+001
2.108827e+003,1.088439e+001
2.109791e+003,8.927478e+000
2.110755e+003,8.703924e+000
2.111719e+003,1.031125e+001
2.112684e+003,1.157729e+001
2.113648e+003,1.212902e+001
2.114612e+003,1.259565e+001
2.115576e+003,1.361768e+001
2.116541e+003,1.376558e+001
2.117505e+003,1.114141e+001
2.118469e+003,9.175311e+000
2.119433e+003,1.126414e+001
2.120398e+003,1.402585e+001
2.121362e+003,1.364522e+001
2.122326e+003,1.124003e+001
2.123290e+003,9.273718e+000
2.124255e+003,8.137121e+000
2.125219e+003,7.210269e+000
2.126183e+003,6.250421e+000
2.127147e+003,6.355222e+000
2.128112e+003,9.157269e+000
2.129076e+003,1.144952e+001
2.130040e+003,1.115357e+001
2.131004e+003,9.995295e+000
2.131969e+003,8.999011e+000
2.132933e+003,8.157104e+000
2.133897e+003,7.504114e+000
2.134861e+003,6.951526e+000
2.135825e+003,6.061240e+000
2.136790e+003,5.069159e+000
2.137754e+003,5.117816e+000
2.138718e+003,6.457309e+000
2.139682e+003,7.638495e+000
2.140646e+003,7.938049e+000
2.141611e+003,7.497260e+000
2.142575e+003,5.736374e+000
2.143539e+003,3.962439e+000
2.144503e+003,3.758035e+000
2.145468e+003,4.247684e+000
2.146432e+003,3.775321e+000
2.147396e+003,3.179367e+000
2.148360e+003,4.978165e+000
2.149325e+003,8.397168e+000
2.150289e+003,1.001268e+001
2.151253e+003,8.962738e+000
2.152217e+003,7.216431e+000
2.153182e+003,5.895316e+000
2.154146e+003,5.044635e+000
2.155110e+003,4.723321e+000
2.156074e+003,4.869925e+000
2.157039e+003,5.568002e+000
2.158003e+003,6.473081e+000
2.158967e+003,7.398981e+000
2.159931e+003,8.014460e+000
2.160896e+003,7.259103e+000
2.161860e+003,5.582053e+000
2.162824e+003,4.528867e+000
2.163788e+003,4.525055e+000
2.164752e+003,5.529840e+000
2.165717e+003,7.367203e+000
2.166681e+003,8.415106e+000
2.167645e+003,7.097959e+000
2.168609e+003,5.031613e+000
2.169573e+003,4.406070e+000
2.170538e+003,4.691293e+000
2.171502e+003,5.106323e+000
2.172466e+003,5.423444e+000
2.173430e+003,4.974582e+000
2.174395e+003,4.053674e+000
2.175359e+003,3.715900e+000
2.176323e+003,4.084140e+000
2.177287e+003,4.700241e+000
2.178252e+003,5.282306e+000
2.179216e+003,5.378308e+000
2.180180e+003,4.669440e+000
2.181144e+003,3.883151e+000
2.182109e+003,3.959570e+000
2.183073e+003,4.366178e+000
2.184037e+003,4.011716e+000
2.185001e+003,3.245477e+000
2.185966e+003,3.035770e+000
2.186930e+003,3.261960e+000
2.187894e+003,3.294705e+000
2.188858e+003,3.082047e+000
2.189823e+003,2.887061e+000
2.190787e+003,2.739923e+000
2.191751e+003,2.514310e+000
2.192715e+003,2.175320e+000
2.193679e+003,1.575421e+000
2.194644e+003,4.119507e-001
2.195608e+003,-3.747436e-001
2.196572e+003,1.317078e+000
2.197536e+003,4.236771e+000
2.198500e+003,5.279242e+000
2.199465e+003,4.990814e+000
2.200429e+003,4.982871e+000
2.201393e+003,5.192420e+000
2.202357e+003,4.572470e+000
2.203322e+003,3.161322e+000
2.204286e+003,2.402136e+000
2.205250e+003,2.752380e+000
2.206214e+003,2.955734e+000
2.207179e+003,2.150336e+000
2.208143e+003,1.243491e+000
2.209107e+003,1.314606e+000
2.210071e+003,1.937390e+000
2.211036e+003,2.494952e+000
2.212000e+003,2.919165e+000
2.212964e+003,3.168796e+000
2.213928e+003,3.080338e+000
2.214893e+003,1.902231e+000
2.215857e+003,2.980347e-002
2.216821e+003,-1.007706e+000
2.217785e+003,-8.862640e-001
2.218750e+003,-5.751038e-002
2.219714e+003,1.134537e+000
2.220678e+003,1.635983e+000
2.221642e+003,5.239776e-001
2.222606e+003,-8.072845e-001
2.223571e+003,-5.237457e-001
2.224535e+003,6.969604e-001
2.225499e+003,2.128076e+000
2.226463e+003,3.333722e+000
2.227427e+003,3.002121e+000
2.228392e+003,1.772214e+000
2.229356e+003,1.559058e+000
2.230320e+003,2.313180e+000
2.231284e+003,2.750580e+000
2.232249e+003,2.468899e+000
2.233213e+003,1.751239e+000
2.234177e+003,7.889130e-001
2.235141e+003,-1.444397e-001
2.236106e+003,-9.619476e-001
2.237070e+003,-1.139014e+000
2.238034e+003,5.677704e-001
2.238998e+003,2.715112e+000
2.239963e+003,3.300726e+000
2.240927e+003,2.902652e+000
2.241891e+003,2.232892e+000
2.242855e+003,1.668903e+000
2.243820e+003,1.955853e+000
2.244784e+003,2.827887e+000
2.245748e+003,3.152451e+000
2.246712e+003,2.623444e+000
2.247677e+003,1.612189e+000
2.248641e+003,2.651520e-001
2.249605e+003,-4.403992e-002
2.250569e+003,2.783969e+000
2.251533e+003,5.472888e+000
2.252498e+003,4.236722e+000
2.253462e+003,2.096863e+000
2.254426e+003,2.395761e+000
2.255390e+003,3.734030e+000
2.256354e+003,4.165765e+000
2.257319e+003,3.862750e+000
2.258283e+003,3.618961e+000
2.259247e+003,3.502606e+000
2.260211e+003,3.046158e+000
2.261176e+003,2.202298e+000
2.262140e+003,1.789578e+000
2.263104e+003,2.329419e+000
2.264068e+003,2.589981e+000
2.265033e+003,1.456705e+000
2.265997e+003,4.150482e-001
2.266961e+003,5.522614e-001
2.267925e+003,8.847412e-001
2.268890e+003,7.232605e-001
2.269854e+003,2.622193e-001
2.270818e+003,-2.542236e-001
2.271782e+003,-8.330383e-001
2.272747e+003,-1.872473e+000
2.273711e+003,-3.025824e+000
2.274675e+003,-2.791293e+000
2.275639e+003,-8.596497e-001
2.276604e+003,2.252289e-001
2.277568e+003,-8.196411e-001
2.278532e+003,-1.379233e+000
2.279496e+003,-3.221893e-001
2.280460e+003,5.667633e-001
2.281425e+003,8.304046e-001
2.282389e+003,5.304748e-001
2.283353e+003,-7.660797e-001
2.284317e+003,-2.079089e+000
2.285281e+003,-2.474741e+000
2.286246e+003,-2.305396e+000
2.287210e+003,-2.144449e+000
2.288174e+003,-2.025696e+000
2.289138e+003,-1.895175e+000
2.290103e+003,-1.644351e+000
2.291067e+003,-1.975616e+000
2.292031e+003,-3.498554e+000
2.292995e+003,-4.406958e+000
2.293960e+003,-4.504565e+000
2.294924e+003,-4.263016e+000
2.295888e+003,-3.521018e+000
2.296852e+003,-2.961166e+000
2.297817e+003,-3.068979e+000
2.298781e+003,-3.147223e+000
2.299745e+003,-2.326395e+000
2.300709e+003,-1.445853e+000
2.301674e+003,-2.145297e+000
2.302638e+003,-4.007556e+000
2.303602e+003,-4.848892e+000
2.304566e+003,-4.641583e+000
2.305531e+003,-3.993326e+000
2.306495e+003,-2.683163e+000
2.307459e+003,-2.608600e+000
2.308423e+003,-4.227160e+000
2.309387e+003,-4.340265e+000
2.310352e+003,-1.987683e+000
2.311316e+003,7.126160e-002
2.312280e+003,5.341919e-001
2.313244e+003,4.388733e-002
2.314208e+003,-9.437958e-001
2.315173e+003,-2.026163e+000
2.316137e+003,-2.526776e+000
2.317101e+003,-2.804977e+000
2.318065e+003,-4.331924e+000
2.319030e+003,-6.394760e+000
2.319994e+003,-5.648074e+000
2.320958e+003,-2.876626e+000
2.321922e+003,-1.281320e+000
2.322887e+003,-1.049429e+000
2.323851e+003,-1.470557e+000
2.324815e+003,-2.196643e+000
2.325779e+003,-2.621054e+000
2.326744e+003,-2.520313e+000
2.327708e+003,-2.213596e+000
2.328672e+003,-1.906323e+000
2.329636e+003,-1.982208e+000
2.330601e+003,-3.150992e+000
2.331565e+003,-4.245847e+000
2.332529e+003,-3.723071e+000
2.333493e+003,-2.634583e+000
2.334458e+003,-1.947150e+000
2.335422e+003,-1.733334e+000
2.336386e+003,-2.331674e+000
2.337350e+003,-3.166543e+000
2.338314e+003,-3.067822e+000
2.339279e+003,-2.374207e+000
2.340243e+003,-2.558905e+000
2.341207e+003,-3.812939e+000
2.342171e+003,-4.849960e+000
2.343135e+003,-5.264914e+000
2.344100e+003,-5.398331e+000
2.345064e+003,-5.306598e+000
2.346028e+003,-5.080695e+000
2.346992e+003,-4.303418e+000
2.347957e+003,-3.939059e+000
2.348921e+003,-5.130567e+000
2.349885e+003,-6.194696e+000
2.350849e+003,-5.546201e+000
2.351814e+003,-4.401407e+000
2.352778e+003,-4.397620e+000
2.353742e+003,-5.004898e+000
2.354706e+003,-4.731607e+000
2.355671e+003,-3.659921e+000
2.356635e+003,-3.361316e+000
2.357599e+003,-4.129889e+000
2.358563e+003,-4.491452e+000
2.359528e+003,-4.386374e+000
2.360492e+003,-4.055426e+000
2.361456e+003,-3.326712e+000
2.362420e+003,-3.159106e+000
2.363385e+003,-4.029254e+000
2.364349e+003,-4.496140e+000
2.365313e+003,-3.710492e+000
2.366277e+003,-2.786029e+000
2.367241e+003,-2.737024e+000
2.368206e+003,-3.373172e+000
2.369170e+003,-4.556958e+000
2.370134e+003,-5.754355e+000
2.371098e+003,-4.974023e+000
2.372063e+003,-2.899042e+000
2.373027e+003,-2.349289e+000
2.373991e+003,-3.036530e+000
2.374955e+003,-4.201501e+000
2.375919e+003,-5.424945e+000
2.376884e+003,-5.559198e+000
2.377848e+003,-4.601868e+000
2.378812e+003,-3.318897e+000
2.379776e+003,-2.171240e+000
2.380741e+003,-2.097012e+000
2.381705e+003,-3.651386e+000
2.382669e+003,-5.180719e+000
2.383633e+003,-5.611603e+000
2.384598e+003,-5.242581e+000
2.385562e+003,-3.768768e+000
2.386526e+003,-2.312295e+000
2.387490e+003,-1.588504e+000
2.388455e+003,-1.440655e+000
2.389419e+003,-1.965573e+000
2.390383e+003,-2.723010e+000
2.391347e+003,-3.176117e+000
2.392312e+003,-3.466849e+000
2.393276e+003,-4.149096e+000
2.394240e+003,-5.142230e+000
2.395204e+003,-5.422446e+000
2.396168e+003,-4.668436e+000
2.397133e+003,-4.051791e+000
2.398097e+003,-3.407953e+000
2.399061e+003,-3.420486e+000
2.400025e+003,-4.800677e+000
2.400990e+003,-5.331000e+000
2.401954e+003,-4.073944e+000
2.402918e+003,-2.982999e+000
2.403882e+003,-3.007083e+000
2.404846e+003,-3.345642e+000
2.405811e+003,-3.356583e+000
2.406775e+003,-3.244693e+000
2.407739e+003,-3.319534e+000
2.408703e+003,-3.565173e+000
2.409668e+003,-3.980731e+000
2.410632e+003,-4.436353e+000
2.411596e+003,-4.229315e+000
2.412560e+003,-3.533478e+000
2.413525e+003,-2.914267e+000
2.414489e+003,-2.463828e+000
2.415453e+003,-2.525403e+000
2.416417e+003,-2.895044e+000
2.417382e+003,-2.453983e+000
2.418346e+003,-1.240164e+000
2.419310e+003,-1.181705e+000
2.420274e+003,-3.016895e+000
2.421239e+003,-4.339020e+000
2.422203e+003,-3.449365e+000
2.423167e+003,-2.229156e+000
2.424131e+003,-1.951920e+000
2.425095e+003,-1.877393e+000
2.426060e+003,-1.088959e+000
2.427024e+003,-8.227112e-001
2.427988e+003,-2.994864e+000
2.428952e+003,-5.213122e+000
2.429917e+003,-4.571612e+000
2.430881e+003,-2.726462e+000
2.431845e+003,-2.329935e+000
2.432809e+003,-3.185431e+000
2.433773e+003,-4.182739e+000
2.434738e+003,-5.284378e+000
2.435702e+003,-5.371475e+000
2.436666e+003,-3.937576e+000
2.437630e+003,-3.270923e+000
2.438595e+003,-3.440973e+000
2.439559e+003,-4.454712e+000
2.440523e+003,-6.602973e+000
2.441487e+003,-7.037613e+000
2.442452e+003,-4.864059e+000
2.443416e+003,-2.008527e+000
2.444380e+003,5.557801e-001
2.445344e+003,1.164365e+000
2.446309e+003,-1.684894e+000
2.447273e+003,-4.582391e+000
2.448237e+003,-2.859494e+000
2.449201e+003,9.804291e-001
2.450166e+003,3.914825e+000
2.451130e+003,5.286835e+000
2.452094e+003,2.490640e+000
2.453058e+003,-1.498407e+000
2.454022e+003,-1.402368e+000
2.454987e+003,6.511627e-001
2.455951e+003,3.297729e-002
2.456915e+003,-2.668072e+000
2.457879e+003,-4.549783e+000
2.458844e+003,-5.069785e+000
2.459808e+003,-4.837070e+000
2.460772e+003,-3.913687e+000
2.461736e+003,-3.024631e+000
2.462700e+003,-2.124557e+000
2.463665e+003,-1.700601e+000
2.464629e+003,-1.833768e+000
2.465593e+003,-2.274872e+000
2.466557e+003,-3.319174e+000
2.467522e+003,-4.060382e+000
2.468486e+003,-4.029757e+000
2.469450e+003,-3.832175e+000
2.470414e+003,-3.868210e+000
2.471379e+003,-4.004761e+000
2.472343e+003,-4.135031e+000
2.473307e+003,-4.168890e+000
2.474271e+003,-3.866592e+000
2.475236e+003,-3.323990e+000
2.476200e+003,-2.736243e+000
2.477164e+003,-2.217880e+000
2.478128e+003,-2.243051e+000
2.479093e+003,-2.573859e+000
2.480057e+003,-2.443103e+000
2.481021e+003,-2.099014e+000
2.481985e+003,-2.647128e+000
2.482949e+003,-3.816254e+000
2.483914e+003,-3.941107e+000
2.484878e+003,-2.747012e+000
2.485842e+003,-1.843213e+000
2.486806e+003,-1.758749e+000
2.487771e+003,-2.222672e+000
2.488735e+003,-4.138596e+000
2.489699e+003,-4.964960e+000
2.490663e+003,-3.023795e+000
2.491627e+003,-1.433884e+000
2.492592e+003,-1.251678e+000
2.493556e+003,-1.576389e+000
2.494520e+003,-2.010608e+000
2.495484e+003,-2.866223e+000
2.496449e+003,-4.860602e+000
2.497413e+003,-6.243558e+000
2.498377e+003,-4.150678e+000
2.499341e+003,-4.209717e-001
2.500306e+003,-1.129608e-001
2.501270e+003,-2.343225e+000
2.502234e+003,-3.359161e+000
2.503198e+003,-3.309775e+000
2.504163e+003,-2.285904e+000
2.505127e+003,-8.262482e-001
2.506091e+003,-4.790955e-001
2.507055e+003,-1.010010e+000
2.508020e+003,-1.055600e+000
2.508984e+003,-5.302277e-001
2.509948e+003,-6.259033e-001
2.510912e+003,-1.591281e+000
2.511876e+003,-1.633179e+000
2.512841e+003,3.544067e-001
2.513805e+003,1.609991e+000
2.514769e+003,4.197205e-001
2.515733e+003,-3.768280e-001
2.516698e+003,5.052582e-001
2.517662e+003,9.957245e-001
2.518626e+003,4.061951e-001
2.519590e+003,-4.971405e-001
2.520554e+003,-1.587412e+000
2.521519e+003,-2.283267e+000
2.522483e+003,-2.019028e+000
2.523447e+003,-1.381012e+000
2.524411e+003,-1.243976e+000
2.525376e+003,-1.153488e+000
2.526340e+003,2.657593e-001
2.527304e+003,2.332620e+000
2.528268e+003,2.778384e+000
2.529233e+003,2.238141e+000
2.530197e+003,2.033005e+000
2.531161e+003,2.204367e+000
2.532125e+003,2.828284e+000
2.533090e+003,3.512338e+000
2.534054e+003,3.273151e+000
2.535018e+003,2.324127e+000
2.535982e+003,2.089474e+000
2.536947e+003,2.820718e+000
2.537911e+003,2.834934e+000
2.538875e+003,1.239758e+000
2.539839e+003,3.636841e-001
2.540803e+003,6.959229e-001
2.541768e+003,1.554416e+000
2.542732e+003,3.472620e+000
2.543696e+003,4.255322e+000
2.544660e+003,2.972855e+000
2.545625e+003,2.349976e+000
2.546589e+003,3.780444e+000
2.547553e+003,4.731866e+000
2.548517e+003,3.181693e+000
2.549482e+003,1.549802e+000
2.550446e+003,2.843030e+000
2.551410e+003,5.031946e+000
2.552374e+003,4.767987e+000
2.553339e+003,3.527686e+000
2.554303e+003,3.780966e+000
2.555267e+003,4.146402e+000
2.556231e+003,2.205545e+000
2.557196e+003,-2.682281e-001
2.558160e+003,-7.047974e-001
2.559124e+003,1.065796e-001
2.560088e+003,6.385437e-001
2.561052e+003,8.109223e-001
2.562017e+003,8.194122e-001
2.562981e+003,6.795532e-001
2.563945e+003,9.597412e-001
2.564909e+003,1.746530e+000
2.565874e+003,2.491757e+000
2.566838e+003,3.247589e+000
2.567802e+003,3.739111e+000
2.568766e+003,3.951508e+000
2.569730e+003,3.381802e+000
2.570695e+003,2.013690e+000
2.571659e+003,6.780670e-001
2.572623e+003,-2.563782e-001
2.573587e+003,-2.565674e-001
2.574552e+003,9.055664e-001
2.575516e+003,1.520676e+000
2.576480e+003,1.802154e-001
2.577444e+003,-1.148950e+000
2.578409e+003,-1.051251e+000
2.579373e+003,-8.511200e-001
2.580337e+003,-1.450201e+000
2.581301e+003,-1.795355e+000
2.582266e+003,-9.924652e-001
2.583230e+003,-2.421265e-002
2.584194e+003,3.156006e-001
2.585158e+003,6.176758e-001
2.586123e+003,1.717361e+000
2.587087e+003,2.575476e+000
2.588051e+003,1.143704e+000
2.589015e+003,-1.312228e+000
2.589979e+003,-3.366333e-001
2.590944e+003,2.827075e+000
2.591908e+003,3.266181e+000
2.592872e+003,1.857678e+000
2.593836e+003,3.073883e-001
2.594801e+003,-8.952179e-001
2.595765e+003,-8.637207e-001
2.596729e+003,-1.108093e-001
2.597693e+003,8.562927e-002
2.598657e+003,-3.680542e-001
2.599622e+003,-1.048880e+000
2.600586e+003,-1.839960e+000
2.601550e+003,-1.790066e+000
2.602514e+003,-3.132782e-001
2.603479e+003,6.749634e-001
2.604443e+003,1.039829e+000
2.605407e+003,1.246228e+000
2.606371e+003,1.372916e+000
2.607336e+003,1.312082e+000
2.608300e+003,1.031229e+000
2.609264e+003,9.572144e-001
2.610228e+003,1.187537e+000
2.611193e+003,8.778107e-001
2.612157e+003,-4.079071e-001
2.613121e+003,-1.503986e+000
2.614085e+003,-1.488763e+000
2.615050e+003,-1.109433e+000
2.616014e+003,-7.998688e-001
2.616978e+003,-6.486084e-001
2.617942e+003,-8.563721e-001
2.618906e+003,-9.703735e-001
2.619871e+003,-4.275818e-001
2.620835e+003,-5.566101e-002
2.621799e+003,-9.629456e-001
2.622763e+003,-1.626849e+000
2.623728e+003,-4.515533e-001
2.624692e+003,1.486172e+000
2.625656e+003,2.512671e+000
2.626620e+003,2.811865e+000
2.627584e+003,2.909717e+000
2.628549e+003,2.694681e+000
2.629513e+003,1.530505e+000
2.630477e+003,-5.950318e-002
2.631441e+003,-1.262549e+000
2.632406e+003,-1.796848e+000
2.633370e+003,-7.821258e-001
2.634334e+003,9.799103e-001
2.635298e+003,1.750778e+000
2.636263e+003,1.673923e+000
2.637227e+003,2.284219e+000
2.638191e+003,3.660559e+000
2.639155e+003,3.440915e+000
2.640120e+003,1.274197e+000
2.641084e+003,-6.621674e-001
2.642048e+003,-2.661841e+000
2.643012e+003,-2.494190e+000
2.643977e+003,8.294677e-003
2.644941e+003,9.960572e-001
2.645905e+003,2.266846e-002
2.646869e+003,-9.911133e-001
2.647833e+003,-1.389456e+000
2.648798e+003,-9.189789e-001
2.649762e+003,3.943451e-001
2.650726e+003,1.202847e+000
2.651690e+003,6.824463e-001
2.652655e+003,2.100983e-001
2.653619e+003,3.887604e-001
2.654583e+003,8.276398e-001
2.655547e+003,2.081839e+000
2.656511e+003,2.442108e+000
2.657476e+003,8.293457e-001
2.658440e+003,-1.385956e-001
2.659404e+003,8.642486e-001
2.660368e+003,1.459631e+000
2.661333e+003,4.882507e-002
2.662297e+003,-1.485416e+000
2.663261e+003,-1.315671e+000
2.664225e+003,-5.261627e-001
2.665190e+003,-4.252991e-001
2.666154e+003,-5.432037e-001
2.667118e+003,-6.490234e-001
2.668082e+003,-2.831756e-001
2.669047e+003,1.903564e+000
2.670011e+003,3.661060e+000
2.670975e+003,2.489822e+000
2.671939e+003,1.956177e-001
2.672904e+003,-1.813815e+000
2.673868e+003,-2.647128e+000
2.674832e+003,-5.993988e-001
2.675796e+003,2.585568e+000
2.676760e+003,2.130704e+000
2.677725e+003,-7.447632e-001
2.678689e+003,-9.822723e-001
2.679653e+003,5.836914e-001
2.680617e+003,1.947763e+000
2.681582e+003,2.763705e+000
2.682546e+003,2.286994e+000
2.683510e+003,1.175333e+000
2.684474e+003,4.077637e-001
2.685438e+003,1.615601e-001
2.686403e+003,7.271179e-001
2.687367e+003,1.875208e+000
2.688331e+003,2.084332e+000
2.689295e+003,1.330872e+000
2.690260e+003,1.479477e+000
2.691224e+003,2.714383e+000
2.692188e+003,2.829047e+000
2.693152e+003,1.840201e+000
2.694117e+003,1.732425e+000
2.695081e+003,2.498025e+000
2.696045e+003,2.848242e+000
2.697009e+003,2.570194e+000
2.697974e+003,1.801987e+000
2.698938e+003,8.176025e-001
2.699902e+003,9.550720e-001
2.700866e+003,2.781409e+000
2.701831e+003,3.226416e+000
2.702795e+003,-3.604736e-002
2.703759e+003,-1.542722e+000
2.704723e+003,-4.342163e-001
2.705688e+003,1.004919e+000
2.706652e+003,2.694672e+000
2.707616e+003,2.914410e+000
2.708580e+003,1.291626e+000
2.709544e+003,-6.225525e-001
2.710509e+003,-2.093381e+000
2.711473e+003,-2.643793e+000
2.712437e+003,-2.040759e+000
2.713401e+003,-1.178839e+000
2.714365e+003,-5.498199e-001
2.715330e+003,2.679443e-002
2.716294e+003,9.771179e-001
2.717258e+003,1.377377e+000
2.718222e+003,3.547791e-001
2.719187e+003,-4.274506e-001
2.720151e+003,-3.997436e-001
2.721115e+003,-4.000672e-001
2.722079e+003,-9.523621e-001
2.723044e+003,-4.714661e-001
2.724008e+003,2.294754e+000
2.724972e+003,4.493591e+000
2.725936e+003,2.995166e+000
2.726901e+003,5.201172e-001
2.727865e+003,4.026184e-002
2.728829e+003,2.400818e-002
2.729793e+003,-1.164917e+000
2.730758e+003,-1.896786e+000
2.731722e+003,8.879700e-002
2.732686e+003,1.458121e+000
2.733650e+003,-1.147229e+000
2.734615e+003,-3.242804e+000
2.735579e+003,-6.599029e-001
2.736543e+003,2.892938e+000
2.737507e+003,2.319510e+000
2.738471e+003,3.030701e-002
2.739436e+003,6.311066e-001
2.740400e+003,2.437827e+000
2.741364e+003,2.878589e+000
2.742328e+003,2.592255e+000
2.743292e+003,2.010303e+000
2.744257e+003,1.448428e+000
2.745221e+003,1.115256e+000
2.746185e+003,1.052457e+000
2.747149e+003,1.517377e+000
2.748114e+003,1.989276e+000
2.749078e+003,1.640872e+000
2.750042e+003,8.783081e-001
2.751006e+003,6.638153e-001
2.751971e+003,9.652923e-001
2.752935e+003,2.254785e+000
2.753899e+003,3.613977e+000
2.754863e+003,2.433948e+000
2.755828e+003,3.800781e-001
2.756792e+003,3.005920e-001
2.757756e+003,1.223981e+000
2.758720e+003,1.221167e+000
2.759685e+003,7.040680e-001
2.760649e+003,1.206494e+000
2.761613e+003,2.292441e+000
2.762577e+003,2.440167e+000
2.763542e+003,1.733166e+000
2.764506e+003,1.012888e+000
2.765470e+003,2.382965e-001
2.766434e+003,-1.158658e+000
2.767398e+003,-2.608365e+000
2.768363e+003,-2.459576e+000
2.769327e+003,-1.352133e+000
2.770291e+003,-5.662079e-001
2.771255e+003,-2.131531e-001
2.772219e+003,-4.551697e-001
2.773184e+003,-9.353424e-001
2.774148e+003,1.819885e-001
2.775112e+003,2.705011e+000
2.776076e+003,3.558722e+000
2.777041e+003,2.725513e+000
2.778005e+003,2.428827e+000
2.778969e+003,2.515179e+000
2.779933e+003,2.035547e+000
2.780898e+003,1.124689e+000
2.781862e+003,8.851318e-002
2.782826e+003,-6.756989e-001
2.783790e+003,-2.900055e-001
2.784755e+003,1.116742e+000
2.785719e+003,2.726325e+000
2.786683e+003,4.373029e+000
2.787647e+003,4.597516e+000
2.788612e+003,3.115460e+000
2.789576e+003,2.555402e+000
2.790540e+003,2.887341e+000
2.791504e+003,2.691766e+000
2.792469e+003,2.041831e+000
2.793433e+003,1.493723e+000
2.794397e+003,1.177646e+000
2.795361e+003,1.466571e+000
2.796325e+003,2.083398e+000
2.797290e+003,1.724332e+000
2.798254e+003,2.936066e-001
2.799218e+003,2.116089e-002
2.800182e+003,1.334845e+000
2.801146e+003,1.537393e+000
2.802111e+003,3.921081e-001
2.803075e+003,2.199197e+000
2.804039e+003,6.557806e+000
2.805003e+003,8.329126e+000
2.805968e+003,7.275897e+000
2.806932e+003,5.375305e+000
2.807896e+003,3.514801e+000
2.808860e+003,2.282159e+000
2.809825e+003,1.799216e+000
2.810789e+003,2.205051e+000
2.811753e+003,3.868720e+000
2.812717e+003,3.385541e+000
2.813682e+003,-2.271057e-001
2.814646e+003,-4.679382e-001
2.815610e+003,2.672260e+000
2.816574e+003,3.829883e+000
2.817539e+003,2.973529e+000
2.818503e+003,3.593872e+000
2.819467e+003,5.502612e+000
2.820431e+003,5.332202e+000
2.821396e+003,2.840600e+000
2.822360e+003,1.200171e+000
2.823324e+003,1.167551e+000
2.824288e+003,1.309076e+000
2.825252e+003,1.635522e+000
2.826217e+003,1.383835e+000
2.827181e+003,5.377136e-001
2.828145e+003,1.514685e+000
2.829109e+003,3.888867e+000
2.830073e+003,3.939178e+000
2.831038e+003,1.807159e+000
2.832002e+003,1.980682e-001
2.832966e+003,-2.401154e-001
2.833930e+003,-1.452484e-001
2.834895e+003,3.285919e-001
2.835859e+003,2.163528e+000
2.836823e+003,6.105182e+000
2.837787e+003,7.435779e+000
2.838752e+003,6.008368e+000
2.839716e+003,4.967608e+000
2.840680e+003,4.394122e+000
2.841644e+003,3.063818e+000
2.842609e+003,1.161173e+000
2.843573e+003,-1.313538e-001
2.844537e+003,-5.146424e-001
2.845501e+003,1.820648e-001
2.846466e+003,1.788364e+000
2.847430e+003,2.089880e+000
2.848394e+003,6.468048e-001
2.849358e+003,5.191284e-001
2.850323e+003,1.818558e+000
2.851287e+003,2.644000e+000
2.852251e+003,2.986188e+000
2.853215e+003,3.473145e+000
2.854179e+003,4.072259e+000
2.855144e+003,4.733398e+000
2.856108e+003,4.981793e+000
2.857072e+003,2.914014e+000
2.858036e+003,-9.954529e-001
2.859000e+003,-1.254248e+000
2.859965e+003,2.457574e+000
2.860929e+003,3.721375e+000
2.861893e+003,2.422852e+000
2.862857e+003,1.607251e+000
2.863822e+003,1.360632e+000
2.864786e+003,1.519241e+000
2.865750e+003,2.077417e+000
2.866714e+003,3.402362e+000
2.867679e+003,4.985486e+000
2.868643e+003,5.936999e+000
2.869607e+003,6.038165e+000
2.870571e+003,4.542890e+000
2.871536e+003,1.833844e+000
2.872500e+003,1.028375e+000
2.873464e+003,1.984457e+000
2.874428e+003,2.593988e+000
2.875393e+003,2.837866e+000
2.876357e+003,2.532611e+000
2.877321e+003,1.832117e+000
2.878285e+003,5.188659e-001
2.879250e+003,-6.917999e-001
2.880214e+003,-1.452942e-002
2.881178e+003,1.751489e+000
2.882142e+003,1.908215e+000
2.883106e+003,9.594269e-001
2.884071e+003,8.652954e-001
2.885035e+003,1.523215e+000
2.885999e+003,2.818170e+000
2.886963e+003,4.114978e+000
2.887927e+003,3.507025e+000
2.888892e+003,2.237405e+000
2.889856e+003,2.269495e+000
2.890820e+003,3.053052e+000
2.891784e+003,3.841095e+000
2.892749e+003,4.215332e+000
2.893713e+003,3.571967e+000
2.894677e+003,2.487860e+000
2.895641e+003,2.311981e+000
2.896606e+003,2.568591e+000
2.897570e+003,1.733548e+000
2.898534e+003,7.038940e-001
2.899498e+003,1.187103e+000
2.900463e+003,2.019617e+000
2.901427e+003,1.762738e+000
2.902391e+003,1.215768e+000
2.903355e+003,1.305740e+000
2.904320e+003,1.576279e+000
2.905284e+003,1.564694e+000
2.906248e+003,1.346423e+000
2.907212e+003,1.028885e+000
2.908177e+003,8.348328e-001
2.909141e+003,1.348434e+000
2.910105e+003,1.824381e+000
2.911069e+003,1.002423e+000
2.912033e+003,3.735046e-001
2.912998e+003,1.786212e+000
2.913962e+003,2.846478e+000
2.914926e+003,1.815912e+000
2.915890e+003,8.910675e-001
2.916854e+003,1.718814e+000
2.917819e+003,2.937360e+000
2.918783e+003,3.207788e+000
2.919747e+003,3.011932e+000
2.920711e+003,2.834930e+000
2.921676e+003,2.457648e+000
2.922640e+003,1.169510e+000
2.923604e+003,5.920563e-001
2.924568e+003,1.943973e+000
2.925533e+003,2.545224e+000
2.926497e+003,1.268771e+000
2.927461e+003,3.891632e-001
2.928425e+003,1.329303e+000
2.929390e+003,1.106113e+000
2.930354e+003,-3.314887e+000
2.931318e+003,-5.907547e+000
2.932282e+003,-4.716980e-001
2.933247e+003,3.355786e+000
2.934211e+003,3.430920e+000
2.935175e+003,3.299731e+000
2.936139e+003,2.645218e+000
2.937104e+003,1.634155e+000
2.938068e+003,5.080658e-001
2.939032e+003,3.647766e-001
2.939996e+003,1.352374e+000
2.940960e+003,2.085162e+000
2.941925e+003,2.000928e+000
2.942889e+003,1.527698e+000
2.943853e+003,4.194519e-001
2.944817e+003,5.066131e-001
2.945781e+003,2.231519e+000
2.946746e+003,2.709854e+000
2.947710e+003,1.828406e+000
2.948674e+003,6.933197e-001
2.949638e+003,-3.382324e-001
2.950603e+003,-9.935120e-001
2.951567e+003,-1.103137e+000
2.952531e+003,-4.081421e-002
2.953495e+003,2.025006e+000
2.954460e+003,2.612387e+000
2.955424e+003,1.684872e+000
2.956388e+003,1.330493e+000
2.957352e+003,1.426230e+000
2.958317e+003,6.191345e-001
2.959281e+003,-4.524261e-001
2.960245e+003,5.430328e-001
2.961209e+003,2.368204e+000
2.962174e+003,2.022940e+000
2.963138e+003,4.728821e-001
2.964102e+003,4.576233e-001
2.965066e+003,1.563812e+000
2.966031e+003,2.779318e+000
2.966995e+003,4.038709e+000
2.967959e+003,5.685217e+000
2.968923e+003,6.712866e+000
2.969887e+003,3.911511e+000
2.970852e+003,4.079834e-001
2.971816e+003,-1.801575e-001
2.972780e+003,8.441833e-001
2.973744e+003,2.824094e+000
2.974708e+003,4.349542e+000
2.975673e+003,4.266632e+000
2.976637e+003,3.242551e+000
2.977601e+003,1.909735e+000
2.978565e+003,7.855316e-001
2.979530e+003,5.528809e-001
2.980494e+003,9.401978e-001
2.981458e+003,2.796204e+000
2.982422e+003,3.597867e+000
2.983387e+003,8.778168e-001
2.984351e+003,-7.616638e-001
2.985315e+003,4.932098e-001
2.986279e+003,1.405380e+000
2.987244e+003,3.545319e-001
2.988208e+003,-4.975250e-001
2.989172e+003,2.133820e-001
2.990136e+003,1.116309e+000
2.991101e+003,1.750980e+000
2.992065e+003,1.804974e+000
2.993029e+003,6.194397e-001
2.993993e+003,6.980499e-001
2.994958e+003,2.367624e+000
2.995922e+003,2.876950e+000
2.996886e+003,1.918484e+000
2.997850e+003,1.117792e+000
2.998814e+003,9.273682e-001
2.999779e+003,1.016336e+000
3.000743e+003,1.271231e+000
3.001707e+003,1.619900e+000
3.002671e+003,2.225928e+000
3.003635e+003,1.496790e+000
3.004600e+003,-4.424225e-001
3.005564e+003,-9.111847e-001
3.006528e+003,-4.600616e-001
3.007492e+003,-1.792011e+000
3.008457e+003,-3.668216e+000
3.009421e+003,-2.302856e+000
3.010385e+003,9.726623e-001
3.011349e+003,2.023608e+000
3.012314e+003,1.160269e+000
3.013278e+003,-1.095239e+000
3.014242e+003,-3.619150e+000
3.015206e+003,-1.739520e+000
3.016171e+003,1.579782e+000
3.017135e+003,1.474017e+000
3.018099e+003,-2.685425e-001
3.019063e+003,-2.865527e+000
3.020028e+003,-4.330829e+000
3.020992e+003,-2.879181e+000
3.021956e+003,-9.888855e-001
3.022920e+003,-8.284943e-001
3.023885e+003,-1.181436e+000
3.024849e+003,-6.947144e-001
3.025813e+003,-7.113648e-003
3.026777e+003,8.751281e-001
3.027741e+003,8.155548e-001
3.028706e+003,-1.961969e+000
3.029670e+003,-3.612326e+000
3.030634e+003,-3.062466e+000
3.031598e+003,-2.161917e+000
3.032563e+003,-1.584631e+000
3.033527e+003,-1.146863e+000
3.034491e+003,-7.284698e-001
3.035455e+003,-2.551971e-001
3.036420e+003,3.399323e-001
3.037384e+003,8.039520e-001
3.038348e+003,1.086789e+000
3.039312e+003,9.715851e-001
3.040277e+003,4.809967e-001
3.041241e+003,1.072299e+000
3.042205e+003,2.397907e+000
3.043169e+003,2.551688e+000
3.044134e+003,1.601685e+000
3.045098e+003,4.149200e-001
3.046062e+003,-6.655976e-001
3.047026e+003,-8.681854e-001
3.047990e+003,-4.273010e-001
3.048955e+003,-9.440002e-001
3.049919e+003,-2.015179e+000
3.050883e+003,-1.798108e+000
3.051847e+003,-9.109161e-001
3.052812e+003,3.657227e-002
3.053776e+003,6.064575e-001
3.054740e+003,-2.595367e-001
3.055704e+003,-1.064209e+000
3.056668e+003,-2.639404e-001
3.057633e+003,8.831695e-001
3.058597e+003,9.878693e-001
3.059561e+003,5.402069e-001
3.060525e+003,-7.683106e-002
3.061490e+003,-5.852600e-001
3.062454e+003,-4.342133e-001
3.063418e+003,-6.692200e-001
3.064382e+003,-2.243753e+000
3.065347e+003,-2.707266e+000
3.066311e+003,-1.354630e+000
3.067275e+003,5.324829e-001
3.068239e+003,2.295624e+000
3.069204e+003,2.795300e+000
3.070168e+003,1.468341e+000
3.071132e+003,4.698853e-001
3.072096e+003,6.173279e-001
3.073061e+003,1.224045e+000
3.074025e+003,2.471881e+000
3.074989e+003,1.549756e+000
3.075953e+003,-1.005731e+000
3.076917e+003,-1.341345e+000
3.077882e+003,-1.473053e-001
3.078846e+003,-6.289978e-001
3.079810e+003,-2.464530e+000
3.080774e+003,-3.577670e+000
3.081739e+003,-3.754068e+000
3.082703e+003,-2.290628e+000
3.083667e+003,-1.575928e-002
3.084631e+003,2.111816e-001
3.085595e+003,-4.925781e-001
3.086560e+003,-6.236694e-001
3.087524e+003,-3.325897e-001
3.088488e+003,5.397552e-001
3.089452e+003,1.136462e+000
3.090417e+003,8.943329e-001
3.091381e+003,3.889191e-001
3.092345e+003,6.690979e-002
3.093309e+003,-4.253754e-001
3.094274e+003,-1.573590e+000
3.095238e+003,-2.460477e+000
3.096202e+003,-2.442392e+000
3.097166e+003,-2.013895e+000
3.098131e+003,-1.218304e+000
3.099095e+003,-3.733734e-001
3.100059e+003,4.134674e-001
3.101023e+003,6.187317e-001
3.101988e+003,2.180572e-001
3.102952e+003,-1.904938e-001
3.103916e+003,-5.586365e-001
3.104880e+003,-2.230450e+000
3.105844e+003,-5.345410e+000
3.106809e+003,-5.135489e+000
3.107773e+003,-2.078183e+000
3.108737e+003,-2.157156e+000
3.109701e+003,-4.037686e+000
3.110666e+003,-4.274320e+000
3.111630e+003,-3.521274e+000
3.112594e+003,-3.082855e+000
3.113558e+003,-2.971893e+000
3.114522e+003,-3.073050e+000
3.115487e+003,-3.186957e+000
3.116451e+003,-2.982324e+000
3.117415e+003,-2.656097e+000
3.118379e+003,-2.648324e+000
3.119344e+003,-2.432037e+000
3.120308e+003,-1.284265e+000
3.121272e+003,-3.926941e-001
3.122236e+003,6.348572e-002
3.123201e+003,-6.648651e-001
3.124165e+003,-2.756781e+000
3.125129e+003,-3.920685e+000
3.126093e+003,-3.310532e+000
3.127058e+003,-2.557919e+000
3.128022e+003,-2.378372e+000
3.128986e+003,-1.704379e+000
3.129950e+003,5.824585e-002
3.130915e+003,2.022369e-001
3.131879e+003,-1.086725e+000
3.132843e+003,-1.974524e+000
3.133807e+003,-2.494717e+000
3.134771e+003,-3.566974e+000
3.135736e+003,-4.504654e+000
3.136700e+003,-2.873971e+000
3.137664e+003,-4.128845e-001
3.138628e+003,-6.835541e-001
3.139593e+003,-2.395959e+000
3.140557e+003,-2.886163e+000
3.141521e+003,-2.492435e+000
3.142485e+003,-9.118805e-001
3.143449e+003,2.583069e-001
3.144414e+003,-4.695953e-001
3.145378e+003,-1.876419e+000
3.146342e+003,-3.759796e+000
3.147306e+003,-3.886615e+000
3.148271e+003,-1.368414e+000
3.149235e+003,-6.054382e-002
3.150199e+003,-2.208871e+000
3.151163e+003,-3.871069e+000
3.152128e+003,-2.704978e+000
3.153092e+003,-2.621481e+000
3.154056e+003,-4.001123e+000
3.155020e+003,-3.121658e+000
3.155985e+003,-5.852997e-001
3.156949e+003,-1.933716e-001
3.157913e+003,-1.713614e+000
3.158877e+003,-3.844434e+000
3.159842e+003,-5.660754e+000
3.160806e+003,-5.514795e+000
3.161770e+003,-4.080664e+000
3.162734e+003,-2.946750e+000
3.163698e+003,-2.191916e+000
3.164663e+003,-2.158563e+000
3.165627e+003,-2.454620e+000
3.166591e+003,-3.219571e+000
3.167555e+003,-3.167294e+000
3.168520e+003,-1.163779e+000
3.169484e+003,-2.177918e-001
3.170448e+003,-1.724777e+000
3.171412e+003,-2.532266e+000
3.172376e+003,-7.981384e-001
3.173341e+003,1.106454e+000
3.174305e+003,2.502454e+000
3.175269e+003,1.928772e+000
3.176233e+003,-1.142123e+000
3.177198e+003,-2.975852e+000
3.178162e+003,-3.437534e+000
3.179126e+003,-2.584958e+000
3.180090e+003,-1.255011e+000
3.181055e+003,-1.806519e+000
3.182019e+003,-3.482013e+000
3.182983e+003,-3.362851e+000
3.183947e+003,-2.182568e+000
3.184912e+003,-1.880460e+000
3.185876e+003,-1.867538e+000
3.186840e+003,-2.115479e-001
3.187804e+003,1.082648e+000
3.188769e+003,-6.565827e-001
3.189733e+003,-2.802670e+000
3.190697e+003,-4.251520e+000
3.191661e+003,-4.576520e+000
3.192625e+003,-3.601474e+000
3.193590e+003,-2.167374e+000
3.194554e+003,-7.658294e-001
3.195518e+003,-4.458710e-001
3.196482e+003,-2.328183e+000
3.197447e+003,-2.381531e+000
3.198411e+003,9.399720e-002
3.199375e+003,1.116266e+000
3.200339e+003,7.322845e-001
3.201303e+003,-3.196228e-001
3.202268e+003,-1.360721e+000
3.203232e+003,-1.016470e+000
3.204196e+003,9.123230e-002
3.205160e+003,3.800079e-001
3.206125e+003,2.594849e-001
3.207089e+003,5.408508e-001
3.208053e+003,9.352387e-001
3.209017e+003,8.617706e-001
3.209982e+003,7.428039e-001
3.210946e+003,1.159430e+000
3.211910e+003,1.275363e+000
3.212874e+003,7.771393e-001
3.213839e+003,8.096924e-002
3.214803e+003,-6.789948e-001
3.215767e+003,-1.894772e+000
3.216731e+003,-3.549689e+000
3.217696e+003,-3.941647e+000
3.218660e+003,-2.234314e+000
3.219624e+003,-1.474753e+000
3.220588e+003,-1.696548e+000
3.221552e+003,-8.606232e-001
3.222517e+003,4.270630e-001
3.223481e+003,6.458740e-002
3.224445e+003,-1.191440e+000
3.225409e+003,-2.170654e+000
3.226374e+003,-2.397595e+000
3.227338e+003,-1.414459e+000
3.228302e+003,-2.444702e-001
3.229266e+003,-1.652008e-001
3.230230e+003,-4.048432e-001
3.231195e+003,-2.802063e-001
3.232159e+003,1.705597e-001
3.233123e+003,1.422891e+000
3.234087e+003,1.693570e+000
3.235052e+003,7.042999e-001
3.236016e+003,-1.226196e-001
3.236980e+003,-4.547089e-001
3.237944e+003,-4.847382e-001
3.238909e+003,-3.585693e-001
3.239873e+003,-7.535187e-001
3.240837e+003,-1.556979e+000
3.241801e+003,-1.328467e+000
3.242766e+003,-4.212372e-001
3.243730e+003,-2.207489e-001
3.244694e+003,-4.627075e-001
3.245658e+003,-1.167276e+000
3.246623e+003,-1.598853e+000
3.247587e+003,-1.161111e+000
3.248551e+003,-2.319519e-001
3.249515e+003,9.788116e-001
3.250479e+003,1.653894e+000
3.251444e+003,1.109845e+000
3.252408e+003,3.414307e-001
3.253372e+003,-3.638092e-001
3.254336e+003,-7.142242e-001
3.255301e+003,-7.115906e-001
3.256265e+003,2.970764e-001
3.257229e+003,1.911322e+000
3.258193e+003,2.349082e+000
3.259157e+003,1.669260e+000
3.260122e+003,3.114441e-001
3.261086e+003,-8.343933e-001
3.262050e+003,-7.352295e-002
3.263014e+003,1.566232e+000
3.263979e+003,1.735391e+000
3.264943e+003,1.445309e+000
3.265907e+003,2.179523e+000
3.266871e+003,2.506723e+000
3.267836e+003,1.088135e+000
3.268800e+003,7.710236e-001
3.269764e+003,2.362293e+000
3.270728e+003,3.305566e+000
3.271693e+003,2.727429e+000
3.272657e+003,1.911963e+000
3.273621e+003,1.273090e+000
3.274585e+003,1.360037e+000
3.275550e+003,2.240723e+000
3.276514e+003,1.528635e+000
3.277478e+003,7.327576e-002
3.278442e+003,4.643799e-001
3.279406e+003,1.618191e+000
3.280371e+003,1.921481e+000
3.281335e+003,1.656729e+000
3.282299e+003,1.099921e+000
3.283263e+003,7.762329e-001
3.284228e+003,1.148895e+000
3.285192e+003,2.043140e+000
3.286156e+003,3.688248e+000
3.287120e+003,5.106153e+000
3.288084e+003,6.303061e+000
3.289049e+003,6.046042e+000
3.290013e+003,4.470263e+000
3.290977e+003,3.748346e+000
3.291941e+003,3.910977e+000
3.292906e+003,3.836234e+000
3.293870e+003,3.482053e+000
3.294834e+003,3.452789e+000
3.295798e+003,3.522281e+000
3.296763e+003,2.695499e+000
3.297727e+003,1.988983e+000
3.298691e+003,3.628473e+000
3.299655e+003,5.510882e+000
3.300620e+003,6.254309e+000
3.301584e+003,6.169955e+000
3.302548e+003,5.285138e+000
3.303512e+003,4.652930e+000
3.304477e+003,4.719095e+000
3.305441e+003,5.648727e+000
3.306405e+003,7.500427e+000
3.307369e+003,7.648242e+000
3.308333e+003,5.906125e+000
3.309298e+003,5.341483e+000
3.310262e+003,5.703278e+000
3.311226e+003,6.455750e+000
3.312190e+003,7.365692e+000
3.313155e+003,8.465174e+000
3.314119e+003,9.157071e+000
3.315083e+003,9.074234e+000
3.316047e+003,7.935483e+000
3.317011e+003,5.330573e+000
3.317976e+003,3.915219e+000
3.318940e+003,6.848966e+000
3.319904e+003,8.306043e+000
3.320868e+003,6.870514e+000
3.321833e+003,7.243390e+000
3.322797e+003,9.269552e+000
3.323761e+003,9.735126e+000
3.324725e+003,8.995382e+000
3.325690e+003,9.452021e+000
3.326654e+003,1.033921e+001
3.327618e+003,9.403982e+000
3.328582e+003,7.795572e+000
3.329547e+003,7.732559e+000
3.330511e+003,8.336947e+000
3.331475e+003,9.114163e+000
3.332439e+003,9.199328e+000
3.333404e+003,7.855127e+000
3.334368e+003,7.522385e+000
3.335332e+003,8.634915e+000
3.336296e+003,9.738538e+000
3.337260e+003,1.023649e+001
3.338225e+003,9.389612e+000
3.339189e+003,7.373413e+000
3.340153e+003,7.534698e+000
3.341117e+003,9.292575e+000
3.342082e+003,9.466321e+000
3.343046e+003,8.754974e+000
3.344010e+003,7.754352e+000
3.344974e+003,7.210147e+000
3.345938e+003,7.776629e+000
3.346903e+003,8.281809e+000
3.347867e+003,8.185617e+000
3.348831e+003,9.335950e+000
3.349795e+003,1.280827e+001
3.350760e+003,1.397313e+001
3.351724e+003,9.937497e+000
3.352688e+003,8.365463e+000
3.353652e+003,9.085284e+000
3.354617e+003,1.077006e+001
3.355581e+003,1.263850e+001
3.356545e+003,1.337017e+001
3.357509e+003,1.326710e+001
3.358474e+003,1.292245e+001
3.359438e+003,1.224206e+001
3.360402e+003,1.098757e+001
3.361366e+003,1.065954e+001
3.362331e+003,1.365432e+001
3.363295e+003,1.538779e+001
3.364259e+003,1.335500e+001
3.365223e+003,1.259207e+001
3.366188e+003,1.330321e+001
3.367152e+003,1.304252e+001
3.368116e+003,1.203413e+001
3.369080e+003,1.189446e+001
3.370044e+003,1.281354e+001
3.371009e+003,1.458761e+001
3.371973e+003,1.627190e+001
3.372937e+003,1.579934e+001
3.373901e+003,1.459235e+001
3.374865e+003,1.396003e+001
3.375830e+003,1.395282e+001
3.376794e+003,1.481395e+001
3.377758e+003,1.540112e+001
3.378722e+003,1.540982e+001
3.379687e+003,1.372803e+001
3.380651e+003,1.099642e+001
3.381615e+003,1.194768e+001
3.382579e+003,1.623368e+001
3.383544e+003,1.716688e+001
3.384508e+003,1.585985e+001
3.385472e+003,1.581989e+001
3.386436e+003,1.661193e+001
3.387401e+003,1.837890e+001
3.388365e+003,1.963578e+001
3.389329e+003,1.978420e+001
3.390293e+003,1.885932e+001
3.391258e+003,1.703686e+001
3.392222e+003,1.571445e+001
3.393186e+003,1.548453e+001
3.394150e+003,1.720403e+001
3.395115e+003,2.091295e+001
3.396079e+003,2.121845e+001
3.397043e+003,1.941199e+001
3.398007e+003,1.934198e+001
3.398971e+003,2.015252e+001
3.399936e+003,2.080756e+001
3.400900e+003,2.086228e+001
3.401864e+003,2.004998e+001
3.402828e+003,1.950995e+001
3.403792e+003,2.006458e+001
3.404757e+003,2.024904e+001
3.405721e+003,1.868935e+001
3.406685e+003,1.876886e+001
3.407649e+003,2.055202e+001
3.408614e+003,2.106434e+001
3.409578e+003,2.087583e+001
3.410542e+003,2.229068e+001
3.411506e+003,2.388116e+001
3.412471e+003,2.297089e+001
3.413435e+003,2.192462e+001
3.414399e+003,2.320315e+001
3.415363e+003,2.416440e+001
3.416328e+003,2.130563e+001
3.417292e+003,1.974851e+001
3.418256e+003,2.154883e+001
3.419220e+003,2.379072e+001
3.420185e+003,2.604994e+001
3.421149e+003,2.673291e+001
3.422113e+003,2.614081e+001
3.423077e+003,2.500721e+001
3.424042e+003,2.436407e+001
3.425006e+003,2.587330e+001
3.425970e+003,2.767847e+001
3.426934e+003,2.668113e+001
