7.140112e+001,2.016731e+002
7.236536e+001,1.921531e+002
7.332959e+001,1.935889e+002
7.429382e+001,2.032768e+002
7.525806e+001,2.231088e+002
7.622229e+001,2.327240e+002
7.718652e+001,2.174416e+002
7.815076e+001,1.632683e+002
7.911499e+001,1.278840e+002
8.007922e+001,1.080016e+002
8.104346e+001,1.018895e+002
8.200769e+001,1.091776e+002
8.297192e+001,1.374404e+002
8.393616e+001,1.702793e+002
8.490039e+001,2.154138e+002
8.586462e+001,2.616122e+002
8.682886e+001,2.902868e+002
8.779310e+001,2.622230e+002
8.875733e+001,2.157233e+002
8.972157e+001,1.698677e+002
9.068580e+001,1.323503e+002
9.165003e+001,1.037017e+002
9.261427e+001,9.299678e+001
9.357850e+001,9.438045e+001
9.454273e+001,9.822624e+001
9.550697e+001,9.807174e+001
9.647120e+001,9.290706e+001
9.743543e+001,8.780952e+001
9.839967e+001,8.186069e+001
9.936390e+001,7.607487e+001
1.003281e+002,7.172764e+001
1.012924e+002,6.971783e+001
1.022566e+002,6.807970e+001
1.032208e+002,6.593066e+001
1.041851e+002,6.406326e+001
1.051493e+002,6.422026e+001
1.061135e+002,7.399849e+001
1.070778e+002,8.174994e+001
1.080420e+002,8.083496e+001
1.090062e+002,6.998535e+001
1.099705e+002,5.388442e+001
1.109347e+002,4.125437e+001
1.118989e+002,3.242437e+001
1.128632e+002,3.215429e+001
1.138274e+002,4.414480e+001
1.147916e+002,7.131805e+001
1.157559e+002,8.412777e+001
1.167201e+002,7.895288e+001
1.176843e+002,6.688181e+001
1.186486e+002,6.136891e+001
1.196128e+002,6.795292e+001
1.205770e+002,7.449242e+001
1.215413e+002,8.420567e+001
1.225055e+002,9.340009e+001
1.234697e+002,9.452834e+001
1.244340e+002,7.086821e+001
1.253982e+002,4.673391e+001
1.263624e+002,2.637788e+001
1.273267e+002,1.272799e+001
1.282909e+002,8.359021e+000
1.292551e+002,3.181611e+001
1.302194e+002,6.315437e+001
1.311836e+002,8.385577e+001
1.321478e+002,8.231624e+001
1.331121e+002,5.856792e+001
1.340763e+002,4.037711e+001
1.350405e+002,2.602655e+001
1.360048e+002,1.829631e+001
1.369690e+002,2.169657e+001
1.379332e+002,4.993132e+001
1.388975e+002,6.631908e+001
1.398617e+002,6.663866e+001
1.408259e+002,5.694558e+001
1.417902e+002,4.674872e+001
1.427544e+002,3.835785e+001
1.437186e+002,3.166826e+001
1.446829e+002,2.684205e+001
1.456471e+002,2.368285e+001
1.466113e+002,2.163612e+001
1.475756e+002,1.797611e+001
1.485398e+002,1.639099e+001
1.495040e+002,2.233165e+001
1.504683e+002,3.687355e+001
1.514325e+002,5.654653e+001
1.523967e+002,5.984045e+001
1.533610e+002,5.063539e+001
1.543252e+002,3.935262e+001
1.552894e+002,3.346764e+001
1.562537e+002,3.543711e+001
1.572179e+002,3.546989e+001
1.581821e+002,3.063334e+001
1.591464e+002,2.604297e+001
1.601106e+002,2.794707e+001
1.610748e+002,4.538489e+001
1.620391e+002,5.562325e+001
1.630033e+002,4.955856e+001
1.639676e+002,3.441453e+001
1.649318e+002,2.167427e+001
1.658960e+002,2.559944e+001
1.668603e+002,3.244502e+001
1.678245e+002,3.153180e+001
1.687887e+002,2.337460e+001
1.697530e+002,1.368662e+001
1.707172e+002,2.104955e+001
1.716814e+002,3.861058e+001
1.726457e+002,4.944019e+001
1.736099e+002,4.677742e+001
1.745741e+002,2.998230e+001
1.755384e+002,1.800908e+001
1.765026e+002,9.794764e+000
1.774668e+002,5.309985e+000
1.784311e+002,6.046313e+000
1.793953e+002,1.476891e+001
1.803595e+002,2.041399e+001
1.813238e+002,2.063813e+001
1.822880e+002,1.831503e+001
1.832522e+002,1.554764e+001
1.842165e+002,1.360916e+001
1.851807e+002,1.140254e+001
1.861449e+002,7.478674e+000
1.871092e+002,2.866016e+000
1.880734e+002,-1.414539e+000
1.890376e+002,-4.352038e+000
1.900019e+002,-4.869019e+000
1.909661e+002,-3.032227e-001
1.919303e+002,9.334473e+000
1.928946e+002,2.131279e+001
1.938588e+002,2.634504e+001
1.948230e+002,1.955759e+001
1.957873e+002,1.661644e+001
1.967515e+002,2.194412e+001
1.977157e+002,3.528441e+001
1.986800e+002,4.573197e+001
1.996442e+002,4.921879e+001
2.006084e+002,5.234394e+001
2.015727e+002,5.889757e+001
2.025369e+002,6.987541e+001
2.035011e+002,7.638522e+001
2.044654e+002,6.945247e+001
2.054296e+002,5.803104e+001
2.063938e+002,4.637173e+001
2.073581e+002,3.737888e+001
2.083223e+002,3.116528e+001
2.092865e+002,2.587820e+001
2.102508e+002,2.220287e+001
2.112150e+002,2.335373e+001
2.121792e+002,3.288145e+001
2.131435e+002,5.401538e+001
2.141077e+002,6.514815e+001
2.150719e+002,6.228063e+001
2.160362e+002,5.320768e+001
2.170004e+002,4.958289e+001
2.179646e+002,5.731218e+001
2.189289e+002,6.268165e+001
2.198931e+002,6.201846e+001
2.208573e+002,5.830361e+001
2.218216e+002,5.738371e+001
2.227858e+002,6.524329e+001
2.237500e+002,7.498830e+001
2.247143e+002,8.788493e+001
2.256785e+002,1.011056e+002
2.266427e+002,1.091476e+002
2.276070e+002,9.691884e+001
2.285712e+002,7.420406e+001
2.295354e+002,5.245609e+001
2.304997e+002,3.519066e+001
2.314639e+002,2.226755e+001
2.324281e+002,1.401619e+001
2.333924e+002,1.034309e+001
2.343566e+002,9.397181e+000
2.353208e+002,1.191554e+001
2.362851e+002,1.895063e+001
2.372493e+002,2.226326e+001
2.382135e+002,1.940106e+001
2.391778e+002,1.547429e+001
2.401420e+002,1.308776e+001
2.411062e+002,1.338156e+001
2.420705e+002,1.297185e+001
2.430347e+002,8.818518e+000
2.439989e+002,3.743970e+000
2.449632e+002,-2.202026e-001
2.459274e+002,-1.521204e+000
2.468916e+002,-6.768677e-001
2.478559e+002,1.091785e+000
2.488201e+002,3.348242e+000
2.497843e+002,4.946692e+000
2.507486e+002,4.484582e+000
2.517128e+002,1.199634e+000
2.526770e+002,2.168042e+000
2.536413e+002,9.630542e+000
2.546055e+002,1.926487e+001
2.555697e+002,2.418149e+001
2.565340e+002,1.974440e+001
2.574982e+002,1.651631e+001
2.584625e+002,1.634523e+001
2.594267e+002,1.792748e+001
2.603909e+002,1.882113e+001
2.613552e+002,1.713909e+001
2.623194e+002,1.451520e+001
2.632836e+002,1.075593e+001
2.642479e+002,6.690613e+000
2.652121e+002,3.787598e+000
2.661763e+002,5.368164e+000
2.671406e+002,8.982214e+000
2.681048e+002,1.043899e+001
2.690690e+002,9.103674e+000
2.700333e+002,6.233948e+000
2.709975e+002,7.282227e+000
2.719617e+002,1.430775e+001
2.729260e+002,1.848742e+001
2.738902e+002,1.641080e+001
2.748544e+002,8.179126e+000
2.758187e+002,2.352283e+000
2.767829e+002,5.220703e-001
2.777471e+002,-3.698120e-001
2.787114e+002,-1.049353e+000
2.796756e+002,-1.608374e+000
2.806398e+002,-1.257019e+000
2.816041e+002,1.470471e+000
2.825683e+002,4.465674e+000
2.835325e+002,6.439441e+000
2.844968e+002,6.909338e+000
2.854610e+002,6.811572e+000
2.864252e+002,9.235400e+000
2.873895e+002,1.268643e+001
2.883537e+002,1.475981e+001
2.893179e+002,1.395776e+001
2.902822e+002,1.014058e+001
2.912464e+002,6.386304e+000
2.922106e+002,2.127246e+000
2.931749e+002,-1.494031e+000
2.941391e+002,-3.591077e+000
2.951033e+002,-3.666480e+000
2.960676e+002,-4.051233e+000
2.970318e+002,-6.371863e+000
2.979960e+002,-7.836047e+000
2.989603e+002,-6.055335e+000
2.999245e+002,6.315430e-001
3.008887e+002,7.728198e+000
3.018530e+002,1.286221e+001
3.028172e+002,1.631528e+001
3.037814e+002,1.795223e+001
3.047457e+002,1.760288e+001
3.057099e+002,1.598566e+001
3.066741e+002,1.584453e+001
3.076384e+002,1.671287e+001
3.086026e+002,1.696658e+001
3.095668e+002,1.473572e+001
3.105311e+002,8.908338e+000
3.114953e+002,4.833765e+000
3.124595e+002,2.810242e+000
3.134238e+002,1.926978e+000
3.143880e+002,1.047900e+000
3.153522e+002,-5.501587e-001
3.163165e+002,-8.163086e-001
3.172807e+002,1.301184e+000
3.182449e+002,4.617383e+000
3.192092e+002,7.871973e+000
3.201734e+002,1.034806e+001
3.211376e+002,1.201405e+001
3.221019e+002,1.236382e+001
3.230661e+002,1.224122e+001
3.240303e+002,1.312087e+001
3.249946e+002,1.707048e+001
3.259588e+002,2.302705e+001
3.269230e+002,2.505024e+001
3.278873e+002,2.302014e+001
3.288515e+002,1.867097e+001
3.298157e+002,1.501316e+001
3.307800e+002,1.198910e+001
3.317442e+002,1.054585e+001
3.327084e+002,1.045963e+001
3.336727e+002,1.172717e+001
3.346369e+002,1.475248e+001
3.356011e+002,2.290841e+001
3.365654e+002,2.806140e+001
3.375296e+002,2.687294e+001
3.384938e+002,2.193043e+001
3.394581e+002,1.722964e+001
3.404223e+002,1.606249e+001
3.413865e+002,1.665738e+001
3.423508e+002,1.743516e+001
3.433150e+002,1.832233e+001
3.442792e+002,1.935718e+001
3.452435e+002,2.050314e+001
3.462077e+002,2.193040e+001
3.471719e+002,2.432479e+001
3.481362e+002,2.726667e+001
3.491004e+002,3.174248e+001
3.500646e+002,3.992561e+001
3.510289e+002,5.034097e+001
3.519931e+002,6.859587e+001
3.529573e+002,9.622607e+001
3.539216e+002,1.312006e+002
3.548858e+002,1.723737e+002
3.558500e+002,2.379001e+002
3.568143e+002,2.816147e+002
3.577785e+002,2.831680e+002
3.587427e+002,2.532673e+002
3.597070e+002,2.101366e+002
3.606712e+002,1.666961e+002
3.616354e+002,1.269789e+002
3.625997e+002,9.431305e+001
3.635639e+002,6.900698e+001
3.645281e+002,5.090818e+001
3.654924e+002,3.966577e+001
3.664566e+002,3.747468e+001
3.674208e+002,3.454547e+001
3.683851e+002,3.056591e+001
3.693493e+002,2.585813e+001
3.703135e+002,2.107905e+001
3.712778e+002,1.511696e+001
3.722420e+002,1.126293e+001
3.732062e+002,1.000691e+001
3.741705e+002,1.080735e+001
3.751347e+002,1.308163e+001
3.760989e+002,1.785176e+001
3.770632e+002,2.209652e+001
3.780274e+002,2.415198e+001
3.789916e+002,2.447760e+001
3.799559e+002,2.399250e+001
3.809201e+002,2.376147e+001
3.818844e+002,2.336200e+001
3.828486e+002,2.145518e+001
3.838128e+002,1.822078e+001
3.847771e+002,1.496512e+001
3.857413e+002,1.365568e+001
3.867055e+002,1.542733e+001
3.876698e+002,1.650732e+001
3.886340e+002,1.480182e+001
3.895982e+002,1.318711e+001
3.905625e+002,1.643748e+001
3.915267e+002,3.047998e+001
3.924909e+002,3.916741e+001
3.934552e+002,3.813312e+001
3.944194e+002,3.192199e+001
3.953836e+002,2.475195e+001
3.963479e+002,1.803873e+001
3.973121e+002,1.404308e+001
3.982763e+002,1.516808e+001
3.992406e+002,1.923928e+001
4.002048e+002,2.330558e+001
4.011690e+002,2.451267e+001
4.021333e+002,2.326367e+001
4.030975e+002,2.390343e+001
4.040617e+002,2.647931e+001
4.050260e+002,2.923916e+001
4.059902e+002,3.035408e+001
4.069544e+002,2.909863e+001
4.079187e+002,2.790939e+001
4.088829e+002,2.652649e+001
4.098471e+002,2.529695e+001
4.108114e+002,2.414364e+001
4.117756e+002,2.263400e+001
4.127398e+002,2.325647e+001
4.137041e+002,2.887316e+001
4.146683e+002,3.520996e+001
4.156325e+002,3.932196e+001
4.165968e+002,3.963876e+001
4.175610e+002,3.737292e+001
4.185252e+002,3.313969e+001
4.194895e+002,2.851102e+001
4.204537e+002,2.565872e+001
4.214179e+002,2.594469e+001
4.223822e+002,2.923580e+001
4.233464e+002,3.341179e+001
4.243106e+002,3.926263e+001
4.252749e+002,4.311369e+001
4.262391e+002,4.145181e+001
4.272033e+002,3.337142e+001
4.281676e+002,3.126670e+001
4.291318e+002,4.014188e+001
4.300960e+002,5.021456e+001
4.310603e+002,5.730895e+001
4.320245e+002,6.121108e+001
4.329887e+002,6.692300e+001
4.339530e+002,7.710941e+001
4.349172e+002,9.216853e+001
4.358814e+002,1.157378e+002
4.368457e+002,1.466340e+002
4.378099e+002,1.799569e+002
4.387741e+002,2.089207e+002
4.397384e+002,2.313450e+002
4.407026e+002,2.393665e+002
4.416668e+002,2.304340e+002
4.426311e+002,2.079985e+002
4.435953e+002,1.833957e+002
4.445595e+002,1.517196e+002
4.455238e+002,1.244342e+002
4.464880e+002,1.017600e+002
4.474522e+002,8.373212e+001
4.484165e+002,7.106767e+001
4.493807e+002,6.764616e+001
4.503449e+002,6.570131e+001
4.513092e+002,6.353274e+001
4.522734e+002,6.089754e+001
4.532376e+002,5.799730e+001
4.542019e+002,5.529723e+001
4.551661e+002,5.168236e+001
4.561303e+002,4.486399e+001
4.570946e+002,3.626273e+001
4.580588e+002,2.895869e+001
4.590230e+002,2.636787e+001
4.599873e+002,2.899783e+001
4.609515e+002,3.003053e+001
4.619157e+002,2.894143e+001
4.628800e+002,2.746301e+001
4.638442e+002,2.703506e+001
4.648084e+002,2.775719e+001
4.657727e+002,2.946366e+001
4.667369e+002,3.317589e+001
4.677011e+002,3.686116e+001
4.686654e+002,3.947598e+001
4.696296e+002,4.070314e+001
4.705938e+002,4.039138e+001
4.715581e+002,3.751066e+001
4.725223e+002,3.380820e+001
4.734865e+002,3.025852e+001
4.744508e+002,2.734501e+001
4.754150e+002,2.491854e+001
4.763792e+002,2.217983e+001
4.773435e+002,1.953247e+001
4.783077e+002,1.900372e+001
4.792719e+002,2.169043e+001
4.802362e+002,2.661478e+001
4.812004e+002,2.806743e+001
4.821646e+002,2.182683e+001
4.831289e+002,1.703748e+001
4.840931e+002,1.465039e+001
4.850573e+002,1.421415e+001
4.860216e+002,1.472324e+001
4.869858e+002,1.796028e+001
4.879500e+002,1.974077e+001
4.889143e+002,1.780230e+001
4.898785e+002,1.369506e+001
4.908427e+002,9.706103e+000
4.918070e+002,7.413025e+000
4.927712e+002,6.999438e+000
4.937354e+002,8.819178e+000
4.946997e+002,1.208524e+001
4.956639e+002,1.483704e+001
4.966281e+002,1.505855e+001
4.975924e+002,1.244584e+001
4.985566e+002,1.079722e+001
4.995208e+002,9.583325e+000
5.004851e+002,9.635462e+000
5.014493e+002,1.237955e+001
5.024135e+002,1.894852e+001
5.033778e+002,2.266593e+001
5.043420e+002,2.077217e+001
5.053063e+002,1.852241e+001
5.062705e+002,1.892703e+001
5.072347e+002,2.222094e+001
5.081990e+002,2.455684e+001
5.091632e+002,1.969418e+001
5.101274e+002,1.387604e+001
5.110917e+002,1.112772e+001
5.120559e+002,1.205857e+001
5.130201e+002,1.477899e+001
5.139844e+002,1.578689e+001
5.149486e+002,1.498945e+001
5.159128e+002,1.308737e+001
5.168771e+002,9.700659e+000
5.178413e+002,6.009314e+000
5.188055e+002,4.726972e+000
5.197698e+002,8.732599e+000
5.207340e+002,1.075148e+001
5.216982e+002,9.619532e+000
5.226625e+002,7.060956e+000
5.236267e+002,4.861536e+000
5.245909e+002,3.476935e+000
5.255552e+002,2.671283e+000
5.265194e+002,2.533990e+000
5.274836e+002,2.623151e+000
5.284479e+002,2.501947e+000
5.294121e+002,1.960925e+000
5.303763e+002,1.381183e+000
5.313406e+002,1.297467e+000
5.323048e+002,1.678375e+000
5.332690e+002,3.150397e+000
5.342333e+002,6.151111e+000
5.351975e+002,1.022974e+001
5.361617e+002,1.158755e+001
5.371260e+002,7.956213e+000
5.380902e+002,5.230469e+000
5.390544e+002,4.861322e+000
5.400187e+002,6.126441e+000
5.409829e+002,6.795050e+000
5.419471e+002,5.788092e+000
5.429114e+002,5.046344e+000
5.438756e+002,5.387555e+000
5.448398e+002,6.215827e+000
5.458041e+002,6.608569e+000
5.467683e+002,5.867755e+000
5.477325e+002,4.546277e+000
5.486968e+002,3.430402e+000
5.496610e+002,2.469989e+000
5.506252e+002,1.571863e+000
5.515895e+002,6.583313e-001
5.525537e+002,-2.739136e-001
5.535179e+002,-9.875183e-001
5.544822e+002,-1.634405e+000
5.554464e+002,-1.756067e+000
5.564106e+002,-8.556885e-001
5.573749e+002,1.040771e+000
5.583391e+002,2.260529e+000
5.593033e+002,2.832300e+000
5.602676e+002,2.564960e+000
5.612318e+002,2.615479e-001
5.621960e+002,-3.131158e+000
5.631603e+002,-4.884772e+000
5.641245e+002,-1.511578e+000
5.650887e+002,2.534851e+000
5.660530e+002,3.287415e+000
5.670172e+002,1.544678e+000
5.679814e+002,-5.327393e-001
5.689457e+002,-6.231506e-001
5.699099e+002,1.161652e+000
5.708741e+002,2.480298e+000
5.718384e+002,3.541577e+000
5.728026e+002,3.795587e+000
5.737668e+002,2.293372e+000
5.747311e+002,-1.686597e+000
5.756953e+002,-3.843970e+000
5.766595e+002,-2.973651e+000
5.776238e+002,-1.822632e+000
5.785880e+002,-1.429999e+000
5.795522e+002,-1.819366e+000
5.805165e+002,-2.134662e+000
5.814807e+002,-1.242175e+000
5.824449e+002,-6.018616e-001
5.834092e+002,-1.618280e+000
5.843734e+002,-3.753607e+000
5.853376e+002,-5.502215e+000
5.863019e+002,-5.054797e+000
5.872661e+002,-2.578412e+000
5.882303e+002,8.821411e-002
5.891946e+002,3.003430e+000
5.901588e+002,5.245514e+000
5.911230e+002,5.675397e+000
5.920873e+002,3.589819e+000
5.930515e+002,2.328693e+000
5.940157e+002,2.361987e+000
5.949800e+002,2.498712e+000
5.959442e+002,1.960724e+000
5.969084e+002,7.375000e-001
5.978727e+002,-1.199341e-002
5.988369e+002,1.321710e+000
5.998011e+002,2.517963e+000
6.007654e+002,2.636322e+000
6.017296e+002,1.713452e+000
6.026938e+002,1.575256e-001
6.036581e+002,-1.926404e+000
6.046223e+002,-3.815967e+000
6.055865e+002,-3.333075e+000
6.065508e+002,-6.469910e-001
6.075150e+002,1.935193e+000
6.084792e+002,1.756262e+000
6.094435e+002,-2.149048e+000
6.104077e+002,-3.701422e+000
6.113719e+002,-1.222565e+000
6.123362e+002,1.000293e+000
6.133004e+002,2.229126e-001
6.142646e+002,-3.575226e+000
6.152289e+002,-6.269678e+000
6.161931e+002,-4.943384e+000
6.171573e+002,-3.268091e+000
6.181216e+002,-2.301135e+000
6.190858e+002,-2.049451e+000
6.200500e+002,-2.036200e+000
6.210143e+002,-1.930164e+000
6.219785e+002,-1.718878e+000
6.229427e+002,-1.378412e+000
6.239070e+002,-9.326599e-001
6.248712e+002,-4.122314e-001
6.258354e+002,1.838318e-001
6.267997e+002,9.301087e-001
6.277639e+002,1.817920e+000
6.287281e+002,3.101453e+000
6.296924e+002,4.003241e+000
6.306566e+002,3.805188e+000
6.316208e+002,2.659906e+000
6.325851e+002,2.294598e+000
6.335493e+002,4.347919e+000
6.345135e+002,6.336713e+000
6.354778e+002,7.860724e+000
6.364420e+002,8.692566e+000
6.374063e+002,8.550982e+000
6.383705e+002,6.965302e+000
6.393347e+002,4.821350e+000
6.402990e+002,3.641888e+000
6.412632e+002,3.215680e+000
6.422274e+002,3.001117e+000
6.431917e+002,2.571735e+000
6.441559e+002,1.929730e+000
6.451201e+002,1.779541e+000
6.460844e+002,2.196027e+000
6.470486e+002,2.799420e+000
6.480128e+002,3.970734e+000
6.489771e+002,5.385132e+000
6.499413e+002,5.534625e+000
6.509055e+002,2.805365e+000
6.518698e+002,4.258850e-001
6.528340e+002,-8.864990e-001
6.537982e+002,-1.297675e+000
6.547625e+002,-9.711975e-001
6.557267e+002,8.513794e-002
6.566909e+002,1.255676e+000
6.576552e+002,1.464636e+000
6.586194e+002,1.192084e+000
6.595836e+002,1.226495e+000
6.605479e+002,1.974182e+000
6.615121e+002,3.240668e+000
6.624763e+002,4.054657e+000
6.634406e+002,4.342780e+000
6.644048e+002,4.283008e+000
6.653690e+002,3.447162e+000
6.663333e+002,2.260339e+000
6.672975e+002,1.599268e+000
6.682617e+002,1.722260e+000
6.692260e+002,2.349042e+000
6.701902e+002,3.915454e+000
6.711544e+002,5.484302e+000
6.721187e+002,6.162854e+000
6.730829e+002,5.650647e+000
6.740471e+002,4.695923e+000
6.750114e+002,4.331458e+000
6.759756e+002,4.224200e+000
6.769398e+002,4.045270e+000
6.779041e+002,3.710712e+000
6.788683e+002,3.266949e+000
6.798325e+002,2.788464e+000
6.807968e+002,2.225147e+000
6.817610e+002,1.970294e+000
6.827252e+002,2.307404e+000
6.836895e+002,2.711426e+000
6.846537e+002,2.666370e+000
6.856179e+002,2.056061e+000
6.865822e+002,1.490839e+000
6.875464e+002,9.253479e-001
6.885106e+002,6.318359e-001
6.894749e+002,5.810364e-001
6.904391e+002,9.025329e-001
6.914034e+002,2.077008e+000
6.923676e+002,5.316968e+000
6.933318e+002,8.649463e+000
6.942961e+002,9.070740e+000
6.952603e+002,7.160303e+000
6.962245e+002,4.893396e+000
6.971888e+002,4.052515e+000
6.981530e+002,4.636029e+000
6.991172e+002,5.143311e+000
7.000815e+002,6.021014e+000
7.010457e+002,6.098590e+000
7.020099e+002,4.137769e+000
7.029742e+002,8.438721e-001
7.039384e+002,-4.944092e-001
7.049026e+002,2.538727e+000
7.058669e+002,5.199231e+000
7.068311e+002,5.956159e+000
7.077953e+002,5.684674e+000
7.087596e+002,5.741229e+000
7.097238e+002,6.927619e+000
7.106880e+002,7.943976e+000
7.116523e+002,5.514807e+000
7.126165e+002,1.709051e+000
7.135807e+002,-1.526611e-001
7.145450e+002,1.183795e+000
7.155092e+002,4.488739e+000
7.164734e+002,6.376062e+000
7.174377e+002,6.167609e+000
7.184019e+002,5.610663e+000
7.193661e+002,4.476739e+000
7.203304e+002,3.062341e+000
7.212946e+002,1.394110e+000
7.222589e+002,-8.216614e-001
7.232231e+002,-1.566937e+000
7.241873e+002,1.087122e+000
7.251516e+002,4.089953e+000
7.261158e+002,5.875922e+000
7.270800e+002,6.272326e+000
7.280443e+002,6.143243e+000
7.290085e+002,6.377081e+000
7.299727e+002,6.715240e+000
7.309370e+002,6.457196e+000
7.319012e+002,5.716467e+000
7.328654e+002,5.176471e+000
7.338297e+002,5.501984e+000
7.347939e+002,6.750977e+000
7.357581e+002,7.199481e+000
7.367224e+002,6.385913e+000
7.376866e+002,5.513562e+000
7.386508e+002,4.767016e+000
7.396151e+002,4.185712e+000
7.405793e+002,4.022949e+000
7.415435e+002,5.132477e+000
7.425078e+002,5.274549e+000
7.434720e+002,2.125696e+000
7.444362e+002,-1.699402e+000
7.454005e+002,-3.196582e+000
7.463647e+002,-1.095117e+000
7.473289e+002,2.706329e+000
7.482932e+002,5.289673e+000
7.492574e+002,6.716040e+000
7.502216e+002,6.275733e+000
7.511859e+002,3.579712e+000
7.521501e+002,1.547852e-002
7.531143e+002,-1.782758e+000
7.540786e+002,-6.897827e-001
7.550428e+002,-3.320190e-001
7.560070e+002,-1.578088e+000
7.569713e+002,-2.600519e+000
7.579355e+002,-1.935248e+000
7.588997e+002,3.260132e-001
7.598640e+002,1.997351e+000
7.608282e+002,8.927917e-001
7.617924e+002,-5.232544e-002
7.627567e+002,6.800415e-001
7.637209e+002,2.779108e+000
7.646851e+002,5.495965e+000
7.656494e+002,8.235931e+000
7.666136e+002,1.093663e+001
7.675778e+002,1.375538e+001
7.685421e+002,1.668373e+001
7.695063e+002,1.831506e+001
7.704705e+002,1.797606e+001
7.714348e+002,1.588173e+001
7.723990e+002,1.270745e+001
7.733632e+002,6.256366e+000
7.743275e+002,2.243091e+000
7.752917e+002,2.432404e+000
7.762559e+002,4.128870e+000
7.772202e+002,4.985913e+000
7.781844e+002,4.391150e+000
7.791486e+002,3.646759e+000
7.801129e+002,4.354944e+000
7.810771e+002,5.047259e+000
7.820413e+002,4.513684e+000
7.830056e+002,2.865906e+000
7.839698e+002,9.480530e-001
7.849340e+002,-3.358215e-001
7.858983e+002,-9.123657e-001
7.868625e+002,-2.122009e-001
7.878267e+002,2.096527e+000
7.887910e+002,4.167078e+000
7.897552e+002,4.806055e+000
7.907194e+002,4.236658e+000
7.916837e+002,4.161548e+000
7.926479e+002,5.223364e+000
7.936121e+002,6.071338e+000
7.945764e+002,6.438062e+000
7.955406e+002,6.441077e+000
7.965048e+002,6.101392e+000
7.974691e+002,5.468317e+000
7.984333e+002,5.113147e+000
7.993975e+002,6.196533e+000
8.003618e+002,7.714410e+000
8.013260e+002,8.637182e+000
8.022902e+002,8.767474e+000
8.032545e+002,8.450647e+000
8.042187e+002,8.190155e+000
8.051829e+002,7.965100e+000
8.061472e+002,8.241766e+000
8.071114e+002,8.932037e+000
8.080756e+002,1.000781e+001
8.090399e+002,1.181899e+001
8.100041e+002,1.421159e+001
8.109683e+002,1.597313e+001
8.119326e+002,1.626381e+001
8.128968e+002,1.642562e+001
8.138610e+002,1.685040e+001
8.148253e+002,1.747609e+001
8.157895e+002,1.805234e+001
8.167537e+002,1.849265e+001
8.177180e+002,1.925601e+001
8.186822e+002,2.197345e+001
8.196464e+002,2.562964e+001
8.206107e+002,2.756215e+001
8.215749e+002,2.702311e+001
8.225391e+002,2.558370e+001
8.235034e+002,2.588642e+001
8.244676e+002,2.892726e+001
8.254318e+002,3.047737e+001
8.263961e+002,3.018129e+001
8.273603e+002,2.947993e+001
8.283245e+002,2.920728e+001
8.292888e+002,2.908418e+001
8.302530e+002,2.785232e+001
8.312172e+002,2.419242e+001
8.321815e+002,2.049116e+001
8.331457e+002,1.828260e+001
8.341099e+002,1.715633e+001
8.350742e+002,1.652062e+001
8.360384e+002,1.606459e+001
8.370026e+002,1.594924e+001
8.379669e+002,1.679371e+001
8.389311e+002,1.861374e+001
8.398953e+002,1.917424e+001
8.408596e+002,1.810348e+001
8.418238e+002,1.591442e+001
8.427880e+002,1.271147e+001
8.437523e+002,7.944476e+000
8.447165e+002,5.136664e+000
8.456807e+002,6.031720e+000
8.466450e+002,7.436566e+000
8.476092e+002,8.902331e+000
8.485734e+002,9.898951e+000
8.495377e+002,9.572779e+000
8.505019e+002,7.190698e+000
8.514661e+002,4.288177e+000
8.524304e+002,2.544971e+000
8.533946e+002,1.797809e+000
8.543588e+002,2.234711e+000
8.553231e+002,3.859406e+000
8.562873e+002,6.005341e+000
8.572515e+002,7.192071e+000
8.582158e+002,6.961542e+000
8.591800e+002,7.072827e+000
8.601442e+002,8.157501e+000
8.611085e+002,8.863843e+000
8.620727e+002,8.041601e+000
8.630369e+002,5.851904e+000
8.640012e+002,4.077881e+000
8.649654e+002,3.101349e+000
8.659296e+002,2.961597e+000
8.668939e+002,4.410382e+000
8.678581e+002,6.385046e+000
8.688223e+002,7.416968e+000
8.697866e+002,6.790887e+000
8.707508e+002,5.355206e+000
8.717150e+002,4.828223e+000
8.726793e+002,5.012042e+000
8.736435e+002,5.093805e+000
8.746077e+002,4.981934e+000
8.755720e+002,4.681494e+000
8.765362e+002,4.250531e+000
8.775004e+002,3.790570e+000
8.784647e+002,2.740900e+000
8.794289e+002,-2.027283e-001
8.803931e+002,-2.254657e+000
8.813574e+002,-2.095306e+000
8.823216e+002,-4.809570e-001
8.832858e+002,1.155023e+000
8.842501e+002,2.335181e+000
8.852143e+002,2.935181e+000
8.861785e+002,2.604047e+000
8.871428e+002,1.702100e+000
8.881070e+002,4.129944e-001
8.890712e+002,-1.087024e+000
8.900355e+002,-2.404004e+000
8.909997e+002,-2.877466e+000
8.919639e+002,-2.346124e+000
8.929282e+002,-1.842358e+000
8.938924e+002,-1.411908e+000
8.948566e+002,-9.558960e-001
8.958209e+002,-1.637695e-001
8.967851e+002,7.633117e-001
8.977493e+002,8.558716e-001
8.987136e+002,-7.484619e-001
8.996778e+002,-2.210986e+000
9.006420e+002,-2.613501e+000
9.016063e+002,-2.674036e+000
9.025705e+002,-3.205151e+000
9.035347e+002,-4.321784e+000
9.044990e+002,-5.230017e+000
9.054632e+002,-4.758594e+000
9.064274e+002,-3.400733e+000
9.073917e+002,-3.240582e+000
9.083559e+002,-4.326154e+000
9.093201e+002,-5.256073e+000
9.102844e+002,-4.766217e+000
9.112486e+002,-2.980231e+000
9.122128e+002,-2.102679e+000
9.131771e+002,-3.060523e+000
9.141413e+002,-3.792261e+000
9.151055e+002,-3.894891e+000
9.160698e+002,-3.801215e+000
9.170340e+002,-4.054095e+000
9.179982e+002,-4.774829e+000
9.189625e+002,-5.402509e+000
9.199267e+002,-5.461053e+000
9.208909e+002,-5.133014e+000
9.218552e+002,-4.370325e+000
9.228194e+002,-3.353717e+000
9.237836e+002,-2.526398e+000
9.247479e+002,-2.244830e+000
9.257121e+002,-2.453748e+000
9.266763e+002,-2.854877e+000
9.276406e+002,-3.683893e+000
9.286048e+002,-4.197052e+000
9.295690e+002,-4.096118e+000
9.305333e+002,-3.784424e+000
9.314975e+002,-3.796027e+000
9.324617e+002,-4.231622e+000
9.334260e+002,-4.415155e+000
9.343902e+002,-3.961548e+000
9.353545e+002,-3.249524e+000
9.363187e+002,-2.329462e+000
9.372830e+002,-1.284546e+000
9.382472e+002,2.402954e-002
9.392114e+002,1.675885e+000
9.401757e+002,3.082129e+000
9.411399e+002,2.116956e+000
9.421041e+002,-8.054444e-001
9.430684e+002,-2.268311e+000
9.440326e+002,-1.282050e+000
9.449968e+002,4.410706e-001
9.459611e+002,6.900513e-001
9.469253e+002,-7.780640e-001
9.478895e+002,-1.642096e+000
9.488538e+002,-9.816955e-001
9.498180e+002,-6.467835e-001
9.507822e+002,-1.803064e+000
9.517465e+002,-3.398480e+000
9.527107e+002,-3.667529e+000
9.536749e+002,-1.850244e+000
9.546392e+002,4.531921e-001
9.556034e+002,1.218311e+000
9.565676e+002,1.192786e+000
9.575319e+002,1.351337e+000
9.584961e+002,1.818359e+000
9.594603e+002,2.111554e+000
9.604246e+002,1.614136e+000
9.613888e+002,2.847412e-001
9.623530e+002,8.369751e-002
9.633173e+002,2.039551e+000
9.642815e+002,3.660211e+000
9.652457e+002,3.902350e+000
9.662100e+002,4.177313e+000
9.671742e+002,6.063660e+000
9.681384e+002,9.833746e+000
9.691027e+002,1.482666e+001
9.700669e+002,1.837300e+001
9.710311e+002,2.523511e+001
9.719954e+002,4.239598e+001
9.729596e+002,6.554315e+001
9.739238e+002,8.588517e+001
9.748881e+002,9.726312e+001
9.758523e+002,9.951660e+001
9.768165e+002,9.048546e+001
9.777808e+002,6.733351e+001
9.787450e+002,4.791465e+001
9.797092e+002,3.394683e+001
9.806735e+002,2.431980e+001
9.816377e+002,1.874824e+001
9.826019e+002,1.732121e+001
9.835662e+002,1.700685e+001
9.845304e+002,1.826831e+001
9.854946e+002,1.924301e+001
9.864589e+002,1.925060e+001
9.874231e+002,1.866117e+001
9.883873e+002,1.765131e+001
9.893516e+002,1.639727e+001
9.903158e+002,1.554625e+001
9.912800e+002,1.623222e+001
9.922443e+002,1.829381e+001
9.932085e+002,1.981488e+001
9.941727e+002,2.059396e+001
9.951370e+002,2.275919e+001
9.961012e+002,2.744310e+001
9.970654e+002,3.454875e+001
9.980297e+002,4.372190e+001
9.989939e+002,4.660076e+001
9.999581e+002,6.774551e+001
1.000922e+003,1.135855e+002
1.001887e+003,1.734385e+002
1.002851e+003,2.586345e+002
1.003815e+003,3.556057e+002
1.004779e+003,4.132794e+002
1.005744e+003,3.880116e+002
1.006708e+003,3.168487e+002
1.007672e+003,2.505883e+002
1.008636e+003,1.906637e+002
1.009600e+003,1.433532e+002
1.010565e+003,1.115240e+002
1.011529e+003,9.082680e+001
1.012493e+003,7.339143e+001
1.013457e+003,5.971226e+001
1.014422e+003,4.904000e+001
1.015386e+003,4.161373e+001
1.016350e+003,3.605025e+001
1.017314e+003,3.235804e+001
1.018279e+003,2.989006e+001
1.019243e+003,2.766919e+001
1.020207e+003,2.544177e+001
1.021171e+003,2.331829e+001
1.022135e+003,2.143082e+001
1.023100e+003,1.971481e+001
1.024064e+003,1.792826e+001
1.025028e+003,1.614791e+001
1.025992e+003,1.490251e+001
1.026957e+003,1.470809e+001
1.027921e+003,1.537914e+001
1.028885e+003,1.536047e+001
1.029849e+003,1.410708e+001
1.030814e+003,1.343349e+001
1.031778e+003,1.378010e+001
1.032742e+003,1.438107e+001
1.033706e+003,1.475481e+001
1.034671e+003,1.490755e+001
1.035635e+003,1.445135e+001
1.036599e+003,1.248058e+001
1.037563e+003,1.083201e+001
1.038527e+003,1.062271e+001
1.039492e+003,1.119396e+001
1.040456e+003,1.162634e+001
1.041420e+003,1.162026e+001
1.042384e+003,1.173054e+001
1.043349e+003,1.284152e+001
1.044313e+003,1.490047e+001
1.045277e+003,1.607559e+001
1.046241e+003,1.633744e+001
1.047206e+003,1.598120e+001
1.048170e+003,1.449714e+001
1.049134e+003,1.261875e+001
1.050098e+003,1.233689e+001
1.051063e+003,1.442415e+001
1.052027e+003,1.633214e+001
1.052991e+003,1.688792e+001
1.053955e+003,1.718696e+001
1.054919e+003,1.796723e+001
1.055884e+003,1.898340e+001
1.056848e+003,1.955788e+001
1.057812e+003,1.932560e+001
1.058776e+003,1.869832e+001
1.059741e+003,1.835480e+001
1.060705e+003,1.819464e+001
1.061669e+003,1.793762e+001
1.062633e+003,1.746058e+001
1.063598e+003,1.699681e+001
1.064562e+003,1.688877e+001
1.065526e+003,1.716437e+001
1.066490e+003,1.730916e+001
1.067454e+003,1.722243e+001
1.068419e+003,1.704602e+001
1.069383e+003,1.612705e+001
1.070347e+003,1.551871e+001
1.071311e+003,1.662236e+001
1.072276e+003,1.911875e+001
1.073240e+003,2.102073e+001
1.074204e+003,2.065545e+001
1.075168e+003,1.920373e+001
1.076133e+003,1.971964e+001
1.077097e+003,2.157974e+001
1.078061e+003,2.244435e+001
1.079025e+003,2.145341e+001
1.079990e+003,1.964386e+001
1.080954e+003,1.825936e+001
1.081918e+003,1.721246e+001
1.082882e+003,1.728936e+001
1.083846e+003,1.956706e+001
1.084811e+003,2.175467e+001
1.085775e+003,2.388431e+001
1.086739e+003,2.541099e+001
1.087703e+003,2.569325e+001
1.088668e+003,2.474609e+001
1.089632e+003,2.337416e+001
1.090596e+003,2.192976e+001
1.091560e+003,2.075257e+001
1.092525e+003,2.033673e+001
1.093489e+003,2.062355e+001
1.094453e+003,2.177187e+001
1.095417e+003,2.407318e+001
1.096381e+003,2.662836e+001
1.097346e+003,2.751366e+001
1.098310e+003,2.624841e+001
1.099274e+003,2.497528e+001
1.100238e+003,2.342588e+001
1.101203e+003,2.229529e+001
1.102167e+003,2.150000e+001
1.103131e+003,2.132921e+001
1.104095e+003,2.255478e+001
1.105060e+003,2.524103e+001
1.106024e+003,2.755220e+001
1.106988e+003,2.763026e+001
1.107952e+003,2.675108e+001
1.108917e+003,2.695471e+001
1.109881e+003,2.800159e+001
1.110845e+003,2.881253e+001
1.111809e+003,2.876925e+001
1.112773e+003,2.821218e+001
1.113738e+003,2.802903e+001
1.114702e+003,2.851619e+001
1.115666e+003,2.881572e+001
1.116630e+003,2.903930e+001
1.117595e+003,2.883571e+001
1.118559e+003,2.727720e+001
1.119523e+003,2.556421e+001
1.120487e+003,2.587009e+001
1.121452e+003,2.876461e+001
1.122416e+003,3.156033e+001
1.123380e+003,3.145859e+001
1.124344e+003,3.015550e+001
1.125308e+003,3.010145e+001
1.126273e+003,3.116477e+001
1.127237e+003,3.245210e+001
1.128201e+003,3.350051e+001
1.129165e+003,3.426921e+001
1.130130e+003,3.461652e+001
1.131094e+003,3.430534e+001
1.132058e+003,3.403616e+001
1.133022e+003,3.385369e+001
1.133987e+003,3.371216e+001
1.134951e+003,3.380044e+001
1.135915e+003,3.392960e+001
1.136879e+003,3.372412e+001
1.137844e+003,3.309856e+001
1.138808e+003,3.249624e+001
1.139772e+003,3.209264e+001
1.140736e+003,3.192247e+001
1.141700e+003,3.203806e+001
1.142665e+003,3.254379e+001
1.143629e+003,3.385501e+001
1.144593e+003,3.627029e+001
1.145557e+003,3.885180e+001
1.146522e+003,3.952893e+001
1.147486e+003,3.745464e+001
1.148450e+003,3.634452e+001
1.149414e+003,3.710423e+001
1.150379e+003,3.781924e+001
1.151343e+003,3.820530e+001
1.152307e+003,3.821914e+001
1.153271e+003,3.749430e+001
1.154235e+003,3.603745e+001
1.155200e+003,3.488399e+001
1.156164e+003,3.479177e+001
1.157128e+003,3.571658e+001
1.158092e+003,3.796918e+001
1.159057e+003,4.086211e+001
1.160021e+003,4.253035e+001
1.160985e+003,4.222124e+001
1.161949e+003,4.101699e+001
1.162914e+003,4.057816e+001
1.163878e+003,4.106433e+001
1.164842e+003,4.126710e+001
1.165806e+003,4.035266e+001
1.166771e+003,4.012172e+001
1.167735e+003,4.130165e+001
1.168699e+003,4.289333e+001
1.169663e+003,4.403264e+001
1.170627e+003,4.464954e+001
1.171592e+003,4.517474e+001
1.172556e+003,4.588420e+001
1.173520e+003,4.665876e+001
1.174484e+003,4.740986e+001
1.175449e+003,4.801069e+001
1.176413e+003,4.795275e+001
1.177377e+003,4.710311e+001
1.178341e+003,4.661829e+001
1.179306e+003,4.794287e+001
1.180270e+003,5.089312e+001
1.181234e+003,5.268530e+001
1.182198e+003,5.238271e+001
1.183162e+003,5.237605e+001
1.184127e+003,5.339019e+001
1.185091e+003,5.422065e+001
1.186055e+003,5.401429e+001
1.187019e+003,5.314972e+001
1.187984e+003,5.253291e+001
1.188948e+003,5.253070e+001
1.189912e+003,5.269860e+001
1.190876e+003,5.241533e+001
1.191841e+003,5.200115e+001
1.192805e+003,5.242716e+001
1.193769e+003,5.374032e+001
1.194733e+003,5.453363e+001
1.195698e+003,5.351420e+001
1.196662e+003,5.167934e+001
1.197626e+003,5.194332e+001
1.198590e+003,5.515781e+001
1.199554e+003,5.726012e+001
1.200519e+003,5.693520e+001
1.201483e+003,5.658557e+001
1.202447e+003,5.762571e+001
1.203411e+003,5.871824e+001
1.204376e+003,5.730206e+001
1.205340e+003,5.327573e+001
1.206304e+003,5.019732e+001
1.207268e+003,5.173462e+001
1.208233e+003,5.618665e+001
1.209197e+003,5.791314e+001
1.210161e+003,5.720070e+001
1.211125e+003,5.641039e+001
1.212089e+003,5.600632e+001
1.213054e+003,5.576186e+001
1.214018e+003,5.542757e+001
1.214982e+003,5.518545e+001
1.215946e+003,5.586738e+001
1.216911e+003,5.796581e+001
1.217875e+003,6.001470e+001
1.218839e+003,6.198944e+001
1.219803e+003,6.326410e+001
1.220768e+003,6.316804e+001
1.221732e+003,6.218054e+001
1.222696e+003,6.115187e+001
1.223660e+003,6.057726e+001
1.224625e+003,6.070276e+001
1.225589e+003,6.210170e+001
1.226553e+003,6.474465e+001
1.227517e+003,6.693594e+001
1.228481e+003,6.887083e+001
1.229446e+003,7.013808e+001
1.230410e+003,7.060270e+001
1.231374e+003,7.020970e+001
1.232338e+003,6.832298e+001
1.233303e+003,6.479954e+001
1.234267e+003,6.305994e+001
1.235231e+003,6.582275e+001
1.236195e+003,6.858067e+001
1.237160e+003,6.839946e+001
1.238124e+003,6.690790e+001
1.239088e+003,6.641304e+001
1.240052e+003,6.722682e+001
1.241016e+003,6.762215e+001
1.241981e+003,6.587424e+001
1.242945e+003,6.275631e+001
1.243909e+003,6.195996e+001
1.244873e+003,6.524498e+001
1.245838e+003,6.673976e+001
1.246802e+003,6.446754e+001
1.247766e+003,6.249873e+001
1.248730e+003,6.315263e+001
1.249695e+003,6.576961e+001
1.250659e+003,6.928298e+001
1.251623e+003,7.364896e+001
1.252587e+003,7.659408e+001
1.253552e+003,7.537447e+001
1.254516e+003,7.308400e+001
1.255480e+003,7.298869e+001
1.256444e+003,7.431807e+001
1.257408e+003,7.499127e+001
1.258373e+003,7.422925e+001
1.259337e+003,7.314695e+001
1.260301e+003,7.332320e+001
1.261265e+003,7.481944e+001
1.262230e+003,7.621645e+001
1.263194e+003,7.709734e+001
1.264158e+003,7.806907e+001
1.265122e+003,8.037202e+001
1.266087e+003,8.169933e+001
1.267051e+003,7.957350e+001
1.268015e+003,7.541187e+001
1.268979e+003,7.274430e+001
1.269943e+003,7.299060e+001
1.270908e+003,7.437968e+001
1.271872e+003,7.519827e+001
1.272836e+003,7.575035e+001
1.273800e+003,7.681583e+001
1.274765e+003,7.836823e+001
1.275729e+003,7.991399e+001
1.276693e+003,8.146960e+001
1.277657e+003,8.242954e+001
1.278622e+003,8.140804e+001
1.279586e+003,7.819092e+001
1.280550e+003,7.605477e+001
1.281514e+003,7.592519e+001
1.282479e+003,7.632552e+001
1.283443e+003,7.674526e+001
1.284407e+003,7.746354e+001
1.285371e+003,7.879347e+001
1.286335e+003,8.050377e+001
1.287300e+003,8.222853e+001
1.288264e+003,8.382726e+001
1.289228e+003,8.519737e+001
1.290192e+003,8.609926e+001
1.291157e+003,8.649345e+001
1.292121e+003,8.630264e+001
1.293085e+003,8.510832e+001
1.294049e+003,8.413329e+001
1.295014e+003,8.384591e+001
1.295978e+003,8.418911e+001
1.296942e+003,8.525419e+001
1.297906e+003,8.697634e+001
1.298870e+003,8.872595e+001
1.299835e+003,9.053288e+001
1.300799e+003,9.140751e+001
1.301763e+003,8.982156e+001
1.302727e+003,8.771100e+001
1.303692e+003,8.711736e+001
1.304656e+003,8.792409e+001
1.305620e+003,8.856612e+001
1.306584e+003,8.809532e+001
1.307549e+003,8.742455e+001
1.308513e+003,8.848811e+001
1.309477e+003,9.163255e+001
1.310441e+003,9.330149e+001
1.311406e+003,9.209785e+001
1.312370e+003,9.164558e+001
1.313334e+003,9.354690e+001
1.314298e+003,9.548185e+001
1.315263e+003,9.504128e+001
1.316227e+003,9.283679e+001
1.317191e+003,9.138647e+001
1.318155e+003,9.175460e+001
1.319120e+003,9.282552e+001
1.320084e+003,9.363837e+001
1.321048e+003,9.411781e+001
1.322012e+003,9.396024e+001
1.322976e+003,9.325474e+001
1.323941e+003,9.321825e+001
1.324905e+003,9.467491e+001
1.325869e+003,9.675630e+001
1.326833e+003,9.802792e+001
1.327798e+003,9.845720e+001
1.328762e+003,9.947917e+001
1.329726e+003,1.024041e+002
1.330690e+003,1.034308e+002
1.331655e+003,9.950342e+001
1.332619e+003,9.561623e+001
1.333583e+003,9.551412e+001
1.334547e+003,9.803767e+001
1.335511e+003,1.005473e+002
1.336476e+003,1.017767e+002
1.337440e+003,1.019489e+002
1.338404e+003,1.012565e+002
1.339368e+003,9.995953e+001
1.340333e+003,9.988169e+001
1.341297e+003,1.011272e+002
1.342261e+003,1.028620e+002
1.343225e+003,1.062942e+002
1.344190e+003,1.089171e+002
1.345154e+003,1.081583e+002
1.346118e+003,1.054581e+002
1.347082e+003,1.046908e+002
1.348047e+003,1.068141e+002
1.349011e+003,1.078077e+002
1.349975e+003,1.038587e+002
1.350939e+003,9.946350e+001
1.351903e+003,9.968066e+001
1.352868e+003,1.029153e+002
1.353832e+003,1.062724e+002
1.354796e+003,1.088807e+002
1.355760e+003,1.103072e+002
1.356725e+003,1.098712e+002
1.357689e+003,1.081140e+002
1.358653e+003,1.074655e+002
1.359617e+003,1.082317e+002
1.360582e+003,1.092432e+002
1.361546e+003,1.110355e+002
1.362510e+003,1.121927e+002
1.363474e+003,1.120644e+002
1.364438e+003,1.114396e+002
1.365403e+003,1.106547e+002
1.366367e+003,1.099940e+002
1.367331e+003,1.101950e+002
1.368295e+003,1.117818e+002
1.369260e+003,1.139662e+002
1.370224e+003,1.155941e+002
1.371188e+003,1.167600e+002
1.372152e+003,1.164812e+002
1.373117e+003,1.135631e+002
1.374081e+003,1.117863e+002
1.375045e+003,1.133477e+002
1.376009e+003,1.160529e+002
1.376974e+003,1.176664e+002
1.377938e+003,1.182658e+002
1.378902e+003,1.184903e+002
1.379866e+003,1.182899e+002
1.380830e+003,1.181035e+002
1.381795e+003,1.183423e+002
1.382759e+003,1.186898e+002
1.383723e+003,1.190181e+002
1.384687e+003,1.193192e+002
1.385652e+003,1.193168e+002
1.386616e+003,1.189167e+002
1.387580e+003,1.188796e+002
1.388544e+003,1.202711e+002
1.389509e+003,1.228017e+002
1.390473e+003,1.242972e+002
1.391437e+003,1.244640e+002
1.392401e+003,1.246397e+002
1.393365e+003,1.246230e+002
1.394330e+003,1.247913e+002
1.395294e+003,1.254002e+002
1.396258e+003,1.260731e+002
1.397222e+003,1.263797e+002
1.398187e+003,1.265242e+002
1.399151e+003,1.274169e+002
1.400115e+003,1.295954e+002
1.401079e+003,1.316528e+002
1.402044e+003,1.308902e+002
1.403008e+003,1.272738e+002
1.403972e+003,1.249195e+002
1.404936e+003,1.240208e+002
1.405901e+003,1.240813e+002
1.406865e+003,1.251699e+002
1.407829e+003,1.268447e+002
1.408793e+003,1.289602e+002
1.409757e+003,1.313870e+002
1.410722e+003,1.334656e+002
1.411686e+003,1.349189e+002
1.412650e+003,1.357422e+002
1.413614e+003,1.360331e+002
1.414579e+003,1.358589e+002
1.415543e+003,1.350683e+002
1.416507e+003,1.339592e+002
1.417471e+003,1.329830e+002
1.418436e+003,1.322090e+002
1.419400e+003,1.321088e+002
1.420364e+003,1.335405e+002
1.421328e+003,1.361318e+002
1.422292e+003,1.377195e+002
1.423257e+003,1.377616e+002
1.424221e+003,1.382537e+002
1.425185e+003,1.394483e+002
1.426149e+003,1.409821e+002
1.427114e+003,1.441472e+002
1.428078e+003,1.470519e+002
1.429042e+003,1.472462e+002
1.430006e+003,1.452032e+002
1.430971e+003,1.430177e+002
1.431935e+003,1.418986e+002
1.432899e+003,1.418106e+002
1.433863e+003,1.427997e+002
1.434828e+003,1.448625e+002
1.435792e+003,1.466697e+002
1.436756e+003,1.477627e+002
1.437720e+003,1.487524e+002
1.438684e+003,1.503951e+002
1.439649e+003,1.515615e+002
1.440613e+003,1.511222e+002
1.441577e+003,1.500103e+002
1.442541e+003,1.495625e+002
1.443506e+003,1.499287e+002
1.444470e+003,1.510462e+002
1.445434e+003,1.533492e+002
1.446398e+003,1.554491e+002
1.447363e+003,1.546183e+002
1.448327e+003,1.520269e+002
1.449291e+003,1.508815e+002
1.450255e+003,1.514745e+002
1.451219e+003,1.527922e+002
1.452184e+003,1.551145e+002
1.453148e+003,1.568981e+002
1.454112e+003,1.553067e+002
1.455076e+003,1.510991e+002
1.456041e+003,1.494723e+002
1.457005e+003,1.519370e+002
1.457969e+003,1.540774e+002
1.458933e+003,1.525241e+002
1.459898e+003,1.516626e+002
1.460862e+003,1.556178e+002
1.461826e+003,1.612931e+002
1.462790e+003,1.637395e+002
1.463755e+003,1.623694e+002
1.464719e+003,1.604434e+002
1.465683e+003,1.603411e+002
1.466647e+003,1.614885e+002
1.467611e+003,1.625097e+002
1.468576e+003,1.632637e+002
1.469540e+003,1.643978e+002
1.470504e+003,1.665506e+002
1.471468e+003,1.683387e+002
1.472433e+003,1.695838e+002
1.473397e+003,1.703440e+002
1.474361e+003,1.704027e+002
1.475325e+003,1.701713e+002
1.476290e+003,1.704909e+002
1.477254e+003,1.712579e+002
1.478218e+003,1.708017e+002
1.479182e+003,1.677659e+002
1.480146e+003,1.642376e+002
1.481111e+003,1.651815e+002
1.482075e+003,1.712467e+002
1.483039e+003,1.737935e+002
1.484003e+003,1.701744e+002
1.484968e+003,1.677738e+002
1.485932e+003,1.689723e+002
1.486896e+003,1.715576e+002
1.487860e+003,1.743246e+002
1.488825e+003,1.765914e+002
1.489789e+003,1.772400e+002
1.490753e+003,1.761090e+002
1.491717e+003,1.743914e+002
1.492682e+003,1.725505e+002
1.493646e+003,1.710902e+002
1.494610e+003,1.714608e+002
1.495574e+003,1.728799e+002
1.496538e+003,1.726702e+002
1.497503e+003,1.703615e+002
1.498467e+003,1.683875e+002
1.499431e+003,1.676452e+002
1.500395e+003,1.679771e+002
1.501360e+003,1.700455e+002
1.502324e+003,1.733871e+002
1.503288e+003,1.749066e+002
1.504252e+003,1.735930e+002
1.505217e+003,1.724418e+002
1.506181e+003,1.736021e+002
1.507145e+003,1.746363e+002
1.508109e+003,1.732823e+002
1.509073e+003,1.707014e+002
1.510038e+003,1.684345e+002
1.511002e+003,1.668579e+002
1.511966e+003,1.662650e+002
1.512930e+003,1.669832e+002
1.513895e+003,1.684405e+002
1.514859e+003,1.696984e+002
1.515823e+003,1.706049e+002
1.516787e+003,1.706338e+002
1.517752e+003,1.698107e+002
1.518716e+003,1.686057e+002
1.519680e+003,1.658388e+002
1.520644e+003,1.637980e+002
1.521609e+003,1.638000e+002
1.522573e+003,1.649387e+002
1.523537e+003,1.666290e+002
1.524501e+003,1.685169e+002
1.525465e+003,1.699947e+002
1.526430e+003,1.705928e+002
1.527394e+003,1.703856e+002
1.528358e+003,1.695241e+002
1.529322e+003,1.681223e+002
1.530287e+003,1.678859e+002
1.531251e+003,1.704746e+002
1.532215e+003,1.711969e+002
1.533179e+003,1.684796e+002
1.534144e+003,1.657418e+002
1.535108e+003,1.645521e+002
1.536072e+003,1.637290e+002
1.537036e+003,1.613656e+002
1.538000e+003,1.582101e+002
1.538965e+003,1.569443e+002
1.539929e+003,1.586244e+002
1.540893e+003,1.615473e+002
1.541857e+003,1.640935e+002
1.542822e+003,1.659319e+002
1.543786e+003,1.648061e+002
1.544750e+003,1.587450e+002
1.545714e+003,1.560697e+002
1.546679e+003,1.601973e+002
1.547643e+003,1.627744e+002
1.548607e+003,1.596609e+002
1.549571e+003,1.553137e+002
1.550536e+003,1.541067e+002
1.551500e+003,1.551559e+002
1.552464e+003,1.553009e+002
1.553428e+003,1.537708e+002
1.554392e+003,1.524164e+002
1.555357e+003,1.526773e+002
1.556321e+003,1.534794e+002
1.557285e+003,1.528575e+002
1.558249e+003,1.509483e+002
1.559214e+003,1.490308e+002
1.560178e+003,1.466628e+002
1.561142e+003,1.457179e+002
1.562106e+003,1.480848e+002
1.563071e+003,1.505553e+002
1.564035e+003,1.501576e+002
1.564999e+003,1.480471e+002
1.565963e+003,1.470905e+002
1.566927e+003,1.475856e+002
1.567892e+003,1.468148e+002
1.568856e+003,1.429703e+002
1.569820e+003,1.388957e+002
1.570784e+003,1.385125e+002
1.571749e+003,1.400276e+002
1.572713e+003,1.387002e+002
1.573677e+003,1.346677e+002
1.574641e+003,1.320413e+002
1.575606e+003,1.324535e+002
1.576570e+003,1.335602e+002
1.577534e+003,1.341536e+002
1.578498e+003,1.340558e+002
1.579463e+003,1.323765e+002
1.580427e+003,1.292280e+002
1.581391e+003,1.269997e+002
1.582355e+003,1.266306e+002
1.583319e+003,1.262149e+002
1.584284e+003,1.239333e+002
1.585248e+003,1.217425e+002
1.586212e+003,1.226658e+002
1.587176e+003,1.250953e+002
1.588141e+003,1.247863e+002
1.589105e+003,1.210260e+002
1.590069e+003,1.175908e+002
1.591033e+003,1.169788e+002
1.591998e+003,1.175964e+002
1.592962e+003,1.175015e+002
1.593926e+003,1.166383e+002
1.594890e+003,1.145125e+002
1.595854e+003,1.108392e+002
1.596819e+003,1.080414e+002
1.597783e+003,1.073231e+002
1.598747e+003,1.069769e+002
1.599711e+003,1.058038e+002
1.600676e+003,1.041997e+002
1.601640e+003,1.023409e+002
1.602604e+003,1.006062e+002
1.603568e+003,1.003176e+002
1.604533e+003,1.020620e+002
1.605497e+003,1.034323e+002
1.606461e+003,1.015662e+002
1.607425e+003,9.781471e+001
1.608390e+003,9.606004e+001
1.609354e+003,9.645689e+001
1.610318e+003,9.657792e+001
1.611282e+003,9.588838e+001
1.612246e+003,9.478529e+001
1.613211e+003,9.339009e+001
1.614175e+003,9.169440e+001
1.615139e+003,8.959652e+001
1.616103e+003,8.740668e+001
1.617068e+003,8.528439e+001
1.618032e+003,8.341689e+001
1.618996e+003,8.269627e+001
1.619960e+003,8.374385e+001
1.620925e+003,8.503418e+001
1.621889e+003,8.454702e+001
1.622853e+003,8.252438e+001
1.623817e+003,7.984691e+001
1.624781e+003,7.620677e+001
1.625746e+003,7.452870e+001
1.626710e+003,7.691189e+001
1.627674e+003,7.856372e+001
1.628638e+003,7.589443e+001
1.629603e+003,7.254778e+001
1.630567e+003,7.201780e+001
1.631531e+003,7.319850e+001
1.632495e+003,7.350879e+001
1.633460e+003,7.227583e+001
1.634424e+003,6.972234e+001
1.635388e+003,6.558760e+001
1.636352e+003,6.138590e+001
1.637317e+003,6.039978e+001
1.638281e+003,6.233620e+001
1.639245e+003,6.258519e+001
1.640209e+003,6.037965e+001
1.641173e+003,5.903886e+001
1.642138e+003,6.052821e+001
1.643102e+003,6.152809e+001
1.644066e+003,5.970573e+001
1.645030e+003,5.716866e+001
1.645995e+003,5.614278e+001
1.646959e+003,5.615778e+001
1.647923e+003,5.527445e+001
1.648887e+003,5.300871e+001
1.649852e+003,5.133150e+001
1.650816e+003,5.212447e+001
1.651780e+003,5.393380e+001
1.652744e+003,5.352455e+001
1.653708e+003,5.098507e+001
1.654673e+003,4.920367e+001
1.655637e+003,4.860610e+001
1.656601e+003,4.771279e+001
1.657565e+003,4.585464e+001
1.658530e+003,4.399535e+001
1.659494e+003,4.237385e+001
1.660458e+003,4.118299e+001
1.661422e+003,4.063735e+001
1.662387e+003,4.071968e+001
1.663351e+003,4.168841e+001
1.664315e+003,4.354956e+001
1.665279e+003,4.447114e+001
1.666244e+003,4.248330e+001
1.667208e+003,3.922306e+001
1.668172e+003,3.835395e+001
1.669136e+003,3.960859e+001
1.670100e+003,3.911734e+001
1.671065e+003,3.603175e+001
1.672029e+003,3.353567e+001
1.672993e+003,3.280090e+001
1.673957e+003,3.288190e+001
1.674922e+003,3.350483e+001
1.675886e+003,3.420510e+001
1.676850e+003,3.481472e+001
1.677814e+003,3.504173e+001
1.678779e+003,3.384016e+001
1.679743e+003,3.087457e+001
1.680707e+003,2.814113e+001
1.681671e+003,2.727174e+001
1.682635e+003,2.745109e+001
1.683600e+003,2.755290e+001
1.684564e+003,2.752508e+001
1.685528e+003,2.659823e+001
1.686492e+003,2.445526e+001
1.687457e+003,2.279797e+001
1.688421e+003,2.234990e+001
1.689385e+003,2.241912e+001
1.690349e+003,2.305808e+001
1.691314e+003,2.362678e+001
1.692278e+003,2.310544e+001
1.693242e+003,2.170667e+001
1.694206e+003,2.046059e+001
1.695171e+003,1.961660e+001
1.696135e+003,1.892549e+001
1.697099e+003,1.818624e+001
1.698063e+003,1.755170e+001
1.699027e+003,1.729663e+001
1.699992e+003,1.733491e+001
1.700956e+003,1.735731e+001
1.701920e+003,1.730542e+001
1.702884e+003,1.713643e+001
1.703849e+003,1.686661e+001
1.704813e+003,1.627249e+001
1.705777e+003,1.482422e+001
1.706741e+003,1.333785e+001
1.707706e+003,1.371998e+001
1.708670e+003,1.530097e+001
1.709634e+003,1.511006e+001
1.710598e+003,1.244252e+001
1.711563e+003,1.006448e+001
1.712527e+003,9.336041e+000
1.713491e+003,9.103033e+000
1.714455e+003,8.151538e+000
1.715419e+003,7.245947e+000
1.716384e+003,8.262073e+000
1.717348e+003,1.073458e+001
1.718312e+003,1.144883e+001
1.719276e+003,9.389404e+000
1.720241e+003,7.596112e+000
1.721205e+003,8.373670e+000
1.722169e+003,1.022543e+001
1.723133e+003,1.097471e+001
1.724098e+003,1.067125e+001
1.725062e+003,9.239423e+000
1.726026e+003,6.064520e+000
1.726990e+003,4.140973e+000
1.727954e+003,4.827698e+000
1.728919e+003,5.702924e+000
1.729883e+003,5.505853e+000
1.730847e+003,5.158356e+000
1.731811e+003,5.889825e+000
1.732776e+003,7.152795e+000
1.733740e+003,7.541382e+000
1.734704e+003,6.851874e+000
1.735668e+003,5.897260e+000
1.736633e+003,5.145715e+000
1.737597e+003,4.771338e+000
1.738561e+003,5.106122e+000
1.739525e+003,5.936127e+000
1.740490e+003,6.065515e+000
1.741454e+003,5.142560e+000
1.742418e+003,4.692139e+000
1.743382e+003,4.691937e+000
1.744346e+003,5.141754e+000
1.745311e+003,6.965997e+000
1.746275e+003,8.200183e+000
1.747239e+003,7.198761e+000
1.748203e+003,5.337744e+000
1.749168e+003,4.156421e+000
1.750132e+003,3.848706e+000
1.751096e+003,4.318835e+000
1.752060e+003,5.292572e+000
1.753025e+003,5.498199e+000
1.753989e+003,3.694257e+000
1.754953e+003,1.135522e+000
1.755917e+003,8.949463e-001
1.756881e+003,3.027698e+000
1.757846e+003,3.589148e+000
1.758810e+003,1.697913e+000
1.759774e+003,9.219910e-001
1.760738e+003,3.062390e+000
1.761703e+003,4.435004e+000
1.762667e+003,2.808343e+000
1.763631e+003,8.216797e-001
1.764595e+003,1.015845e+000
1.765560e+003,2.270850e+000
1.766524e+003,2.062451e+000
1.767488e+003,2.208343e-001
1.768452e+003,-1.118561e+000
1.769417e+003,-7.738068e-001
1.770381e+003,1.505493e-001
1.771345e+003,3.993408e-001
1.772309e+003,2.649994e-001
1.773273e+003,5.476044e-001
1.774238e+003,1.179077e+000
1.775202e+003,1.615540e+000
1.776166e+003,1.782611e+000
1.777130e+003,1.959369e+000
1.778095e+003,2.243134e+000
1.779059e+003,2.675415e+000
1.780023e+003,3.564172e+000
1.780987e+003,4.391833e+000
1.781952e+003,4.325183e+000
1.782916e+003,3.392663e+000
1.783880e+003,1.794891e+000
1.784844e+003,-7.040192e-001
1.785808e+003,-2.293048e+000
1.786773e+003,-1.715936e+000
1.787737e+003,-5.575836e-001
1.788701e+003,2.337158e-001
1.789665e+003,6.328095e-001
1.790630e+003,2.726227e-001
1.791594e+003,-4.514130e-001
1.792558e+003,2.222290e-002
1.793522e+003,1.893127e+000
1.794487e+003,2.848407e+000
1.795451e+003,1.419632e+000
1.796415e+003,-6.940918e-001
1.797379e+003,-1.256567e+000
1.798344e+003,-5.991638e-001
1.799308e+003,-1.953278e-001
1.800272e+003,-1.176117e-001
1.801236e+003,-1.671783e-001
1.802201e+003,-4.164124e-002
1.803165e+003,-3.439545e-001
1.804129e+003,-1.684924e+000
1.805093e+003,-2.853287e+000
1.806057e+003,-3.398666e+000
1.807022e+003,-3.311386e+000
1.807986e+003,-2.223569e+000
1.808950e+003,-6.254547e-001
1.809914e+003,5.194672e-001
1.810879e+003,8.694336e-001
1.811843e+003,5.047913e-001
1.812807e+003,-5.533234e-001
1.813771e+003,-1.769418e+000
1.814736e+003,-2.224237e+000
1.815700e+003,-2.042566e+000
1.816664e+003,-2.125800e+000
1.817628e+003,-2.568091e+000
1.818593e+003,-2.379828e+000
1.819557e+003,-1.018436e+000
1.820521e+003,-1.809662e-001
1.821485e+003,-8.309967e-001
1.822449e+003,-1.759903e+000
1.823414e+003,-2.261829e+000
1.824378e+003,-2.491299e+000
1.825342e+003,-2.574322e+000
1.826306e+003,-2.479004e+000
1.827271e+003,-2.077435e+000
1.828235e+003,-1.316116e+000
1.829199e+003,-5.935211e-001
1.830163e+003,8.499146e-002
1.831128e+003,4.427765e-001
1.832092e+003,-2.682800e-002
1.833056e+003,-8.265015e-001
1.834020e+003,-1.381906e+000
1.834984e+003,-1.548776e+000
1.835949e+003,-6.511383e-001
1.836913e+003,1.271283e+000
1.837877e+003,2.301837e+000
1.838841e+003,1.335382e+000
1.839806e+003,-1.130249e-001
1.840770e+003,-3.573364e-001
1.841734e+003,2.171600e-001
1.842698e+003,5.020996e-001
1.843663e+003,4.866882e-001
1.844627e+003,7.433929e-001
1.845591e+003,1.943591e+000
1.846555e+003,2.278494e+000
1.847520e+003,6.682739e-001
1.848484e+003,-5.713562e-001
1.849448e+003,-1.323608e-001
1.850412e+003,7.098755e-001
1.851376e+003,1.020117e+000
1.852341e+003,8.286926e-001
1.853305e+003,7.418518e-002
1.854269e+003,-9.600830e-001
1.855233e+003,-1.232495e+000
1.856198e+003,-2.719330e-001
1.857162e+003,7.964386e-001
1.858126e+003,7.964630e-001
1.859090e+003,2.776031e-001
1.860055e+003,2.367126e-001
1.861019e+003,5.966858e-001
1.861983e+003,1.399823e+000
1.862947e+003,2.707849e+000
1.863911e+003,2.792224e+000
1.864876e+003,9.753326e-001
1.865840e+003,-7.464081e-001
1.866804e+003,-1.360077e+000
1.867768e+003,-1.322528e+000
1.868733e+003,-1.113577e+000
1.869697e+003,-6.991089e-001
1.870661e+003,2.652374e-001
1.871625e+003,1.790927e+000
1.872590e+003,2.511014e+000
1.873554e+003,1.792618e+000
1.874518e+003,1.318695e+000
1.875482e+003,2.060169e+000
1.876447e+003,2.595276e+000
1.877411e+003,1.954193e+000
1.878375e+003,7.636017e-001
1.879339e+003,-1.006790e+000
1.880303e+003,-2.504224e+000
1.881268e+003,-1.440997e+000
1.882232e+003,1.860275e+000
1.883196e+003,3.635596e+000
1.884160e+003,1.988538e+000
1.885125e+003,-2.161255e-001
1.886089e+003,2.670318e-001
1.887053e+003,2.414801e+000
1.888017e+003,3.426422e+000
1.888982e+003,3.297821e+000
1.889946e+003,3.837256e+000
1.890910e+003,5.468127e+000
1.891874e+003,5.491138e+000
1.892839e+003,2.361044e+000
1.893803e+003,-8.324890e-002
1.894767e+003,5.162659e-002
1.895731e+003,1.471957e+000
1.896695e+003,4.037988e+000
1.897660e+003,6.560229e+000
1.898624e+003,6.530402e+000
1.899588e+003,4.261090e+000
1.900552e+003,3.030081e+000
1.901517e+003,3.706818e+000
1.902481e+003,4.330499e+000
1.903445e+003,4.127686e+000
1.904409e+003,3.693384e+000
1.905374e+003,3.033862e+000
1.906338e+003,2.730002e+000
1.907302e+003,4.057630e+000
1.908266e+003,5.925787e+000
1.909230e+003,5.661328e+000
1.910195e+003,3.420837e+000
1.911159e+003,1.989386e+000
1.912123e+003,2.639505e+000
1.913087e+003,4.400140e+000
1.914052e+003,6.414673e+000
1.915016e+003,7.960767e+000
1.915980e+003,7.437378e+000
1.916944e+003,5.009851e+000
1.917909e+003,2.618433e+000
1.918873e+003,1.555176e-002
1.919837e+003,-8.025910e-001
1.920801e+003,1.013065e+000
1.921766e+003,2.810321e+000
1.922730e+003,3.870752e+000
1.923694e+003,4.315076e+000
1.924658e+003,3.562750e+000
1.925622e+003,2.770114e+000
1.926587e+003,3.734033e+000
1.927551e+003,5.865637e+000
1.928515e+003,6.914783e+000
1.929479e+003,6.552209e+000
1.930444e+003,6.335742e+000
1.931408e+003,7.418182e+000
1.932372e+003,7.560071e+000
1.933336e+003,4.513763e+000
1.934301e+003,1.419733e+000
1.935265e+003,1.014938e+000
1.936229e+003,2.137381e+000
1.937193e+003,3.379752e+000
1.938157e+003,4.304083e+000
1.939122e+003,4.520556e+000
1.940086e+003,4.082672e+000
1.941050e+003,3.683429e+000
1.942014e+003,3.721655e+000
1.942979e+003,3.849786e+000
1.943943e+003,3.682532e+000
1.944907e+003,3.279938e+000
1.945871e+003,2.497617e+000
1.946836e+003,1.439987e+000
1.947800e+003,2.149808e+000
1.948764e+003,4.938135e+000
1.949728e+003,6.301666e+000
1.950693e+003,5.080048e+000
1.951657e+003,4.154010e+000
1.952621e+003,5.436157e+000
1.953585e+003,6.572070e+000
1.954549e+003,4.717987e+000
1.955514e+003,1.523834e+000
1.956478e+003,5.420807e-001
1.957442e+003,1.672839e+000
1.958406e+003,3.590469e+000
1.959371e+003,7.114447e+000
1.960335e+003,8.981745e+000
1.961299e+003,7.460553e+000
1.962263e+003,6.083661e+000
1.963228e+003,6.681909e+000
1.964192e+003,7.118347e+000
1.965156e+003,4.861066e+000
1.966120e+003,2.280106e+000
1.967084e+003,3.145862e+000
1.968049e+003,6.249475e+000
1.969013e+003,7.459821e+000
1.969977e+003,6.022699e+000
1.970941e+003,5.128760e+000
1.971906e+003,6.700220e+000
1.972870e+003,8.362366e+000
1.973834e+003,7.277887e+000
1.974798e+003,5.013251e+000
1.975763e+003,4.116058e+000
1.976727e+003,4.283875e+000
1.977691e+003,4.910004e+000
1.978655e+003,5.805536e+000
1.979620e+003,6.289545e+000
1.980584e+003,6.248212e+000
1.981548e+003,6.014160e+000
1.982512e+003,5.712921e+000
1.983476e+003,5.398328e+000
1.984441e+003,5.106049e+000
1.985405e+003,5.021973e+000
1.986369e+003,5.670746e+000
1.987333e+003,7.058856e+000
1.988298e+003,7.875458e+000
1.989262e+003,7.901947e+000
1.990226e+003,7.783691e+000
1.991190e+003,7.444226e+000
1.992155e+003,7.192792e+000
1.993119e+003,7.108118e+000
1.994083e+003,7.168982e+000
1.995047e+003,7.433154e+000
1.996011e+003,7.709424e+000
1.996976e+003,7.945148e+000
1.997940e+003,8.054126e+000
1.998904e+003,7.632904e+000
1.999868e+003,6.703046e+000
2.000833e+003,6.368195e+000
2.001797e+003,7.054364e+000
2.002761e+003,7.888959e+000
2.003725e+003,8.847803e+000
2.004690e+003,9.474665e+000
2.005654e+003,9.208410e+000
2.006618e+003,8.703424e+000
2.007582e+003,8.772247e+000
2.008547e+003,9.057599e+000
2.009511e+003,8.767255e+000
2.010475e+003,7.968616e+000
2.011439e+003,7.283002e+000
2.012403e+003,6.937945e+000
2.013368e+003,6.780658e+000
2.014332e+003,6.710004e+000
2.015296e+003,6.799188e+000
2.016260e+003,7.209808e+000
2.017225e+003,7.818988e+000
2.018189e+003,8.333857e+000
2.019153e+003,8.754511e+000
2.020117e+003,9.225464e+000
2.021082e+003,9.696399e+000
2.022046e+003,9.677088e+000
2.023010e+003,9.078900e+000
2.023974e+003,8.273626e+000
2.024938e+003,7.402350e+000
2.025903e+003,6.819018e+000
2.026867e+003,6.989465e+000
2.027831e+003,7.354492e+000
2.028795e+003,6.429480e+000
2.029760e+003,4.368967e+000
2.030724e+003,4.724237e+000
2.031688e+003,8.561224e+000
2.032652e+003,1.063347e+001
2.033617e+003,1.013766e+001
2.034581e+003,9.290161e+000
2.035545e+003,8.201373e+000
2.036509e+003,7.665576e+000
2.037474e+003,8.287775e+000
2.038438e+003,9.347967e+000
2.039402e+003,1.057858e+001
2.040366e+003,1.158722e+001
2.041330e+003,1.108029e+001
2.042295e+003,9.152295e+000
2.043259e+003,8.665448e+000
2.044223e+003,1.094652e+001
2.045187e+003,1.202579e+001
2.046152e+003,9.827265e+000
2.047116e+003,8.089685e+000
2.048080e+003,8.573413e+000
2.049044e+003,9.554138e+000
2.050009e+003,1.033420e+001
2.050973e+003,1.055219e+001
2.051937e+003,8.954663e+000
2.052901e+003,6.893451e+000
2.053865e+003,7.821454e+000
2.054830e+003,1.172916e+001
2.055794e+003,1.441176e+001
2.056758e+003,1.397642e+001
2.057722e+003,1.276716e+001
2.058687e+003,1.230950e+001
2.059651e+003,1.211481e+001
2.060615e+003,1.173429e+001
2.061579e+003,1.122474e+001
2.062544e+003,1.073615e+001
2.063508e+003,1.026621e+001
2.064472e+003,9.635382e+000
2.065436e+003,8.894580e+000
2.066401e+003,8.277789e+000
2.067365e+003,7.889533e+000
2.068329e+003,7.831543e+000
2.069293e+003,8.176580e+000
2.070258e+003,8.780359e+000
2.071222e+003,9.544622e+000
2.072186e+003,1.030162e+001
2.073150e+003,1.059706e+001
2.074115e+003,1.053366e+001
2.075079e+003,1.068730e+001
2.076043e+003,1.093602e+001
2.077007e+003,1.000839e+001
2.077971e+003,7.859888e+000
2.078936e+003,7.575458e+000
2.079900e+003,1.031866e+001
2.080864e+003,1.271545e+001
2.081828e+003,1.228017e+001
2.082792e+003,1.115745e+001
2.083757e+003,1.249135e+001
2.084721e+003,1.512850e+001
2.085685e+003,1.479554e+001
2.086649e+003,1.134171e+001
2.087614e+003,9.461566e+000
2.088578e+003,9.335340e+000
2.089542e+003,1.011332e+001
2.090506e+003,1.210157e+001
2.091471e+003,1.343998e+001
2.092435e+003,1.333231e+001
2.093399e+003,1.303814e+001
2.094363e+003,1.359465e+001
2.095328e+003,1.405709e+001
2.096292e+003,1.289961e+001
2.097256e+003,1.071890e+001
2.098220e+003,9.799927e+000
2.099185e+003,1.036118e+001
2.100149e+003,1.053617e+001
2.101113e+003,9.607813e+000
2.102077e+003,9.513678e+000
2.103042e+003,1.134568e+001
2.104006e+003,1.249261e+001
2.104970e+003,1.178340e+001
2.105934e+003,1.100398e+001
2.106898e+003,1.146897e+001
2.107863e+003,1.198068e+001
2.108827e+003,1.063976e+001
2.109791e+003,8.666901e+000
2.110755e+003,9.199921e+000
2.111719e+003,1.218515e+001
2.112684e+003,1.371732e+001
2.113648e+003,1.252605e+001
2.114612e+003,1.205228e+001
2.115576e+003,1.429133e+001
2.116541e+003,1.545288e+001
2.117505e+003,1.279425e+001
2.118469e+003,1.035555e+001
2.119433e+003,1.142701e+001
2.120398e+003,1.336387e+001
2.121362e+003,1.314842e+001
2.122326e+003,1.161356e+001
2.123290e+003,1.087363e+001
2.124255e+003,1.103757e+001
2.125219e+003,1.073949e+001
2.126183e+003,9.510394e+000
2.127147e+003,8.815216e+000
2.128112e+003,9.973999e+000
2.129076e+003,1.090199e+001
2.130040e+003,1.010909e+001
2.131004e+003,8.988012e+000
2.131969e+003,8.113800e+000
2.132933e+003,7.931903e+000
2.133897e+003,9.627905e+000
2.134861e+003,1.205331e+001
2.135825e+003,1.309788e+001
2.136790e+003,1.266064e+001
2.137754e+003,1.182637e+001
2.138718e+003,1.101507e+001
2.139682e+003,1.018717e+001
2.140646e+003,9.138476e+000
2.141611e+003,8.774817e+000
2.142575e+003,1.077348e+001
2.143539e+003,1.273809e+001
2.144503e+003,1.190207e+001
2.145468e+003,9.917102e+000
2.146432e+003,8.444263e+000
2.147396e+003,7.897174e+000
2.148360e+003,9.361334e+000
2.149325e+003,1.198329e+001
2.150289e+003,1.291076e+001
2.151253e+003,1.153094e+001
2.152217e+003,1.003592e+001
2.153182e+003,9.692377e+000
2.154146e+003,9.776324e+000
2.155110e+003,9.807373e+000
2.156074e+003,9.590961e+000
2.157039e+003,8.355230e+000
2.158003e+003,6.981744e+000
2.158967e+003,6.875714e+000
2.159931e+003,7.924457e+000
2.160896e+003,1.061037e+001
2.161860e+003,1.383514e+001
2.162824e+003,1.407916e+001
2.163788e+003,1.106583e+001
2.164752e+003,8.128339e+000
2.165717e+003,6.997674e+000
2.166681e+003,7.055871e+000
2.167645e+003,7.940735e+000
2.168609e+003,8.932098e+000
2.169573e+003,8.931421e+000
2.170538e+003,8.452374e+000
2.171502e+003,8.391833e+000
2.172466e+003,8.594940e+000
2.173430e+003,8.867212e+000
2.174395e+003,9.107745e+000
2.175359e+003,8.889984e+000
2.176323e+003,8.288361e+000
2.177287e+003,8.164703e+000
2.178252e+003,8.737720e+000
2.179216e+003,8.928625e+000
2.180180e+003,7.972260e+000
2.181144e+003,6.680432e+000
2.182109e+003,5.810412e+000
2.183073e+003,5.544983e+000
2.184037e+003,7.081952e+000
2.185001e+003,9.188769e+000
2.185966e+003,8.035382e+000
2.186930e+003,4.824203e+000
2.187894e+003,4.074847e+000
2.188858e+003,5.765668e+000
2.189823e+003,6.443878e+000
2.190787e+003,5.239978e+000
2.191751e+003,4.222873e+000
2.192715e+003,4.549683e+000
2.193679e+003,5.169702e+000
2.194644e+003,5.014771e+000
2.195608e+003,4.752353e+000
2.196572e+003,5.870837e+000
2.197536e+003,7.488629e+000
2.198500e+003,7.292212e+000
2.199465e+003,5.833496e+000
2.200429e+003,4.427542e+000
2.201393e+003,3.342728e+000
2.202357e+003,3.252292e+000
2.203322e+003,4.027768e+000
2.204286e+003,4.310199e+000
2.205250e+003,3.669574e+000
2.206214e+003,3.168243e+000
2.207179e+003,3.535507e+000
2.208143e+003,4.371997e+000
2.209107e+003,5.361609e+000
2.210071e+003,6.153302e+000
2.211036e+003,5.891778e+000
2.212000e+003,5.045215e+000
2.212964e+003,4.851007e+000
2.213928e+003,5.025070e+000
2.214893e+003,4.424463e+000
2.215857e+003,3.313806e+000
2.216821e+003,3.245300e+000
2.217785e+003,4.355392e+000
2.218750e+003,5.070264e+000
2.219714e+003,4.710904e+000
2.220678e+003,4.370776e+000
2.221642e+003,4.962167e+000
2.222606e+003,5.939850e+000
2.223571e+003,6.705072e+000
2.224535e+003,7.194519e+000
2.225499e+003,7.463562e+000
2.226463e+003,7.309461e+000
2.227427e+003,5.604248e+000
2.228392e+003,3.333313e+000
2.229356e+003,3.566699e+000
2.230320e+003,5.865302e+000
2.231284e+003,6.955274e+000
2.232249e+003,6.076886e+000
2.233213e+003,5.069290e+000
2.234177e+003,4.946274e+000
2.235141e+003,5.698633e+000
2.236106e+003,7.597308e+000
2.237070e+003,9.521051e+000
2.238034e+003,1.001794e+001
2.238998e+003,9.714826e+000
2.239963e+003,9.245313e+000
2.240927e+003,8.835779e+000
2.241891e+003,8.582575e+000
2.242855e+003,8.795435e+000
2.243820e+003,1.045092e+001
2.244784e+003,1.307628e+001
2.245748e+003,1.494685e+001
2.246712e+003,1.553691e+001
2.247677e+003,1.526025e+001
2.248641e+003,1.430044e+001
2.249605e+003,1.378045e+001
2.250569e+003,1.466302e+001
2.251533e+003,1.618897e+001
2.252498e+003,1.837374e+001
2.253462e+003,2.010364e+001
2.254426e+003,2.002704e+001
2.255390e+003,1.891620e+001
2.256354e+003,1.751353e+001
2.257319e+003,1.611967e+001
2.258283e+003,1.510473e+001
2.259247e+003,1.437906e+001
2.260211e+003,1.342484e+001
2.261176e+003,1.213344e+001
2.262140e+003,1.088143e+001
2.263104e+003,9.734179e+000
2.264068e+003,8.970441e+000
2.265033e+003,9.145880e+000
2.265997e+003,9.220825e+000
2.266961e+003,8.518744e+000
2.267925e+003,7.519763e+000
2.268890e+003,6.381030e+000
2.269854e+003,5.351013e+000
2.270818e+003,4.765821e+000
2.271782e+003,4.430337e+000
2.272747e+003,3.985019e+000
2.273711e+003,3.441336e+000
2.274675e+003,2.890298e+000
2.275639e+003,2.341193e+000
2.276604e+003,2.571124e+000
2.277568e+003,4.730927e+000
2.278532e+003,5.676154e+000
2.279496e+003,3.172702e+000
2.280460e+003,1.283347e+000
2.281425e+003,2.206143e+000
2.282389e+003,3.259775e+000
2.283353e+003,2.750394e+000
2.284317e+003,1.857971e+000
2.285281e+003,1.942154e+000
2.286246e+003,2.301135e+000
2.287210e+003,1.304514e+000
2.288174e+003,-7.072937e-001
2.289138e+003,-1.356207e+000
2.290103e+003,-2.500214e-001
2.291067e+003,5.309326e-001
2.292031e+003,1.241711e+000
2.292995e+003,1.118512e+000
2.293960e+003,-8.628815e-001
2.294924e+003,-1.833041e+000
2.295888e+003,-3.907166e-001
2.296852e+003,8.042663e-001
2.297817e+003,2.588043e-001
2.298781e+003,-6.546783e-001
2.299745e+003,-7.005127e-001
2.300709e+003,-3.069977e-001
2.301674e+003,-2.699921e-001
2.302638e+003,-4.814636e-001
2.303602e+003,-2.399200e-001
2.304566e+003,5.038971e-001
2.305531e+003,2.995514e-001
2.306495e+003,-1.083115e+000
2.307459e+003,-9.210541e-001
2.308423e+003,1.294809e+000
2.309387e+003,2.106925e+000
2.310352e+003,4.989716e-001
2.311316e+003,-9.717315e-001
2.312280e+003,-1.040219e+000
2.313244e+003,-4.780396e-001
2.314208e+003,7.559814e-002
2.315173e+003,3.817352e-001
2.316137e+003,1.443359e-001
2.317101e+003,-6.099884e-001
2.318065e+003,-2.284137e+000
2.319030e+003,-4.324905e+000
2.319994e+003,-4.112283e+000
2.320958e+003,-2.294220e+000
2.321922e+003,-1.649963e+000
2.322887e+003,-2.181937e+000
2.323851e+003,-2.616705e+000
2.324815e+003,-2.604620e+000
2.325779e+003,-1.934924e+000
2.326744e+003,-6.763611e-001
2.327708e+003,1.431458e-001
2.328672e+003,-1.572754e-001
2.329636e+003,-1.019531e+000
2.330601e+003,-2.060889e+000
2.331565e+003,-3.120334e+000
2.332529e+003,-4.381876e+000
2.333493e+003,-5.208270e+000
2.334458e+003,-4.534265e+000
2.335422e+003,-3.200711e+000
2.336386e+003,-2.117828e+000
2.337350e+003,-1.399301e+000
2.338314e+003,-9.059387e-001
2.339279e+003,-7.632446e-001
2.340243e+003,-1.558090e+000
2.341207e+003,-3.234540e+000
2.342171e+003,-4.430139e+000
2.343135e+003,-4.663519e+000
2.344100e+003,-4.625617e+000
2.345064e+003,-4.483475e+000
2.346028e+003,-4.270133e+000
2.346992e+003,-3.690701e+000
2.347957e+003,-3.390173e+000
2.348921e+003,-4.179156e+000
2.349885e+003,-4.842874e+000
2.350849e+003,-4.315000e+000
2.351814e+003,-3.352676e+000
2.352778e+003,-2.706796e+000
2.353742e+003,-2.409854e+000
2.354706e+003,-2.575305e+000
2.355671e+003,-3.117850e+000
2.356635e+003,-3.265442e+000
2.357599e+003,-2.891959e+000
2.358563e+003,-2.758392e+000
2.359528e+003,-2.971591e+000
2.360492e+003,-3.194012e+000
2.361456e+003,-3.479043e+000
2.362420e+003,-3.178082e+000
2.363385e+003,-1.877826e+000
2.364349e+003,-1.241205e+000
2.365313e+003,-2.252445e+000
2.366277e+003,-3.524051e+000
2.367241e+003,-3.794833e+000
2.368206e+003,-3.486295e+000
2.369170e+003,-3.257840e+000
2.370134e+003,-3.039078e+000
2.371098e+003,-2.290735e+000
2.372063e+003,-1.422003e+000
2.373027e+003,-2.613345e+000
2.373991e+003,-5.105557e+000
2.374955e+003,-5.933493e+000
2.375919e+003,-5.279065e+000
2.376884e+003,-5.185346e+000
2.377848e+003,-5.775641e+000
2.378812e+003,-5.109525e+000
2.379776e+003,-2.861179e+000
2.380741e+003,-1.771536e+000
2.381705e+003,-3.394104e+000
2.382669e+003,-5.111936e+000
2.383633e+003,-5.059412e+000
2.384598e+003,-4.163507e+000
2.385562e+003,-2.494241e+000
2.386526e+003,-1.155148e+000
2.387490e+003,-1.189429e+000
2.388455e+003,-1.749219e+000
2.389419e+003,-2.091571e+000
2.390383e+003,-2.351517e+000
2.391347e+003,-2.712952e+000
2.392312e+003,-3.298602e+000
2.393276e+003,-4.695197e+000
2.394240e+003,-6.641049e+000
2.395204e+003,-6.805438e+000
2.396168e+003,-4.294162e+000
2.397133e+003,-2.876660e+000
2.398097e+003,-3.623486e+000
2.399061e+003,-3.779645e+000
2.400025e+003,-2.843372e+000
2.400990e+003,-2.140418e+000
2.401954e+003,-2.077640e+000
2.402918e+003,-1.961261e+000
2.403882e+003,-1.304465e+000
2.404846e+003,-1.138889e+000
2.405811e+003,-2.481241e+000
2.406775e+003,-3.951736e+000
2.407739e+003,-3.549622e+000
2.408703e+003,-2.019574e+000
2.409668e+003,-1.200656e+000
2.410632e+003,-1.046863e+000
2.411596e+003,-1.628326e+000
2.412560e+003,-2.739862e+000
2.413525e+003,-3.551620e+000
2.414489e+003,-3.903079e+000
2.415453e+003,-3.188241e+000
2.416417e+003,-1.709268e+000
2.417382e+003,-9.411804e-001
2.418346e+003,-1.255405e+000
2.419310e+003,-2.115747e+000
2.420274e+003,-3.210504e+000
2.421239e+003,-3.656311e+000
2.422203e+003,-2.608411e+000
2.423167e+003,-1.738110e+000
2.424131e+003,-2.893048e+000
2.425095e+003,-3.737073e+000
2.426060e+003,-1.993436e+000
2.427024e+003,-2.315796e-001
2.427988e+003,-1.078601e+000
2.428952e+003,-2.231842e+000
2.429917e+003,-8.770752e-001
2.430881e+003,1.460800e+000
2.431845e+003,2.581451e+000
2.432809e+003,2.360785e+000
2.433773e+003,5.457672e-001
2.434738e+003,-2.813388e+000
2.435702e+003,-4.203781e+000
2.436666e+003,-3.026785e+000
2.437630e+003,-1.953677e+000
2.438595e+003,-8.890533e-001
2.439559e+003,-5.348572e-001
2.440523e+003,-1.063898e+000
2.441487e+003,-1.410718e+000
2.442452e+003,-1.293732e+000
2.443416e+003,-9.106659e-001
2.444380e+003,-3.502014e-001
2.445344e+003,-1.510468e-001
2.446309e+003,-8.026764e-001
2.447273e+003,-1.055124e+000
2.448237e+003,9.250580e-001
2.449201e+003,3.759937e+000
2.450166e+003,6.088391e+000
2.451130e+003,7.031793e+000
2.452094e+003,3.663611e+000
2.453058e+003,-9.997498e-001
2.454022e+003,-2.007294e+000
2.454987e+003,-8.420776e-001
2.455951e+003,-7.827331e-001
2.456915e+003,-1.705280e+000
2.457879e+003,-1.749707e+000
2.458844e+003,-8.811157e-001
2.459808e+003,-1.195883e+000
2.460772e+003,-3.481723e+000
2.461736e+003,-4.378067e+000
2.462700e+003,-2.021857e+000
2.463665e+003,-3.124084e-001
2.464629e+003,2.833862e-001
2.465593e+003,4.838745e-001
2.466557e+003,2.516235e-001
2.467522e+003,-2.059692e-001
2.468486e+003,-1.050339e+000
2.469450e+003,-1.248856e+000
2.470414e+003,1.606323e-001
2.471379e+003,1.613153e+000
2.472343e+003,1.108728e+000
2.473307e+003,-1.216827e-001
2.474271e+003,7.384521e-001
2.475236e+003,2.706455e+000
2.476200e+003,2.378406e+000
2.477164e+003,5.367249e-001
2.478128e+003,-7.715424e-001
2.479093e+003,-1.443234e+000
2.480057e+003,-1.310690e+000
2.481021e+003,-7.029389e-001
2.481985e+003,-5.510498e-001
2.482949e+003,-6.963776e-001
2.483914e+003,3.673706e-001
2.484878e+003,2.688946e+000
2.485842e+003,3.331519e+000
2.486806e+003,8.520111e-001
2.487771e+003,-1.092297e+000
2.488735e+003,-7.934753e-001
2.489699e+003,-3.822846e-001
2.490663e+003,-6.528137e-001
2.491627e+003,-6.060883e-001
2.492592e+003,3.792053e-001
2.493556e+003,1.419705e+000
2.494520e+003,2.175589e+000
2.495484e+003,2.681729e+000
2.496449e+003,2.849799e+000
2.497413e+003,3.029260e+000
2.498377e+003,3.865704e+000
2.499341e+003,4.814105e+000
2.500306e+003,4.287976e+000
2.501270e+003,2.683243e+000
2.502234e+003,1.537680e+000
2.503198e+003,9.387787e-001
2.504163e+003,1.569379e+000
2.505127e+003,2.905701e+000
2.506091e+003,3.596313e+000
2.507055e+003,3.484827e+000
2.508020e+003,2.324472e+000
2.508984e+003,6.795746e-001
2.509948e+003,7.406403e-001
2.510912e+003,2.919263e+000
2.511876e+003,3.989545e+000
2.512841e+003,2.218228e+000
2.513805e+003,1.406674e+000
2.514769e+003,4.092145e+000
2.515733e+003,5.817542e+000
2.516698e+003,4.385144e+000
2.517662e+003,3.382806e+000
2.518626e+003,4.389832e+000
2.519590e+003,5.353278e+000
2.520554e+003,5.100305e+000
2.521519e+003,4.576300e+000
2.522483e+003,4.464227e+000
2.523447e+003,5.094983e+000
2.524411e+003,7.201276e+000
2.525376e+003,9.703650e+000
2.526340e+003,9.549042e+000
2.527304e+003,7.626880e+000
2.528268e+003,6.761273e+000
2.529233e+003,6.646466e+000
2.530197e+003,6.416455e+000
2.531161e+003,6.344708e+000
2.532125e+003,7.455542e+000
2.533090e+003,9.189423e+000
2.534054e+003,1.001376e+001
2.535018e+003,9.943341e+000
2.535982e+003,1.010060e+001
2.536947e+003,1.072062e+001
2.537911e+003,1.115886e+001
2.538875e+003,1.133247e+001
2.539839e+003,1.106719e+001
2.540803e+003,9.752393e+000
2.541768e+003,9.045184e+000
2.542732e+003,9.297272e+000
2.543696e+003,9.531103e+000
2.544660e+003,9.465594e+000
2.545625e+003,9.755890e+000
2.546589e+003,1.073639e+001
2.547553e+003,1.175532e+001
2.548517e+003,1.227672e+001
2.549482e+003,1.278099e+001
2.550446e+003,1.395751e+001
2.551410e+003,1.503688e+001
2.552374e+003,1.439781e+001
2.553339e+003,1.326542e+001
2.554303e+003,1.383184e+001
2.555267e+003,1.468318e+001
2.556231e+003,1.369330e+001
2.557196e+003,1.203242e+001
2.558160e+003,1.140419e+001
2.559124e+003,1.135795e+001
2.560088e+003,1.086318e+001
2.561052e+003,1.003051e+001
2.562017e+003,9.340466e+000
2.562981e+003,8.830439e+000
2.563945e+003,9.231756e+000
2.564909e+003,1.097597e+001
2.565874e+003,1.104196e+001
2.566838e+003,9.159155e+000
2.567802e+003,7.980615e+000
2.568766e+003,7.744788e+000
2.569730e+003,7.386719e+000
2.570695e+003,6.753265e+000
2.571659e+003,6.989563e+000
2.572623e+003,8.270178e+000
2.573587e+003,9.075305e+000
2.574552e+003,8.636602e+000
2.575516e+003,7.413300e+000
2.576480e+003,5.418378e+000
2.577444e+003,3.822748e+000
2.578409e+003,3.329645e+000
2.579373e+003,3.390448e+000
2.580337e+003,4.590784e+000
2.581301e+003,5.244928e+000
2.582266e+003,3.944202e+000
2.583230e+003,2.328870e+000
2.584194e+003,1.132257e+000
2.585158e+003,6.318359e-001
2.586123e+003,1.250839e+000
2.587087e+003,2.570721e+000
2.588051e+003,4.012769e+000
2.589015e+003,5.281848e+000
2.589979e+003,5.403674e+000
2.590944e+003,4.585394e+000
2.591908e+003,3.449975e+000
2.592872e+003,2.193140e+000
2.593836e+003,1.215060e+000
2.594801e+003,6.475250e-001
2.595765e+003,7.816070e-001
2.596729e+003,1.393338e+000
2.597693e+003,2.299591e+000
2.598657e+003,3.092816e+000
2.599622e+003,2.357990e+000
2.600586e+003,-8.512878e-002
2.601550e+003,-1.151746e+000
2.602514e+003,3.660736e-001
2.603479e+003,9.711456e-001
2.604443e+003,1.281433e-002
2.605407e+003,2.356110e-001
2.606371e+003,2.296753e+000
2.607336e+003,2.859631e+000
2.608300e+003,1.147626e+000
2.609264e+003,2.510071e-001
2.610228e+003,1.244202e+000
2.611193e+003,2.139179e+000
2.612157e+003,1.815326e+000
2.613121e+003,1.453973e+000
2.614085e+003,2.030328e+000
2.615050e+003,2.583899e+000
2.616014e+003,2.190479e+000
2.616978e+003,1.621570e+000
2.617942e+003,1.554633e+000
2.618906e+003,1.331793e+000
2.619871e+003,4.430115e-001
2.620835e+003,-6.760986e-001
2.621799e+003,-2.031064e+000
2.622763e+003,-3.057458e+000
2.623728e+003,-3.180536e+000
2.624692e+003,-2.664124e+000
2.625656e+003,-1.854138e+000
2.626620e+003,-9.902862e-001
2.627584e+003,-8.343475e-001
2.628549e+003,-1.074481e+000
2.629513e+003,-3.540039e-001
2.630477e+003,6.079590e-001
2.631441e+003,-4.766022e-001
2.632406e+003,-2.131107e+000
2.633370e+003,-7.202026e-001
2.634334e+003,2.177826e+000
2.635298e+003,2.490021e+000
2.636263e+003,6.825317e-001
2.637227e+003,1.650269e-001
2.638191e+003,1.261646e+000
2.639155e+003,1.151691e+000
2.640120e+003,-6.521576e-001
2.641084e+003,-9.528106e-001
2.642048e+003,4.827393e-001
2.643012e+003,1.654169e+000
2.643977e+003,2.489197e+000
2.644941e+003,3.011176e+000
2.645905e+003,3.156702e+000
2.646869e+003,2.186054e+000
2.647833e+003,1.672272e-001
2.648798e+003,-1.313358e+000
2.649762e+003,-1.605203e+000
2.650726e+003,-1.275528e+000
2.651690e+003,-4.790619e-001
2.652655e+003,7.988892e-002
2.653619e+003,-9.974060e-002
2.654583e+003,-2.139282e-001
2.655547e+003,2.597931e-001
2.656511e+003,2.882813e-001
2.657476e+003,-9.970581e-001
2.658440e+003,-1.226083e+000
2.659404e+003,9.343750e-001
2.660368e+003,2.537036e+000
2.661333e+003,1.612866e+000
2.662297e+003,2.771057e-001
2.663261e+003,6.295471e-001
2.664225e+003,1.031848e+000
2.665190e+003,-1.307718e+000
2.666154e+003,-3.708167e+000
2.667118e+003,-2.686929e+000
2.668082e+003,-6.300964e-001
2.669047e+003,6.080567e-001
2.670011e+003,1.425629e+000
2.670975e+003,2.745868e+000
2.671939e+003,3.379706e+000
2.672904e+003,1.268323e+000
2.673868e+003,-1.239868e+000
2.674832e+003,-6.331543e-001
2.675796e+003,1.485474e+000
2.676760e+003,7.750000e-001
2.677725e+003,-1.745285e+000
2.678689e+003,-1.693619e+000
2.679653e+003,2.843628e-002
2.680617e+003,9.304138e-001
2.681582e+003,1.181842e+000
2.682546e+003,1.502533e+000
2.683510e+003,1.670282e+000
2.684474e+003,6.968506e-001
2.685438e+003,-8.508636e-001
2.686403e+003,-1.330508e+000
2.687367e+003,-7.249603e-001
2.688331e+003,-1.304657e-001
2.689295e+003,4.601746e-001
2.690260e+003,4.929565e-001
2.691224e+003,-1.712524e-001
2.692188e+003,-3.078522e-001
2.693152e+003,4.616699e-002
2.694117e+003,5.047302e-001
2.695081e+003,9.734497e-001
2.696045e+003,1.078204e+000
2.697009e+003,9.217163e-001
2.697974e+003,1.304785e+000
2.698938e+003,2.237915e+000
2.699902e+003,2.436804e+000
2.700866e+003,1.418133e+000
2.701831e+003,8.833984e-001
2.702795e+003,1.441962e+000
2.703759e+003,2.251428e+000
2.704723e+003,3.950708e+000
2.705688e+003,3.810510e+000
2.706652e+003,1.035046e+000
2.707616e+003,-4.951263e-001
2.708580e+003,1.859955e-001
2.709544e+003,8.104309e-001
2.710509e+003,4.106812e-001
2.711473e+003,-1.065714e+000
2.712437e+003,-3.624106e+000
2.713401e+003,-4.248428e+000
2.714365e+003,4.039612e-001
2.715330e+003,3.840546e+000
2.716294e+003,1.175018e+000
2.717258e+003,-1.003763e+000
2.718222e+003,5.202271e-001
2.719187e+003,1.511078e+000
2.720151e+003,3.551697e-001
2.721115e+003,-4.884857e-001
2.722079e+003,2.459839e-001
2.723044e+003,9.117066e-001
2.724008e+003,2.659485e-001
2.724972e+003,-2.926514e-001
2.725936e+003,8.018249e-001
2.726901e+003,2.119446e+000
2.727865e+003,2.345752e+000
2.728829e+003,1.756720e+000
2.729793e+003,-6.063141e-001
2.730758e+003,-2.223636e+000
2.731722e+003,8.642578e-002
2.732686e+003,1.916174e+000
2.733650e+003,-7.649963e-001
2.734615e+003,-3.306488e+000
2.735579e+003,-1.477701e+000
2.736543e+003,1.340924e+000
2.737507e+003,5.667785e-001
2.738471e+003,-1.928192e+000
2.739436e+003,-3.223813e+000
2.740400e+003,-3.270926e+000
2.741364e+003,-1.126648e+000
2.742328e+003,1.442401e+000
2.743292e+003,2.561975e+000
2.744257e+003,2.760754e+000
2.745221e+003,2.341712e+000
2.746185e+003,1.773413e+000
2.747149e+003,1.709491e+000
2.748114e+003,1.631964e+000
2.749078e+003,5.834106e-001
2.750042e+003,-6.665558e-001
2.751006e+003,1.488892e-001
2.751971e+003,2.108948e+000
2.752935e+003,1.939642e+000
2.753899e+003,5.516968e-001
2.754863e+003,-4.183990e-001
2.755828e+003,-8.231262e-001
2.756792e+003,-1.603546e-001
2.757756e+003,7.489685e-001
2.758720e+003,4.679871e-001
2.759685e+003,-4.534882e-001
2.760649e+003,-4.769012e-001
2.761613e+003,1.260193e-001
2.762577e+003,3.418335e-001
2.763542e+003,2.012390e-001
2.764506e+003,3.193970e-002
2.765470e+003,-6.347046e-002
2.766434e+003,7.637879e-001
2.767398e+003,1.973499e+000
2.768363e+003,2.069769e+000
2.769327e+003,1.273181e+000
2.770291e+003,-1.213013e-001
2.771255e+003,-1.366660e+000
2.772219e+003,-9.486542e-001
2.773184e+003,8.940064e-001
2.774148e+003,2.569055e+000
2.775112e+003,3.906763e+000
2.776076e+003,2.904370e+000
2.777041e+003,-4.716004e-001
2.778005e+003,-1.947354e+000
2.778969e+003,-1.687888e+000
2.779933e+003,4.990234e-002
2.780898e+003,2.218176e+000
2.781862e+003,1.604834e+000
2.782826e+003,-8.412415e-001
2.783790e+003,-1.516150e+000
2.784755e+003,-3.281738e-001
2.785719e+003,3.102905e-001
2.786683e+003,8.543701e-002
2.787647e+003,4.305359e-001
2.788612e+003,1.479321e+000
2.789576e+003,1.369067e+000
2.790540e+003,2.015503e-001
2.791504e+003,1.095392e+000
2.792469e+003,3.491467e+000
2.793433e+003,3.461481e+000
2.794397e+003,1.451843e+000
2.795361e+003,8.018433e-001
2.796325e+003,1.706183e+000
2.797290e+003,2.131708e+000
2.798254e+003,1.732971e+000
2.799218e+003,1.544928e+000
2.800182e+003,1.692487e+000
2.801146e+003,1.471265e+000
2.802111e+003,7.869080e-001
2.803075e+003,2.046252e+000
2.804039e+003,4.924481e+000
2.805003e+003,5.879107e+000
2.805968e+003,4.753571e+000
2.806932e+003,2.873712e+000
2.807896e+003,1.041217e+000
2.808860e+003,1.927429e-001
2.809825e+003,4.561951e-001
2.810789e+003,1.364850e+000
2.811753e+003,3.091510e+000
2.812717e+003,3.109869e+000
2.813682e+003,7.763855e-001
2.814646e+003,2.116333e-001
2.815610e+003,1.460028e+000
2.816574e+003,2.245758e+000
2.817539e+003,2.337579e+000
2.818503e+003,1.917694e+000
2.819467e+003,1.262634e+000
2.820431e+003,1.348340e+000
2.821396e+003,2.178790e+000
2.822360e+003,2.027417e+000
2.823324e+003,3.078980e-001
2.824288e+003,5.924560e-001
2.825252e+003,4.210419e+000
2.826217e+003,4.442187e+000
2.827181e+003,1.173462e+000
2.828145e+003,8.267029e-001
2.829109e+003,3.213910e+000
2.830073e+003,3.832355e+000
2.831038e+003,2.392078e+000
2.832002e+003,6.142700e-001
2.832966e+003,-7.024902e-001
2.833930e+003,-8.327637e-002
2.834895e+003,2.763263e+000
2.835859e+003,3.156867e+000
2.836823e+003,-1.096985e-001
2.837787e+003,-8.484955e-001
2.838752e+003,1.131110e+000
2.839716e+003,2.429279e+000
2.840680e+003,2.836829e+000
2.841644e+003,2.367310e+000
2.842609e+003,1.444128e+000
2.843573e+003,1.652783e+000
2.844537e+003,2.820313e+000
2.845501e+003,3.112268e+000
2.846466e+003,2.152173e+000
2.847430e+003,6.519592e-001
2.848394e+003,-1.530942e+000
2.849358e+003,-1.651801e+000
2.850323e+003,4.754700e-001
2.851287e+003,1.405218e+000
2.852251e+003,1.128278e+000
2.853215e+003,2.121033e-001
2.854179e+003,-7.286621e-001
2.855144e+003,2.226379e-001
2.856108e+003,2.346979e+000
2.857072e+003,2.368781e+000
2.858036e+003,2.343994e-001
2.859000e+003,-2.378540e-001
2.859965e+003,1.200037e+000
2.860929e+003,2.173163e+000
2.861893e+003,2.636414e+000
2.862857e+003,2.319855e+000
2.863822e+003,1.450903e+000
2.864786e+003,6.010620e-001
2.865750e+003,5.207520e-002
2.866714e+003,5.804749e-001
2.867679e+003,1.714636e+000
2.868643e+003,2.034741e+000
2.869607e+003,1.777130e+000
2.870571e+003,2.903485e+000
2.871536e+003,5.182538e+000
2.872500e+003,6.248914e+000
2.873464e+003,6.039441e+000
2.874428e+003,3.745160e+000
2.875393e+003,3.825561e-001
2.876357e+003,-7.554932e-001
2.877321e+003,9.490967e-003
2.878285e+003,2.668292e+000
2.879250e+003,5.376099e+000
2.880214e+003,4.391138e+000
2.881178e+003,8.984375e-001
2.882142e+003,-9.438354e-001
2.883106e+003,-1.312872e+000
2.884071e+003,-1.089932e+000
2.885035e+003,-3.528442e-001
2.885999e+003,7.470459e-001
2.886963e+003,1.824878e+000
2.887927e+003,2.021594e+000
2.888892e+003,1.615753e+000
2.889856e+003,1.088257e-001
2.890820e+003,-9.522797e-001
2.891784e+003,1.883142e+000
2.892749e+003,5.741961e+000
2.893713e+003,5.831012e+000
2.894677e+003,3.452777e+000
2.895641e+003,1.198285e+000
2.896606e+003,-6.387390e-001
2.897570e+003,-1.113248e+000
2.898534e+003,-6.776520e-001
2.899498e+003,2.415955e-001
2.900463e+003,1.247217e+000
2.901427e+003,2.113495e+000
2.902391e+003,2.688123e+000
2.903355e+003,2.881390e+000
2.904320e+003,2.482239e+000
2.905284e+003,9.699341e-001
2.906248e+003,-1.783142e-001
2.907212e+003,1.581793e+000
2.908177e+003,4.154175e+000
2.909141e+003,4.055963e+000
2.910105e+003,2.805823e+000
2.911069e+003,1.336066e+000
2.912033e+003,2.933655e-001
2.912998e+003,7.691773e-001
2.913962e+003,9.856262e-001
2.914926e+003,-5.035523e-001
2.915890e+003,-1.442905e+000
2.916854e+003,-1.223602e-001
2.917819e+003,1.843408e+000
2.918783e+003,2.915698e+000
2.919747e+003,3.306903e+000
2.920711e+003,3.141827e+000
2.921676e+003,2.578357e+000
2.922640e+003,1.072723e+000
2.923604e+003,2.493500e-001
2.924568e+003,1.368189e+000
2.925533e+003,1.525415e+000
2.926497e+003,-5.680847e-001
2.927461e+003,-2.444263e+000
2.928425e+003,-2.350693e+000
2.929390e+003,3.121143e+000
2.930354e+003,1.639598e+001
2.931318e+003,2.400638e+001
2.932282e+003,1.339849e+001
2.933247e+003,3.387042e+000
2.934211e+003,5.274841e-001
2.935175e+003,-3.178528e-001
2.936139e+003,-6.691895e-002
2.937104e+003,1.086884e-001
2.938068e+003,2.473755e-002
2.939032e+003,-5.424744e-001
2.939996e+003,-1.467929e+000
2.940960e+003,-1.309692e+000
2.941925e+003,4.284546e-001
2.942889e+003,1.176019e+000
2.943853e+003,-5.210571e-001
2.944817e+003,-8.204712e-001
2.945781e+003,8.157898e-001
2.946746e+003,1.113098e+000
2.947710e+003,1.535339e-002
2.948674e+003,5.901795e-002
2.949638e+003,1.051044e+000
2.950603e+003,2.407013e-001
2.951567e+003,-1.957217e+000
2.952531e+003,-1.833655e+000
2.953495e+003,9.294556e-001
2.954460e+003,2.171558e+000
2.955424e+003,1.773706e+000
2.956388e+003,6.104492e-001
2.957352e+003,-1.104370e+000
2.958317e+003,-6.257172e-001
2.959281e+003,1.052356e+000
2.960245e+003,8.051422e-001
2.961209e+003,-4.142578e-001
2.962174e+003,-2.514771e-001
2.963138e+003,8.122681e-001
2.964102e+003,1.353546e+000
2.965066e+003,1.336743e+000
2.966031e+003,6.346070e-001
2.966995e+003,-3.914002e-001
2.967959e+003,-5.976715e-001
2.968923e+003,-2.756714e-001
2.969887e+003,2.096252e-001
2.970852e+003,6.230255e-001
2.971816e+003,3.200531e-001
2.972780e+003,2.497894e-001
2.973744e+003,2.057532e+000
2.974708e+003,3.538428e+000
2.975673e+003,2.731513e+000
2.976637e+003,1.237830e+000
2.977601e+003,9.686096e-001
2.978565e+003,8.345642e-001
2.979530e+003,-1.221158e+000
2.980494e+003,-2.865237e+000
2.981458e+003,-1.614764e+000
2.982422e+003,-2.003662e-001
2.983387e+003,1.242828e-001
2.984351e+003,-1.231628e-001
2.985315e+003,-7.952026e-001
2.986279e+003,-1.678412e+000
2.987244e+003,-2.624130e+000
2.988208e+003,-2.414371e+000
2.989172e+003,-1.648804e-001
2.990136e+003,1.093976e+000
2.991101e+003,-1.283575e+000
2.992065e+003,-2.946307e+000
2.993029e+003,-3.028302e+000
2.993993e+003,-2.246069e+000
2.994958e+003,-6.237976e-001
2.995922e+003,-1.684692e-001
2.996886e+003,-9.486114e-001
2.997850e+003,-6.695282e-001
2.998814e+003,8.786743e-001
2.999779e+003,1.260742e+000
3.000743e+003,-1.861237e-001
3.001707e+003,-1.040576e+000
3.002671e+003,-1.022513e+000
3.003635e+003,-7.947601e-001
3.004600e+003,-3.460663e-001
3.005564e+003,1.416397e+000
3.006528e+003,3.520435e+000
3.007492e+003,2.190759e+000
3.008457e+003,-8.903015e-001
3.009421e+003,-1.451035e+000
3.010385e+003,6.141052e-002
3.011349e+003,1.474683e+000
3.012314e+003,2.229517e+000
3.013278e+003,6.304229e-001
3.014242e+003,-2.188214e+000
3.015206e+003,-2.577048e+000
3.016171e+003,-1.449631e+000
3.017135e+003,4.003967e-001
3.018099e+003,2.072678e+000
3.019063e+003,2.687085e+000
3.020028e+003,2.631909e+000
3.020992e+003,2.244022e+000
3.021956e+003,1.557922e+000
3.022920e+003,5.101227e-001
3.023885e+003,-1.584961e-001
3.024849e+003,6.091827e-001
3.025813e+003,1.316504e+000
3.026777e+003,3.359589e-001
3.027741e+003,-8.765991e-001
3.028706e+003,-2.028909e+000
3.029670e+003,-2.348862e+000
3.030634e+003,-1.408340e+000
3.031598e+003,-1.165295e+000
3.032563e+003,-2.199338e+000
3.033527e+003,-2.427435e+000
3.034491e+003,-1.018738e+000
3.035455e+003,4.484283e-001
3.036420e+003,1.347080e+000
3.037384e+003,1.834494e+000
3.038348e+003,2.016458e+000
3.039312e+003,1.142346e+000
3.040277e+003,-7.623810e-001
3.041241e+003,-7.924988e-001
3.042205e+003,6.906799e-001
3.043169e+003,1.061670e+000
3.044134e+003,3.982208e-001
3.045098e+003,3.867889e-001
3.046062e+003,9.029358e-001
3.047026e+003,2.748871e-001
3.047990e+003,-1.154773e+000
3.048955e+003,-1.647711e+000
3.049919e+003,-1.429855e+000
3.050883e+003,-1.366748e+000
3.051847e+003,-1.390286e+000
3.052812e+003,-1.638336e+000
3.053776e+003,-1.621030e+000
3.054740e+003,-4.206421e-001
3.055704e+003,8.816528e-001
3.056668e+003,1.525397e+000
3.057633e+003,1.104175e+000
3.058597e+003,-1.082165e+000
3.059561e+003,-3.049933e+000
3.060525e+003,-1.732806e+000
3.061490e+003,-8.726196e-002
3.062454e+003,-5.515808e-001
3.063418e+003,-1.037363e+000
3.064382e+003,-7.354279e-001
3.065347e+003,-5.455658e-001
3.066311e+003,-6.966370e-001
3.067275e+003,-9.070648e-001
3.068239e+003,-9.538696e-001
3.069204e+003,9.103394e-002
3.070168e+003,2.593213e+000
3.071132e+003,3.766141e+000
3.072096e+003,2.163480e+000
3.073061e+003,5.876465e-001
3.074025e+003,-1.009125e+000
3.074989e+003,-4.991821e-001
3.075953e+003,1.462781e+000
3.076917e+003,1.068460e+000
3.077882e+003,-9.755432e-001
3.078846e+003,-1.444147e+000
3.079810e+003,-4.910858e-001
3.080774e+003,-2.695374e-001
3.081739e+003,-5.551392e-001
3.082703e+003,-2.894501e-001
3.083667e+003,2.129791e-001
3.084631e+003,-2.810455e-001
3.085595e+003,-9.489319e-001
3.086560e+003,-4.856567e-002
3.087524e+003,9.600586e-001
3.088488e+003,1.964417e-001
3.089452e+003,-6.561279e-001
3.090417e+003,-4.181702e-001
3.091381e+003,3.300781e-002
3.092345e+003,2.598267e-002
3.093309e+003,-3.695679e-001
3.094274e+003,-1.283365e+000
3.095238e+003,-1.937903e+000
3.096202e+003,-1.794623e+000
3.097166e+003,-1.165155e+000
3.098131e+003,1.805206e-001
3.099095e+003,4.463013e-001
3.100059e+003,-6.183227e-001
3.101023e+003,-1.779660e+000
3.101988e+003,-2.567722e+000
3.102952e+003,-2.398856e+000
3.103916e+003,-1.365753e+000
3.104880e+003,-1.764859e+000
3.105844e+003,-3.863330e+000
3.106809e+003,-3.227890e+000
3.107773e+003,-3.188019e-001
3.108737e+003,-1.274490e+000
3.109701e+003,-4.191315e+000
3.110666e+003,-4.175870e+000
3.111630e+003,-2.441763e+000
3.112594e+003,-8.539886e-001
3.113558e+003,-1.304718e-001
3.114522e+003,-1.009064e+000
3.115487e+003,-2.343735e+000
3.116451e+003,-2.479138e+000
3.117415e+003,-2.026330e+000
3.118379e+003,-1.644440e+000
3.119344e+003,-1.410574e+000
3.120308e+003,-1.410846e+000
3.121272e+003,-1.712399e+000
3.122236e+003,-2.530914e+000
3.123201e+003,-2.512039e+000
3.124165e+003,-1.265039e+000
3.125129e+003,-5.824860e-001
3.126093e+003,-1.120367e+000
3.127058e+003,-1.300525e+000
3.128022e+003,-3.708679e-001
3.128986e+003,1.821136e-001
3.129950e+003,1.088409e-001
3.130915e+003,-2.230835e-002
3.131879e+003,-2.611633e-001
3.132843e+003,-1.724582e+000
3.133807e+003,-3.694199e+000
3.134771e+003,-3.829071e+000
3.135736e+003,-2.820199e+000
3.136700e+003,-2.679276e+000
3.137664e+003,-3.088568e+000
3.138628e+003,-3.149551e+000
3.139593e+003,-3.186658e+000
3.140557e+003,-4.726157e+000
3.141521e+003,-5.703336e+000
3.142485e+003,-1.105780e+000
3.143449e+003,3.036935e+000
3.144414e+003,1.437067e+000
3.145378e+003,-1.632147e+000
3.146342e+003,-4.864999e+000
3.147306e+003,-5.691824e+000
3.148271e+003,-3.088290e+000
3.149235e+003,-1.395435e+000
3.150199e+003,-3.126181e+000
3.151163e+003,-4.178790e+000
3.152128e+003,-1.914902e+000
3.153092e+003,-1.061523e+000
3.154056e+003,-1.954596e+000
3.155020e+003,-2.201013e+000
3.155985e+003,-1.835370e+000
3.156949e+003,-1.678015e+000
3.157913e+003,-1.845398e+000
3.158877e+003,-2.711166e+000
3.159842e+003,-3.706696e+000
3.160806e+003,-3.126587e+000
3.161770e+003,-1.797061e+000
3.162734e+003,-2.126544e+000
3.163698e+003,-3.103473e+000
3.164663e+003,-2.409787e+000
3.165627e+003,-1.379422e+000
3.166591e+003,-1.125705e+000
3.167555e+003,-1.496365e+000
3.168520e+003,-2.670071e+000
3.169484e+003,-3.196667e+000
3.170448e+003,-2.390006e+000
3.171412e+003,-1.637884e+000
3.172376e+003,-1.761960e+000
3.173341e+003,-1.094656e+000
3.174305e+003,2.290237e+000
3.175269e+003,2.861975e+000
3.176233e+003,-4.042908e-001
3.177198e+003,-2.488061e+000
3.178162e+003,-3.256280e+000
3.179126e+003,-3.864691e+000
3.180090e+003,-4.315362e+000
3.181055e+003,-4.083115e+000
3.182019e+003,-3.332223e+000
3.182983e+003,-2.653653e+000
3.183947e+003,-1.961752e+000
3.184912e+003,-8.576233e-001
3.185876e+003,2.094208e-001
3.186840e+003,1.663757e-001
3.187804e+003,-4.362823e-001
3.188769e+003,-1.283118e+000
3.189733e+003,-2.031818e+000
3.190697e+003,-2.840872e+000
3.191661e+003,-2.427371e+000
3.192625e+003,-2.572083e-001
3.193590e+003,1.379724e+000
3.194554e+003,1.288242e+000
3.195518e+003,5.541992e-002
3.196482e+003,-2.791736e+000
3.197447e+003,-3.070328e+000
3.198411e+003,1.253265e-001
3.199375e+003,2.400757e-001
3.200339e+003,-2.025913e+000
3.201303e+003,-1.112408e+000
3.202268e+003,1.777530e+000
3.203232e+003,2.607828e+000
3.204196e+003,1.899768e+000
3.205160e+003,1.996167e+000
3.206125e+003,2.257767e+000
3.207089e+003,1.356647e+000
3.208053e+003,7.453308e-002
3.209017e+003,-3.522339e-001
3.209982e+003,-3.600891e-001
3.210946e+003,6.098328e-002
3.211910e+003,1.222321e-001
3.212874e+003,-7.006714e-001
3.213839e+003,-3.074555e-001
3.214803e+003,1.779016e+000
3.215767e+003,2.575491e+000
3.216731e+003,9.783905e-001
3.217696e+003,-1.441174e+000
3.218660e+003,-4.609421e+000
3.219624e+003,-4.503586e+000
3.220588e+003,-1.018918e+000
3.221552e+003,1.419067e-001
3.222517e+003,-3.625214e-001
3.223481e+003,-5.868133e-001
3.224445e+003,-5.538880e-001
3.225409e+003,-7.499481e-001
3.226374e+003,-6.133911e-001
3.227338e+003,5.433410e-001
3.228302e+003,2.049652e+000
3.229266e+003,3.257996e+000
3.230230e+003,3.621091e+000
3.231195e+003,1.693515e+000
3.232159e+003,2.268982e-001
3.233123e+003,8.075897e-001
3.234087e+003,1.170480e+000
3.235052e+003,9.831787e-001
3.236016e+003,1.253897e+000
3.236980e+003,2.033646e+000
3.237944e+003,2.249252e+000
3.238909e+003,1.769101e+000
3.239873e+003,1.806119e+000
3.240837e+003,2.298700e+000
3.241801e+003,1.925674e+000
3.242766e+003,9.730835e-001
3.243730e+003,5.177277e-001
3.244694e+003,3.590332e-001
3.245658e+003,1.683197e-001
3.246623e+003,1.381439e-001
3.247587e+003,5.431671e-001
3.248551e+003,8.927704e-001
3.249515e+003,8.752930e-001
3.250479e+003,6.539581e-001
3.251444e+003,2.781891e-001
3.252408e+003,2.122742e-001
3.253372e+003,1.042712e+000
3.254336e+003,1.485681e+000
3.255301e+003,1.473547e+000
3.256265e+003,1.283978e+000
3.257229e+003,1.061768e+000
3.258193e+003,1.167606e+000
3.259157e+003,1.569495e+000
3.260122e+003,2.140234e+000
3.261086e+003,2.833579e+000
3.262050e+003,3.648505e+000
3.263014e+003,4.341278e+000
3.263979e+003,4.281134e+000
3.264943e+003,3.901883e+000
3.265907e+003,3.566153e+000
3.266871e+003,3.389023e+000
3.267836e+003,3.505026e+000
3.268800e+003,3.428448e+000
3.269764e+003,3.056119e+000
3.270728e+003,2.488763e+000
3.271693e+003,1.848868e+000
3.272657e+003,1.731729e+000
3.273621e+003,2.361600e+000
3.274585e+003,3.269037e+000
3.275550e+003,4.465848e+000
3.276514e+003,4.136466e+000
3.277478e+003,3.131512e+000
3.278442e+003,4.371805e+000
3.279406e+003,6.131583e+000
3.280371e+003,5.288434e+000
3.281335e+003,3.882962e+000
3.282299e+003,3.710944e+000
3.283263e+003,4.721423e+000
3.284228e+003,7.116126e+000
3.285192e+003,8.304667e+000
3.286156e+003,4.675531e+000
3.287120e+003,2.371503e+000
3.288084e+003,3.086646e+000
3.289049e+003,4.158231e+000
3.290013e+003,5.252652e+000
3.290977e+003,5.800339e+000
3.291941e+003,5.849317e+000
3.292906e+003,5.663055e+000
3.293870e+003,5.555579e+000
3.294834e+003,6.378003e+000
3.295798e+003,7.388650e+000
3.296763e+003,5.916724e+000
3.297727e+003,4.172275e+000
3.298691e+003,6.547244e+000
3.299655e+003,9.447901e+000
3.300620e+003,1.055238e+001
3.301584e+003,1.048380e+001
3.302548e+003,9.358316e+000
3.303512e+003,7.649100e+000
3.304477e+003,5.823096e+000
3.305441e+003,5.929504e+000
3.306405e+003,8.737513e+000
3.307369e+003,9.571134e+000
3.308333e+003,8.077716e+000
3.309298e+003,7.982248e+000
3.310262e+003,8.845944e+000
3.311226e+003,9.704715e+000
3.312190e+003,1.020508e+001
3.313155e+003,9.555094e+000
3.314119e+003,8.870175e+000
3.315083e+003,9.050726e+000
3.316047e+003,9.441195e+000
3.317011e+003,9.493799e+000
3.317976e+003,9.627240e+000
3.318940e+003,1.020448e+001
3.319904e+003,1.080287e+001
3.320868e+003,1.154928e+001
3.321833e+003,1.102721e+001
3.322797e+003,9.604334e+000
3.323761e+003,1.022254e+001
3.324725e+003,1.222109e+001
3.325690e+003,1.296803e+001
3.326654e+003,1.272377e+001
3.327618e+003,1.285971e+001
3.328582e+003,1.292157e+001
3.329547e+003,1.183521e+001
3.330511e+003,1.066729e+001
3.331475e+003,1.026540e+001
3.332439e+003,1.094720e+001
3.333404e+003,1.350868e+001
3.334368e+003,1.417129e+001
3.335332e+003,1.240391e+001
3.336296e+003,1.210652e+001
3.337260e+003,1.388260e+001
3.338225e+003,1.455279e+001
3.339189e+003,1.344422e+001
3.340153e+003,1.196894e+001
3.341117e+003,1.034118e+001
3.342082e+003,9.681641e+000
3.343046e+003,9.759293e+000
3.344010e+003,1.082463e+001
3.344974e+003,1.167175e+001
3.345938e+003,1.120438e+001
3.346903e+003,1.084713e+001
3.347867e+003,1.126956e+001
3.348831e+003,1.250892e+001
3.349795e+003,1.461570e+001
3.350760e+003,1.599022e+001
3.351724e+003,1.587347e+001
3.352688e+003,1.538140e+001
3.353652e+003,1.459865e+001
3.354617e+003,1.408210e+001
3.355581e+003,1.389459e+001
3.356545e+003,1.445182e+001
3.357509e+003,1.492910e+001
3.358474e+003,1.417982e+001
3.359438e+003,1.339630e+001
3.360402e+003,1.369120e+001
3.361366e+003,1.455291e+001
3.362331e+003,1.577426e+001
3.363295e+003,1.653167e+001
3.364259e+003,1.617855e+001
3.365223e+003,1.666465e+001
3.366188e+003,1.796063e+001
3.367152e+003,1.732601e+001
3.368116e+003,1.545127e+001
3.369080e+003,1.554441e+001
3.370044e+003,1.713854e+001
3.371009e+003,1.779822e+001
3.371973e+003,1.808067e+001
3.372937e+003,1.913584e+001
3.373901e+003,2.019761e+001
3.374865e+003,2.056021e+001
3.375830e+003,2.010217e+001
3.376794e+003,1.852956e+001
3.377758e+003,1.731768e+001
3.378722e+003,1.675359e+001
3.379687e+003,1.648890e+001
3.380651e+003,1.650687e+001
3.381615e+003,1.740550e+001
3.382579e+003,1.894541e+001
3.383544e+003,1.917916e+001
3.384508e+003,1.880309e+001
3.385472e+003,2.101824e+001
3.386436e+003,2.332245e+001
3.387401e+003,2.173775e+001
3.388365e+003,2.042552e+001
3.389329e+003,2.156712e+001
3.390293e+003,2.275270e+001
3.391258e+003,2.301507e+001
3.392222e+003,2.320557e+001
3.393186e+003,2.369416e+001
3.394150e+003,2.376899e+001
3.395115e+003,2.332977e+001
3.396079e+003,2.316135e+001
3.397043e+003,2.320565e+001
3.398007e+003,2.295454e+001
3.398971e+003,2.320466e+001
3.399936e+003,2.580735e+001
3.400900e+003,2.814134e+001
3.401864e+003,2.862458e+001
3.402828e+003,2.810905e+001
3.403792e+003,2.716227e+001
3.404757e+003,2.632370e+001
3.405721e+003,2.564143e+001
3.406685e+003,2.605612e+001
3.407649e+003,2.753506e+001
3.408614e+003,2.863364e+001
3.409578e+003,2.912265e+001
3.410542e+003,2.787411e+001
3.411506e+003,2.658407e+001
3.412471e+003,2.798285e+001
3.413435e+003,3.000933e+001
3.414399e+003,3.069294e+001
3.415363e+003,3.090940e+001
3.416328e+003,3.147044e+001
3.417292e+003,3.184296e+001
3.418256e+003,3.172631e+001
3.419220e+003,3.193014e+001
3.420185e+003,3.245796e+001
3.421149e+003,3.256594e+001
3.422113e+003,3.247580e+001
3.423077e+003,3.327666e+001
3.424042e+003,3.428762e+001
3.425006e+003,3.418201e+001
3.425970e+003,3.360419e+001
3.426934e+003,3.337477e+001
