7.140112e+001,1.148401e+002
7.236536e+001,1.118681e+002
7.332959e+001,1.108150e+002
7.429382e+001,1.123042e+002
7.525806e+001,1.170176e+002
7.622229e+001,1.181877e+002
7.718652e+001,1.106199e+002
7.815076e+001,8.890742e+001
7.911499e+001,7.579379e+001
8.007922e+001,6.951967e+001
8.104346e+001,6.970602e+001
8.200769e+001,7.697250e+001
8.297192e+001,9.727632e+001
8.393616e+001,1.165458e+002
8.490039e+001,1.348091e+002
8.586462e+001,1.493967e+002
8.682886e+001,1.564265e+002
8.779310e+001,1.454215e+002
8.875733e+001,1.276014e+002
8.972157e+001,1.073852e+002
9.068580e+001,8.721995e+001
9.165003e+001,6.851726e+001
9.261427e+001,5.985810e+001
9.357850e+001,5.816621e+001
9.454273e+001,6.027903e+001
9.550697e+001,6.461064e+001
9.647120e+001,7.322466e+001
9.743543e+001,7.578146e+001
9.839967e+001,6.996062e+001
9.936390e+001,6.051500e+001
1.003281e+002,5.280030e+001
1.012924e+002,4.734740e+001
1.022566e+002,4.418000e+001
1.032208e+002,4.437974e+001
1.041851e+002,4.694224e+001
1.051493e+002,4.969168e+001
1.061135e+002,5.146624e+001
1.070778e+002,5.196419e+001
1.080420e+002,5.078700e+001
1.090062e+002,4.787095e+001
1.099705e+002,4.353586e+001
1.109347e+002,3.651194e+001
1.118989e+002,2.869705e+001
1.128632e+002,2.374967e+001
1.138274e+002,2.438477e+001
1.147916e+002,3.183101e+001
1.157559e+002,3.627497e+001
1.167201e+002,3.728715e+001
1.176843e+002,3.672825e+001
1.186486e+002,3.681400e+001
1.196128e+002,3.795982e+001
1.205770e+002,3.916524e+001
1.215413e+002,4.145399e+001
1.225055e+002,4.380219e+001
1.234697e+002,4.405372e+001
1.244340e+002,3.778417e+001
1.253982e+002,3.129181e+001
1.263624e+002,2.538981e+001
1.273267e+002,2.095248e+001
1.282909e+002,1.922104e+001
1.292551e+002,2.652172e+001
1.302194e+002,3.672552e+001
1.311836e+002,4.470896e+001
1.321478e+002,4.713869e+001
1.331121e+002,4.367606e+001
1.340763e+002,3.787992e+001
1.350405e+002,2.948469e+001
1.360048e+002,2.142331e+001
1.369690e+002,1.669560e+001
1.379332e+002,1.702234e+001
1.388975e+002,1.910377e+001
1.398617e+002,2.429059e+001
1.408259e+002,3.053687e+001
1.417902e+002,3.471520e+001
1.427544e+002,3.498322e+001
1.437186e+002,3.329031e+001
1.446829e+002,2.882267e+001
1.456471e+002,2.252421e+001
1.466113e+002,1.657602e+001
1.475756e+002,1.287658e+001
1.485398e+002,1.183616e+001
1.495040e+002,1.644579e+001
1.504683e+002,2.695331e+001
1.514325e+002,4.069968e+001
1.523967e+002,4.068116e+001
1.533610e+002,3.018459e+001
1.543252e+002,1.886686e+001
1.552894e+002,1.379260e+001
1.562537e+002,1.782314e+001
1.572179e+002,1.947946e+001
1.581821e+002,1.637987e+001
1.591464e+002,1.288869e+001
1.601106e+002,1.407716e+001
1.610748e+002,2.624993e+001
1.620391e+002,3.386955e+001
1.630033e+002,3.135259e+001
1.639676e+002,2.288227e+001
1.649318e+002,1.498072e+001
1.658960e+002,1.418003e+001
1.668603e+002,1.608203e+001
1.678245e+002,1.843643e+001
1.687887e+002,2.065876e+001
1.697530e+002,2.268099e+001
1.707172e+002,2.444666e+001
1.716814e+002,2.577642e+001
1.726457e+002,2.597522e+001
1.736099e+002,2.472645e+001
1.745741e+002,2.198188e+001
1.755384e+002,1.832028e+001
1.765026e+002,1.206355e+001
1.774668e+002,6.864301e+000
1.784311e+002,5.228204e+000
1.793953e+002,8.882245e+000
1.803595e+002,1.100064e+001
1.813238e+002,9.476001e+000
1.822880e+002,6.924445e+000
1.832522e+002,5.616540e+000
1.842165e+002,7.627923e+000
1.851807e+002,9.269855e+000
1.861449e+002,7.436072e+000
1.871092e+002,3.649402e+000
1.880734e+002,-2.829773e-001
1.890376e+002,-2.140363e+000
1.900019e+002,-1.757178e+000
1.909661e+002,8.297241e-001
1.919303e+002,5.541443e+000
1.928946e+002,1.131549e+001
1.938588e+002,1.453155e+001
1.948230e+002,1.368411e+001
1.957873e+002,1.354806e+001
1.967515e+002,1.445079e+001
1.977157e+002,1.647469e+001
1.986800e+002,2.086459e+001
1.996442e+002,2.767515e+001
2.006084e+002,3.638253e+001
2.015727e+002,4.991705e+001
2.025369e+002,6.885181e+001
2.035011e+002,8.189673e+001
2.044654e+002,7.875645e+001
2.054296e+002,6.916403e+001
2.063938e+002,5.679410e+001
2.073581e+002,4.427209e+001
2.083223e+002,3.380124e+001
2.092865e+002,2.952694e+001
2.102508e+002,3.021589e+001
2.112150e+002,3.554337e+001
2.121792e+002,4.537148e+001
2.131435e+002,6.164050e+001
2.141077e+002,6.963878e+001
2.150719e+002,6.599382e+001
2.160362e+002,5.724916e+001
2.170004e+002,5.313981e+001
2.179646e+002,5.809183e+001
2.189289e+002,6.209504e+001
2.198931e+002,6.237324e+001
2.208573e+002,6.112311e+001
2.218216e+002,6.279991e+001
2.227858e+002,7.369827e+001
2.237500e+002,8.488203e+001
2.247143e+002,9.562000e+001
2.256785e+002,1.039401e+002
2.266427e+002,1.067345e+002
2.276070e+002,9.330264e+001
2.285712e+002,7.190491e+001
2.295354e+002,5.274153e+001
2.304997e+002,3.886105e+001
2.314639e+002,2.970133e+001
2.324281e+002,2.211871e+001
2.333924e+002,1.587598e+001
2.343566e+002,1.124593e+001
2.353208e+002,8.843714e+000
2.362851e+002,9.113337e+000
2.372493e+002,8.766070e+000
2.382135e+002,7.292066e+000
2.391778e+002,5.582428e+000
2.401420e+002,4.128039e+000
2.411062e+002,3.164685e+000
2.420705e+002,1.867987e+000
2.430347e+002,-1.293018e+000
2.439989e+002,-4.451367e+000
2.449632e+002,-5.874377e+000
2.459274e+002,-4.138971e+000
2.468916e+002,-8.345337e-001
2.478559e+002,6.866150e-001
2.488201e+002,7.949829e-001
2.497843e+002,-1.200012e-001
2.507486e+002,-1.638409e+000
2.517128e+002,-3.969464e+000
2.526770e+002,-4.819885e+000
2.536413e+002,-4.017200e+000
2.546055e+002,-2.190375e+000
2.555697e+002,-2.054077e-001
2.565340e+002,2.691870e+000
2.574982e+002,4.603900e+000
2.584625e+002,5.145502e+000
2.594267e+002,4.841925e+000
2.603909e+002,4.544495e+000
2.613552e+002,4.724945e+000
2.623194e+002,4.745453e+000
2.632836e+002,4.259863e+000
2.642479e+002,3.409015e+000
2.652121e+002,2.518561e+000
2.661763e+002,2.030200e+000
2.671406e+002,1.888373e+000
2.681048e+002,2.082196e+000
2.690690e+002,2.577747e+000
2.700333e+002,3.241931e+000
2.709975e+002,3.569379e+000
2.719617e+002,3.729865e+000
2.729260e+002,3.209338e+000
2.738902e+002,1.300501e+000
2.748544e+002,-1.957257e+000
2.758187e+002,-3.842029e+000
2.767829e+002,-3.441748e+000
2.777471e+002,-2.648206e+000
2.787114e+002,-1.532336e+000
2.796756e+002,-1.808899e-001
2.806398e+002,5.624329e-001
2.816041e+002,-1.123401e+000
2.825683e+002,-2.890216e+000
2.835325e+002,-3.273340e+000
2.844968e+002,-1.709912e+000
2.854610e+002,7.945679e-001
2.864252e+002,1.866211e+000
2.873895e+002,2.085492e+000
2.883537e+002,2.266174e+000
2.893179e+002,2.950110e+000
2.902822e+002,4.233545e+000
2.912464e+002,4.385516e+000
2.922106e+002,3.415546e+000
2.931749e+002,1.845966e+000
2.941391e+002,-2.491699e-001
2.951033e+002,-3.345551e+000
2.960676e+002,-5.612201e+000
2.970318e+002,-6.902716e+000
2.979960e+002,-7.412549e+000
2.989603e+002,-7.193726e+000
2.999245e+002,-6.213495e+000
3.008887e+002,-4.850922e+000
3.018530e+002,-3.425525e+000
3.028172e+002,-1.885754e+000
3.037814e+002,-3.499145e-002
3.047457e+002,2.328363e+000
3.057099e+002,4.813812e+000
3.066741e+002,6.751977e+000
3.076384e+002,8.008850e+000
3.086026e+002,7.625531e+000
3.095668e+002,4.406995e+000
3.105311e+002,-3.155743e+000
3.114953e+002,-7.723419e+000
3.124595e+002,-8.380402e+000
3.134238e+002,-7.141449e+000
3.143880e+002,-6.333789e+000
3.153522e+002,-6.616083e+000
3.163165e+002,-6.387158e+000
3.172807e+002,-5.181030e+000
3.182449e+002,-3.333258e+000
3.192092e+002,-1.127234e+000
3.201734e+002,1.537714e+000
3.211376e+002,3.675006e+000
3.221019e+002,4.588934e+000
3.230661e+002,4.648969e+000
3.240303e+002,4.345410e+000
3.249946e+002,4.201770e+000
3.259588e+002,4.225202e+000
3.269230e+002,4.427765e+000
3.278873e+002,4.816693e+000
3.288515e+002,5.187518e+000
3.298157e+002,5.157214e+000
3.307800e+002,3.989862e+000
3.317442e+002,4.123724e+000
3.327084e+002,6.252051e+000
3.336727e+002,9.332575e+000
3.346369e+002,1.159891e+001
3.356011e+002,1.206137e+001
3.365654e+002,1.259349e+001
3.375296e+002,1.418389e+001
3.384938e+002,1.612133e+001
3.394581e+002,1.699447e+001
3.404223e+002,1.444718e+001
3.413865e+002,1.193215e+001
3.423508e+002,1.267563e+001
3.433150e+002,1.630396e+001
3.442792e+002,2.147611e+001
3.452435e+002,2.613146e+001
3.462077e+002,3.041358e+001
3.471719e+002,3.604757e+001
3.481362e+002,4.272844e+001
3.491004e+002,5.123955e+001
3.500646e+002,6.335038e+001
3.510289e+002,7.763479e+001
3.519931e+002,9.952403e+001
3.529573e+002,1.310171e+002
3.539216e+002,1.695641e+002
3.548858e+002,2.126370e+002
3.558500e+002,2.739615e+002
3.568143e+002,3.173659e+002
3.577785e+002,3.305695e+002
3.587427e+002,3.181678e+002
3.597070e+002,2.878061e+002
3.606712e+002,2.394582e+002
3.616354e+002,1.857267e+002
3.625997e+002,1.417418e+002
3.635639e+002,1.083736e+002
3.645281e+002,8.425629e+001
3.654924e+002,6.691518e+001
3.664566e+002,5.841351e+001
3.674208e+002,4.997189e+001
3.683851e+002,4.069920e+001
3.693493e+002,3.178352e+001
3.703135e+002,2.599466e+001
3.712778e+002,2.689761e+001
3.722420e+002,2.668834e+001
3.732062e+002,2.389934e+001
3.741705e+002,1.988448e+001
3.751347e+002,1.680218e+001
3.760989e+002,1.609761e+001
3.770632e+002,1.620515e+001
3.780274e+002,1.635025e+001
3.789916e+002,1.644215e+001
3.799559e+002,1.657666e+001
3.809201e+002,1.701160e+001
3.818844e+002,1.742302e+001
3.828486e+002,1.684410e+001
3.838128e+002,1.537299e+001
3.847771e+002,1.371241e+001
3.857413e+002,1.291093e+001
3.867055e+002,1.341713e+001
3.876698e+002,1.390043e+001
3.886340e+002,1.332841e+001
3.895982e+002,1.303992e+001
3.905625e+002,1.528923e+001
3.915267e+002,2.296805e+001
3.924909e+002,2.832400e+001
3.934552e+002,2.972680e+001
3.944194e+002,2.866188e+001
3.953836e+002,2.649075e+001
3.963479e+002,2.356350e+001
3.973121e+002,2.079427e+001
3.982763e+002,1.876398e+001
3.992406e+002,1.747562e+001
4.002048e+002,1.692362e+001
4.011690e+002,1.708955e+001
4.021333e+002,1.801276e+001
4.030975e+002,1.967825e+001
4.040617e+002,2.211542e+001
4.050260e+002,2.464203e+001
4.059902e+002,2.639051e+001
4.069544e+002,2.651521e+001
4.079187e+002,2.840027e+001
4.088829e+002,3.232594e+001
4.098471e+002,3.720409e+001
4.108114e+002,4.193069e+001
4.117756e+002,4.580217e+001
4.127398e+002,5.188279e+001
4.137041e+002,6.467591e+001
4.146683e+002,7.750464e+001
4.156325e+002,8.566923e+001
4.165968e+002,8.668218e+001
4.175610e+002,8.251266e+001
4.185252e+002,7.466488e+001
4.194895e+002,6.530780e+001
4.204537e+002,5.684814e+001
4.214179e+002,5.084867e+001
4.223822e+002,4.729403e+001
4.233464e+002,4.647161e+001
4.243106e+002,4.842341e+001
4.252749e+002,5.062302e+001
4.262391e+002,5.076832e+001
4.272033e+002,4.831118e+001
4.281676e+002,5.140887e+001
4.291318e+002,6.273685e+001
4.300960e+002,7.689415e+001
4.310603e+002,9.203181e+001
4.320245e+002,1.078132e+002
4.329887e+002,1.258922e+002
4.339530e+002,1.487978e+002
4.349172e+002,1.739963e+002
4.358814e+002,2.039892e+002
4.368457e+002,2.368916e+002
4.378099e+002,2.670205e+002
4.387741e+002,2.827325e+002
4.397384e+002,2.853731e+002
4.407026e+002,2.778228e+002
4.416668e+002,2.596936e+002
4.426311e+002,2.340669e+002
4.435953e+002,2.112740e+002
4.445595e+002,1.926870e+002
4.455238e+002,1.757385e+002
4.464880e+002,1.593088e+002
4.474522e+002,1.445275e+002
4.484165e+002,1.345288e+002
4.493807e+002,1.349226e+002
4.503449e+002,1.342682e+002
4.513092e+002,1.293045e+002
4.522734e+002,1.209515e+002
4.532376e+002,1.106939e+002
4.542019e+002,9.921897e+001
4.551661e+002,8.753771e+001
4.561303e+002,7.597628e+001
4.570946e+002,6.522025e+001
4.580588e+002,5.673762e+001
4.590230e+002,5.217387e+001
4.599873e+002,5.199264e+001
4.609515e+002,5.146658e+001
4.619157e+002,5.024545e+001
4.628800e+002,4.920466e+001
4.638442e+002,4.892134e+001
4.648084e+002,4.909443e+001
4.657727e+002,5.131226e+001
4.667369e+002,5.696352e+001
4.677011e+002,6.310839e+001
4.686654e+002,6.826433e+001
4.696296e+002,7.200474e+001
4.705938e+002,7.410921e+001
4.715581e+002,7.445118e+001
4.725223e+002,7.327651e+001
4.734865e+002,7.021632e+001
4.744508e+002,6.538833e+001
4.754150e+002,5.960699e+001
4.763792e+002,5.461686e+001
4.773435e+002,5.022385e+001
4.783077e+002,4.611048e+001
4.792719e+002,4.216888e+001
4.802362e+002,3.850986e+001
4.812004e+002,3.567369e+001
4.821646e+002,3.445047e+001
4.831289e+002,3.297293e+001
4.840931e+002,3.081544e+001
4.850573e+002,2.817173e+001
4.860216e+002,2.558572e+001
4.869858e+002,2.305742e+001
4.879500e+002,2.135559e+001
4.889143e+002,2.131542e+001
4.898785e+002,2.205048e+001
4.908427e+002,2.207265e+001
4.918070e+002,1.977916e+001
4.927712e+002,1.683436e+001
4.937354e+002,1.589320e+001
4.946997e+002,1.660441e+001
4.956639e+002,1.817517e+001
4.966281e+002,1.983199e+001
4.975924e+002,2.159045e+001
4.985566e+002,2.270709e+001
4.995208e+002,2.219409e+001
5.004851e+002,2.252150e+001
5.014493e+002,2.614949e+001
5.024135e+002,3.422212e+001
5.033778e+002,4.009727e+001
5.043420e+002,4.152934e+001
5.053063e+002,4.266545e+001
5.062705e+002,4.637566e+001
5.072347e+002,5.272264e+001
5.081990e+002,5.704988e+001
5.091632e+002,5.217643e+001
5.101274e+002,4.489020e+001
5.110917e+002,3.883910e+001
5.120559e+002,3.489744e+001
5.130201e+002,3.193529e+001
5.139844e+002,2.756924e+001
5.149486e+002,2.195225e+001
5.159128e+002,1.765671e+001
5.168771e+002,1.535752e+001
5.178413e+002,1.405333e+001
5.188055e+002,1.140613e+001
5.197698e+002,4.976410e+000
5.207340e+002,1.102655e+000
5.216982e+002,1.470697e+000
5.226625e+002,3.456494e+000
5.236267e+002,4.079083e+000
5.245909e+002,1.998120e+000
5.255552e+002,-1.419739e-001
5.265194e+002,-8.666626e-001
5.274836e+002,-1.007764e+000
5.284479e+002,-1.301776e+000
5.294121e+002,-2.131622e+000
5.303763e+002,-3.074982e+000
5.313406e+002,-3.181799e+000
5.323048e+002,-2.786499e+000
5.332690e+002,-2.248285e+000
5.342333e+002,-1.699548e+000
5.351975e+002,-1.214594e+000
5.361617e+002,-1.506281e+000
5.371260e+002,-3.744012e+000
5.380902e+002,-4.908465e+000
5.390544e+002,-3.985669e+000
5.400187e+002,-1.590863e+000
5.409829e+002,3.878784e-001
5.419471e+002,1.512903e+000
5.429114e+002,2.271710e+000
5.438756e+002,2.780994e+000
5.448398e+002,3.000647e+000
5.458041e+002,2.792963e+000
5.467683e+002,1.957971e+000
5.477325e+002,9.776734e-001
5.486968e+002,5.088928e-001
5.496610e+002,4.048767e-001
5.506252e+002,3.558960e-001
5.515895e+002,1.035400e-001
5.525537e+002,-3.389526e-001
5.535179e+002,2.508118e-001
5.544822e+002,2.438623e+000
5.554464e+002,4.036817e+000
5.564106e+002,3.613995e+000
5.573749e+002,1.105396e+000
5.583391e+002,-9.983826e-001
5.593033e+002,-2.184338e+000
5.602676e+002,-3.075525e+000
5.612318e+002,-3.958307e+000
5.621960e+002,-4.707642e+000
5.631603e+002,-4.829370e+000
5.641245e+002,-3.453046e+000
5.650887e+002,-1.859717e+000
5.660530e+002,-1.042169e+000
5.670172e+002,-9.209045e-001
5.679814e+002,-1.273199e+000
5.689457e+002,-1.906189e+000
5.699099e+002,-2.698718e+000
5.708741e+002,-2.114746e+000
5.718384e+002,1.935364e-001
5.728026e+002,2.103662e+000
5.737668e+002,1.459393e+000
5.747311e+002,-2.583130e+000
5.756953e+002,-5.055054e+000
5.766595e+002,-4.931720e+000
5.776238e+002,-4.530438e+000
5.785880e+002,-4.868756e+000
5.795522e+002,-5.896430e+000
5.805165e+002,-6.471765e+000
5.814807e+002,-5.003808e+000
5.824449e+002,-3.536762e+000
5.834092e+002,-3.324188e+000
5.843734e+002,-4.201922e+000
5.853376e+002,-5.443506e+000
5.863019e+002,-6.290283e+000
5.872661e+002,-6.557190e+000
5.882303e+002,-5.808960e+000
5.891946e+002,-3.997925e+000
5.901588e+002,-2.157611e+000
5.911230e+002,-1.426245e+000
5.920873e+002,-2.217560e+000
5.930515e+002,-2.602454e+000
5.940157e+002,-1.989484e+000
5.949800e+002,-1.646368e+000
5.959442e+002,-2.500195e+000
5.969084e+002,-4.543396e+000
5.978727e+002,-6.184686e+000
5.988369e+002,-6.408002e+000
5.998011e+002,-6.063910e+000
6.007654e+002,-5.017322e+000
6.017296e+002,-3.628522e+000
6.026938e+002,-2.636353e+000
6.036581e+002,-3.038489e+000
6.046223e+002,-4.284436e+000
6.055865e+002,-4.529920e+000
6.065508e+002,-3.790881e+000
6.075150e+002,-2.670575e+000
6.084792e+002,-1.798749e+000
6.094435e+002,-1.188025e+000
6.104077e+002,-6.929260e-001
6.113719e+002,-1.585876e-001
6.123362e+002,6.972656e-002
6.133004e+002,-6.642822e-001
6.142646e+002,-2.324317e+000
6.152289e+002,-2.850555e+000
6.161931e+002,4.060486e-001
6.171573e+002,3.362024e+000
6.181216e+002,4.282983e+000
6.190858e+002,3.617279e+000
6.200500e+002,2.909082e+000
6.210143e+002,3.549994e+000
6.219785e+002,5.134338e+000
6.229427e+002,6.617468e+000
6.239070e+002,8.011724e+000
6.248712e+002,9.537378e+000
6.258354e+002,1.146772e+001
6.267997e+002,1.397972e+001
6.277639e+002,1.589059e+001
6.287281e+002,1.738631e+001
6.296924e+002,1.813644e+001
6.306566e+002,1.765510e+001
6.316208e+002,1.607028e+001
6.325851e+002,1.479200e+001
6.335493e+002,1.437167e+001
6.345135e+002,1.438491e+001
6.354778e+002,1.489019e+001
6.364420e+002,1.568019e+001
6.374063e+002,1.652740e+001
6.383705e+002,1.738000e+001
6.393347e+002,1.788142e+001
6.402990e+002,1.769404e+001
6.412632e+002,1.692953e+001
6.422274e+002,1.562697e+001
6.431917e+002,1.377491e+001
6.441559e+002,1.140240e+001
6.451201e+002,9.992407e+000
6.460844e+002,1.001379e+001
6.470486e+002,9.863403e+000
6.480128e+002,8.904938e+000
6.489771e+002,7.364295e+000
6.499413e+002,6.187634e+000
6.509055e+002,5.779449e+000
6.518698e+002,5.420245e+000
6.528340e+002,4.849103e+000
6.537982e+002,4.290735e+000
6.547625e+002,4.034986e+000
6.557267e+002,4.250567e+000
6.566909e+002,4.728412e+000
6.576552e+002,5.422784e+000
6.586194e+002,6.060998e+000
6.595836e+002,6.062622e+000
6.605479e+002,5.197742e+000
6.615121e+002,3.888812e+000
6.624763e+002,3.820026e+000
6.634406e+002,5.560870e+000
6.644048e+002,7.043653e+000
6.653690e+002,8.225385e+000
6.663333e+002,8.830615e+000
6.672975e+002,8.177228e+000
6.682617e+002,5.185272e+000
6.692260e+002,3.414789e+000
6.701902e+002,4.224383e+000
6.711544e+002,5.930597e+000
6.721187e+002,7.352527e+000
6.730829e+002,8.007886e+000
6.740471e+002,8.043836e+000
6.750114e+002,6.756598e+000
6.759756e+002,5.450879e+000
6.769398e+002,5.964380e+000
6.779041e+002,8.479090e+000
6.788683e+002,1.156921e+001
6.798325e+002,1.263907e+001
6.807968e+002,1.094587e+001
6.817610e+002,9.692108e+000
6.827252e+002,8.930158e+000
6.836895e+002,8.527899e+000
6.846537e+002,8.411505e+000
6.856179e+002,8.597669e+000
6.865822e+002,8.837995e+000
6.875464e+002,9.343908e+000
6.885106e+002,9.657618e+000
6.894749e+002,9.126086e+000
6.904391e+002,8.110540e+000
6.914034e+002,7.884888e+000
6.923676e+002,1.009034e+001
6.933318e+002,1.319338e+001
6.942961e+002,1.507852e+001
6.952603e+002,1.585161e+001
6.962245e+002,1.604669e+001
6.971888e+002,1.613005e+001
6.981530e+002,1.606762e+001
6.991172e+002,1.568204e+001
7.000815e+002,1.414749e+001
7.010457e+002,1.366873e+001
7.020099e+002,1.581571e+001
7.029742e+002,1.997784e+001
7.039384e+002,2.305259e+001
7.049026e+002,2.366105e+001
7.058669e+002,2.397306e+001
7.068311e+002,2.448591e+001
7.077953e+002,2.507742e+001
7.087596e+002,2.563480e+001
7.097238e+002,2.614735e+001
7.106880e+002,2.645511e+001
7.116523e+002,2.603899e+001
7.126165e+002,2.518473e+001
7.135807e+002,2.427292e+001
7.145450e+002,2.349157e+001
7.155092e+002,2.294692e+001
7.164734e+002,2.286447e+001
7.174377e+002,2.385128e+001
7.184019e+002,2.381343e+001
7.193661e+002,2.210388e+001
7.203304e+002,1.971208e+001
7.212946e+002,1.748090e+001
7.222589e+002,1.535730e+001
7.232231e+002,1.426752e+001
7.241873e+002,1.531864e+001
7.251516e+002,1.662847e+001
7.261158e+002,1.718008e+001
7.270800e+002,1.688491e+001
7.280443e+002,1.633273e+001
7.290085e+002,1.607855e+001
7.299727e+002,1.615546e+001
7.309370e+002,1.664235e+001
7.319012e+002,1.745261e+001
7.328654e+002,1.811957e+001
7.338297e+002,1.824453e+001
7.347939e+002,1.782418e+001
7.357581e+002,1.654694e+001
7.367224e+002,1.311563e+001
7.376866e+002,1.058603e+001
7.386508e+002,1.023567e+001
7.396151e+002,1.139250e+001
7.405793e+002,1.216813e+001
7.415435e+002,1.180926e+001
7.425078e+002,1.154429e+001
7.434720e+002,1.186765e+001
7.444362e+002,1.247200e+001
7.454005e+002,1.299425e+001
7.463647e+002,1.328952e+001
7.473289e+002,1.362390e+001
7.482932e+002,1.487551e+001
7.492574e+002,1.661648e+001
7.502216e+002,1.750201e+001
7.511859e+002,1.712485e+001
7.521501e+002,1.612613e+001
7.531143e+002,1.574642e+001
7.540786e+002,1.647667e+001
7.550428e+002,1.680272e+001
7.560070e+002,1.644491e+001
7.569713e+002,1.602059e+001
7.579355e+002,1.562537e+001
7.588997e+002,1.534319e+001
7.598640e+002,1.585731e+001
7.608282e+002,1.888754e+001
7.617924e+002,2.156138e+001
7.627567e+002,2.204471e+001
7.637209e+002,2.098729e+001
7.646851e+002,1.974016e+001
7.656494e+002,1.937935e+001
7.666136e+002,1.976520e+001
7.675778e+002,2.048551e+001
7.685421e+002,2.150378e+001
7.695063e+002,2.261084e+001
7.704705e+002,2.389299e+001
7.714348e+002,2.514715e+001
7.723990e+002,2.547499e+001
7.733632e+002,2.368933e+001
7.743275e+002,2.271804e+001
7.752917e+002,2.343301e+001
7.762559e+002,2.459663e+001
7.772202e+002,2.483525e+001
7.781844e+002,2.379079e+001
7.791486e+002,2.318228e+001
7.801129e+002,2.583601e+001
7.810771e+002,2.870037e+001
7.820413e+002,2.926404e+001
7.830056e+002,2.775532e+001
7.839698e+002,2.621045e+001
7.849340e+002,2.699879e+001
7.858983e+002,2.998879e+001
7.868625e+002,3.126464e+001
7.878267e+002,3.037548e+001
7.887910e+002,2.962502e+001
7.897552e+002,3.031680e+001
7.907194e+002,3.232521e+001
7.916837e+002,3.449519e+001
7.926479e+002,3.747561e+001
7.936121e+002,3.948645e+001
7.945764e+002,3.982640e+001
7.955406e+002,3.921731e+001
7.965048e+002,3.815510e+001
7.974691e+002,3.689136e+001
7.984333e+002,3.634639e+001
7.993975e+002,3.819650e+001
8.003618e+002,4.117744e+001
8.013260e+002,4.439518e+001
8.022902e+002,4.755275e+001
8.032545e+002,5.034668e+001
8.042187e+002,5.232073e+001
8.051829e+002,5.323476e+001
8.061472e+002,5.500184e+001
8.071114e+002,5.825094e+001
8.080756e+002,6.134782e+001
8.090399e+002,6.281916e+001
8.100041e+002,6.314675e+001
8.109683e+002,6.553728e+001
8.119326e+002,7.235933e+001
8.128968e+002,7.949317e+001
8.138610e+002,8.536344e+001
8.148253e+002,9.065536e+001
8.157895e+002,9.618092e+001
8.167537e+002,1.023979e+002
8.177180e+002,1.090682e+002
8.186822e+002,1.162932e+002
8.196464e+002,1.236587e+002
8.206107e+002,1.302347e+002
8.215749e+002,1.357587e+002
8.225391e+002,1.401139e+002
8.235034e+002,1.432025e+002
8.244676e+002,1.451752e+002
8.254318e+002,1.448794e+002
8.263961e+002,1.417060e+002
8.273603e+002,1.380619e+002
8.283245e+002,1.352610e+002
8.292888e+002,1.328780e+002
8.302530e+002,1.290506e+002
8.312172e+002,1.220140e+002
8.321815e+002,1.148292e+002
8.331457e+002,1.099417e+002
8.341099e+002,1.062719e+002
8.350742e+002,1.020756e+002
8.360384e+002,9.657497e+001
8.370026e+002,9.075085e+001
8.379669e+002,8.695253e+001
8.389311e+002,8.527448e+001
8.398953e+002,8.363395e+001
8.408596e+002,8.223746e+001
8.418238e+002,8.030554e+001
8.427880e+002,7.658154e+001
8.437523e+002,7.051521e+001
8.447165e+002,6.561292e+001
8.456807e+002,6.245516e+001
8.466450e+002,6.032431e+001
8.476092e+002,5.959426e+001
8.485734e+002,5.957516e+001
8.495377e+002,5.912193e+001
8.505019e+002,5.761257e+001
8.514661e+002,5.551310e+001
8.524304e+002,5.289642e+001
8.533946e+002,5.031317e+001
8.543588e+002,4.891206e+001
8.553231e+002,4.907742e+001
8.562873e+002,5.007278e+001
8.572515e+002,5.028642e+001
8.582158e+002,4.953248e+001
8.591800e+002,4.828381e+001
8.601442e+002,4.529677e+001
8.611085e+002,4.294153e+001
8.620727e+002,4.348523e+001
8.630369e+002,4.671058e+001
8.640012e+002,4.887860e+001
8.649654e+002,4.782214e+001
8.659296e+002,4.639126e+001
8.668939e+002,4.555590e+001
8.678581e+002,4.526769e+001
8.688223e+002,4.545111e+001
8.697866e+002,4.602226e+001
8.707508e+002,4.668196e+001
8.717150e+002,4.669222e+001
8.726793e+002,4.620764e+001
8.736435e+002,4.616415e+001
8.746077e+002,4.691738e+001
8.755720e+002,4.755308e+001
8.765362e+002,4.666772e+001
8.775004e+002,4.373981e+001
8.784647e+002,4.161357e+001
8.794289e+002,4.119179e+001
8.803931e+002,4.046679e+001
8.813574e+002,3.840307e+001
8.823216e+002,3.562016e+001
8.832858e+002,3.343472e+001
8.842501e+002,3.253027e+001
8.852143e+002,3.228404e+001
8.861785e+002,3.272121e+001
8.871428e+002,3.293561e+001
8.881070e+002,3.129680e+001
8.890712e+002,2.766288e+001
8.900355e+002,2.380886e+001
8.909997e+002,2.264159e+001
8.919639e+002,2.467759e+001
8.929282e+002,2.612501e+001
8.938924e+002,2.696354e+001
8.948566e+002,2.736858e+001
8.958209e+002,2.747392e+001
8.967851e+002,2.723798e+001
8.977493e+002,2.639271e+001
8.987136e+002,2.439860e+001
8.996778e+002,2.245429e+001
9.006420e+002,2.061267e+001
9.016063e+002,1.930989e+001
9.025705e+002,1.945026e+001
9.035347e+002,2.097822e+001
9.044990e+002,2.232526e+001
9.054632e+002,2.119460e+001
9.064274e+002,1.816512e+001
9.073917e+002,1.641251e+001
9.083559e+002,1.607372e+001
9.093201e+002,1.593489e+001
9.102844e+002,1.502679e+001
9.112486e+002,1.338908e+001
9.122128e+002,1.195545e+001
9.131771e+002,1.038998e+001
9.141413e+002,9.589398e+000
9.151055e+002,1.034916e+001
9.160698e+002,1.146510e+001
9.170340e+002,1.162952e+001
9.179982e+002,1.055740e+001
9.189625e+002,9.391742e+000
9.199267e+002,9.297388e+000
9.208909e+002,9.417633e+000
9.218552e+002,8.867566e+000
9.228194e+002,7.775506e+000
9.237836e+002,6.627923e+000
9.247479e+002,5.803662e+000
9.257121e+002,5.322186e+000
9.266763e+002,5.345191e+000
9.276406e+002,6.340314e+000
9.286048e+002,6.738501e+000
9.295690e+002,5.921075e+000
9.305333e+002,4.748950e+000
9.314975e+002,4.195367e+000
9.324617e+002,4.376813e+000
9.334260e+002,4.648041e+000
9.343902e+002,5.004816e+000
9.353545e+002,5.135114e+000
9.363187e+002,4.307037e+000
9.372830e+002,3.245557e+000
9.382472e+002,3.534570e+000
9.392114e+002,6.130328e+000
9.401757e+002,9.635321e+000
9.411399e+002,1.025986e+001
9.421041e+002,8.440875e+000
9.430684e+002,7.250836e+000
9.440326e+002,7.280548e+000
9.449968e+002,7.896246e+000
9.459611e+002,8.451569e+000
9.469253e+002,9.038452e+000
9.478895e+002,9.423864e+000
9.488538e+002,9.549487e+000
9.498180e+002,9.441394e+000
9.507822e+002,8.803601e+000
9.517465e+002,7.998334e+000
9.527107e+002,7.474378e+000
9.536749e+002,7.425622e+000
9.546392e+002,7.898505e+000
9.556034e+002,9.430029e+000
9.565676e+002,1.124678e+001
9.575319e+002,1.241680e+001
9.584961e+002,1.286619e+001
9.594603e+002,1.289937e+001
9.604246e+002,1.272794e+001
9.613888e+002,1.231580e+001
9.623530e+002,1.275799e+001
9.633173e+002,1.408848e+001
9.642815e+002,1.617754e+001
9.652457e+002,1.895414e+001
9.662100e+002,2.264025e+001
9.671742e+002,2.711149e+001
9.681384e+002,3.224099e+001
9.691027e+002,3.945760e+001
9.700669e+002,5.052779e+001
9.710311e+002,6.356976e+001
9.719954e+002,8.109792e+001
9.729596e+002,9.953153e+001
9.739238e+002,1.116818e+002
9.748881e+002,1.126762e+002
9.758523e+002,1.043929e+002
9.768165e+002,9.202884e+001
9.777808e+002,7.425218e+001
9.787450e+002,5.995168e+001
9.797092e+002,5.096515e+001
9.806735e+002,4.501042e+001
9.816377e+002,4.012289e+001
9.826019e+002,3.631452e+001
9.835662e+002,3.390735e+001
9.845304e+002,3.463318e+001
9.854946e+002,3.494191e+001
9.864589e+002,3.285706e+001
9.874231e+002,3.003289e+001
9.883873e+002,2.858823e+001
9.893516e+002,2.924320e+001
9.903158e+002,3.088244e+001
9.912800e+002,3.208612e+001
9.922443e+002,3.317687e+001
9.932085e+002,3.493306e+001
9.941727e+002,3.738212e+001
9.951370e+002,4.075887e+001
9.961012e+002,4.446955e+001
9.970654e+002,4.876020e+001
9.980297e+002,5.669590e+001
9.989939e+002,6.782689e+001
9.999581e+002,8.453410e+001
1.000922e+003,1.007847e+002
1.001887e+003,1.271809e+002
1.002851e+003,1.761550e+002
1.003815e+003,2.448350e+002
1.004779e+003,3.198012e+002
1.005744e+003,4.031938e+002
1.006708e+003,4.653514e+002
1.007672e+003,4.590327e+002
1.008636e+003,4.035228e+002
1.009600e+003,3.358775e+002
1.010565e+003,2.714941e+002
1.011529e+003,2.129461e+002
1.012493e+003,1.665545e+002
1.013457e+003,1.348246e+002
1.014422e+003,1.096416e+002
1.015386e+003,9.162950e+001
1.016350e+003,7.749654e+001
1.017314e+003,6.688441e+001
1.018279e+003,5.888972e+001
1.019243e+003,5.223423e+001
1.020207e+003,4.663590e+001
1.021171e+003,4.198248e+001
1.022135e+003,3.875270e+001
1.023100e+003,3.607250e+001
1.024064e+003,3.316685e+001
1.025028e+003,2.996480e+001
1.025992e+003,2.687979e+001
1.026957e+003,2.428930e+001
1.027921e+003,2.219940e+001
1.028885e+003,2.032003e+001
1.029849e+003,1.842831e+001
1.030814e+003,1.728114e+001
1.031778e+003,1.726431e+001
1.032742e+003,1.763449e+001
1.033706e+003,1.760867e+001
1.034671e+003,1.722875e+001
1.035635e+003,1.757906e+001
1.036599e+003,2.002833e+001
1.037563e+003,2.204359e+001
1.038527e+003,2.207441e+001
1.039492e+003,2.094821e+001
1.040456e+003,1.949217e+001
1.041420e+003,1.820880e+001
1.042384e+003,1.748346e+001
1.043349e+003,1.796404e+001
1.044313e+003,1.962748e+001
1.045277e+003,2.080907e+001
1.046241e+003,2.162291e+001
1.047206e+003,2.175444e+001
1.048170e+003,2.061896e+001
1.049134e+003,1.878396e+001
1.050098e+003,1.767392e+001
1.051063e+003,1.764106e+001
1.052027e+003,1.773659e+001
1.052991e+003,1.763532e+001
1.053955e+003,1.741873e+001
1.054919e+003,1.699483e+001
1.055884e+003,1.651633e+001
1.056848e+003,1.637437e+001
1.057812e+003,1.683472e+001
1.058776e+003,1.751589e+001
1.059741e+003,1.735720e+001
1.060705e+003,1.646830e+001
1.061669e+003,1.622349e+001
1.062633e+003,1.698882e+001
1.063598e+003,1.773886e+001
1.064562e+003,1.747626e+001
1.065526e+003,1.633058e+001
1.066490e+003,1.546536e+001
1.067454e+003,1.477391e+001
1.068419e+003,1.469060e+001
1.069383e+003,1.588756e+001
1.070347e+003,1.708764e+001
1.071311e+003,1.700238e+001
1.072276e+003,1.583380e+001
1.073240e+003,1.508485e+001
1.074204e+003,1.599612e+001
1.075168e+003,1.774478e+001
1.076133e+003,1.838792e+001
1.077097e+003,1.820400e+001
1.078061e+003,1.809890e+001
1.079025e+003,1.838308e+001
1.079990e+003,1.873212e+001
1.080954e+003,1.848390e+001
1.081918e+003,1.741065e+001
1.082882e+003,1.736197e+001
1.083846e+003,1.968128e+001
1.084811e+003,2.151822e+001
1.085775e+003,2.222686e+001
1.086739e+003,2.222932e+001
1.087703e+003,2.190034e+001
1.088668e+003,2.144281e+001
1.089632e+003,2.112180e+001
1.090596e+003,2.120065e+001
1.091560e+003,2.136795e+001
1.092525e+003,2.092754e+001
1.093489e+003,2.002806e+001
1.094453e+003,1.940218e+001
1.095417e+003,1.942845e+001
1.096381e+003,1.983072e+001
1.097346e+003,1.998515e+001
1.098310e+003,1.970041e+001
1.099274e+003,1.985439e+001
1.100238e+003,2.076444e+001
1.101203e+003,2.176610e+001
1.102167e+003,2.297359e+001
1.103131e+003,2.396578e+001
1.104095e+003,2.398939e+001
1.105060e+003,2.289744e+001
1.106024e+003,2.184020e+001
1.106988e+003,2.183223e+001
1.107952e+003,2.264423e+001
1.108917e+003,2.416309e+001
1.109881e+003,2.604787e+001
1.110845e+003,2.698044e+001
1.111809e+003,2.616794e+001
1.112773e+003,2.430256e+001
1.113738e+003,2.307175e+001
1.114702e+003,2.282972e+001
1.115666e+003,2.245134e+001
1.116630e+003,2.116323e+001
1.117595e+003,2.056211e+001
1.118559e+003,2.190478e+001
1.119523e+003,2.398296e+001
1.120487e+003,2.479704e+001
1.121452e+003,2.383117e+001
1.122416e+003,2.288096e+001
1.123380e+003,2.357923e+001
1.124344e+003,2.504760e+001
1.125308e+003,2.620483e+001
1.126273e+003,2.708724e+001
1.127237e+003,2.794500e+001
1.128201e+003,2.893243e+001
1.129165e+003,2.977769e+001
1.130130e+003,2.971005e+001
1.131094e+003,2.805114e+001
1.132058e+003,2.742356e+001
1.133022e+003,2.883525e+001
1.133987e+003,2.988907e+001
1.134951e+003,2.941901e+001
1.135915e+003,2.838143e+001
1.136879e+003,2.825704e+001
1.137844e+003,2.939145e+001
1.138808e+003,3.068766e+001
1.139772e+003,3.133527e+001
1.140736e+003,3.138809e+001
1.141700e+003,3.105005e+001
1.142665e+003,3.042563e+001
1.143629e+003,2.942067e+001
1.144593e+003,2.792198e+001
1.145557e+003,2.697319e+001
1.146522e+003,2.894778e+001
1.147486e+003,3.514152e+001
1.148450e+003,3.837207e+001
1.149414e+003,3.689014e+001
1.150379e+003,3.521450e+001
1.151343e+003,3.405826e+001
1.152307e+003,3.355688e+001
1.153271e+003,3.399423e+001
1.154235e+003,3.524406e+001
1.155200e+003,3.632090e+001
1.156164e+003,3.668290e+001
1.157128e+003,3.643147e+001
1.158092e+003,3.541141e+001
1.159057e+003,3.396650e+001
1.160021e+003,3.288216e+001
1.160985e+003,3.242820e+001
1.161949e+003,3.269579e+001
1.162914e+003,3.396307e+001
1.163878e+003,3.639481e+001
1.164842e+003,3.867078e+001
1.165806e+003,4.054839e+001
1.166771e+003,4.250495e+001
1.167735e+003,4.543937e+001
1.168699e+003,4.786356e+001
1.169663e+003,4.783027e+001
1.170627e+003,4.573123e+001
1.171592e+003,4.431780e+001
1.172556e+003,4.541048e+001
1.173520e+003,4.757830e+001
1.174484e+003,4.876040e+001
1.175449e+003,4.932735e+001
1.176413e+003,4.990305e+001
1.177377e+003,5.060725e+001
1.178341e+003,5.150724e+001
1.179306e+003,5.272350e+001
1.180270e+003,5.427532e+001
1.181234e+003,5.592509e+001
1.182198e+003,5.772718e+001
1.183162e+003,5.942060e+001
1.184127e+003,6.177646e+001
1.185091e+003,6.323823e+001
1.186055e+003,6.231876e+001
1.187019e+003,5.991667e+001
1.187984e+003,5.814887e+001
1.188948e+003,5.794634e+001
1.189912e+003,5.811850e+001
1.190876e+003,5.717103e+001
1.191841e+003,5.552838e+001
1.192805e+003,5.427282e+001
1.193769e+003,5.346644e+001
1.194733e+003,5.258575e+001
1.195698e+003,5.110297e+001
1.196662e+003,4.943637e+001
1.197626e+003,4.889212e+001
1.198590e+003,4.994632e+001
1.199554e+003,5.028478e+001
1.200519e+003,4.874247e+001
1.201483e+003,4.764049e+001
1.202447e+003,4.850217e+001
1.203411e+003,4.980505e+001
1.204376e+003,4.906683e+001
1.205340e+003,4.602198e+001
1.206304e+003,4.338758e+001
1.207268e+003,4.392125e+001
1.208233e+003,4.646397e+001
1.209197e+003,4.701321e+001
1.210161e+003,4.579003e+001
1.211125e+003,4.494234e+001
1.212089e+003,4.498420e+001
1.213054e+003,4.550616e+001
1.214018e+003,4.664739e+001
1.214982e+003,4.836384e+001
1.215946e+003,4.830225e+001
1.216911e+003,4.425942e+001
1.217875e+003,4.200612e+001
1.218839e+003,4.452698e+001
1.219803e+003,4.784496e+001
1.220768e+003,4.933649e+001
1.221732e+003,4.911821e+001
1.222696e+003,4.834074e+001
1.223660e+003,4.767445e+001
1.224625e+003,4.714653e+001
1.225589e+003,4.675040e+001
1.226553e+003,4.647951e+001
1.227517e+003,4.721448e+001
1.228481e+003,4.964328e+001
1.229446e+003,5.147472e+001
1.230410e+003,5.152204e+001
1.231374e+003,5.039565e+001
1.232338e+003,4.882616e+001
1.233303e+003,4.683641e+001
1.234267e+003,4.571853e+001
1.235231e+003,4.647855e+001
1.236195e+003,4.744009e+001
1.237160e+003,4.730602e+001
1.238124e+003,4.693571e+001
1.239088e+003,4.780478e+001
1.240052e+003,4.992468e+001
1.241016e+003,5.167060e+001
1.241981e+003,5.145202e+001
1.242945e+003,4.974804e+001
1.243909e+003,4.882435e+001
1.244873e+003,4.917739e+001
1.245838e+003,4.929789e+001
1.246802e+003,4.861614e+001
1.247766e+003,4.827598e+001
1.248730e+003,4.930990e+001
1.249695e+003,5.105830e+001
1.250659e+003,5.210838e+001
1.251623e+003,5.213470e+001
1.252587e+003,5.158620e+001
1.253552e+003,5.023372e+001
1.254516e+003,4.890571e+001
1.255480e+003,4.847886e+001
1.256444e+003,4.872374e+001
1.257408e+003,4.907806e+001
1.258373e+003,4.932955e+001
1.259337e+003,4.971017e+001
1.260301e+003,5.060656e+001
1.261265e+003,5.206521e+001
1.262230e+003,5.304808e+001
1.263194e+003,5.264709e+001
1.264158e+003,5.278758e+001
1.265122e+003,5.407172e+001
1.266087e+003,5.549660e+001
1.267051e+003,5.668859e+001
1.268015e+003,5.748092e+001
1.268979e+003,5.751236e+001
1.269943e+003,5.660432e+001
1.270908e+003,5.553361e+001
1.271872e+003,5.499148e+001
1.272836e+003,5.499363e+001
1.273800e+003,5.566105e+001
1.274765e+003,5.692997e+001
1.275729e+003,5.795344e+001
1.276693e+003,5.833018e+001
1.277657e+003,5.827269e+001
1.278622e+003,5.798947e+001
1.279586e+003,5.742192e+001
1.280550e+003,5.701986e+001
1.281514e+003,5.705595e+001
1.282479e+003,5.718956e+001
1.283443e+003,5.735960e+001
1.284407e+003,5.746816e+001
1.285371e+003,5.713422e+001
1.286335e+003,5.662130e+001
1.287300e+003,5.676516e+001
1.288264e+003,5.802261e+001
1.289228e+003,5.971388e+001
1.290192e+003,6.074123e+001
1.291157e+003,6.108780e+001
1.292121e+003,6.101961e+001
1.293085e+003,6.006054e+001
1.294049e+003,5.976831e+001
1.295014e+003,6.145589e+001
1.295978e+003,6.366592e+001
1.296942e+003,6.446980e+001
1.297906e+003,6.400222e+001
1.298870e+003,6.403844e+001
1.299835e+003,6.519328e+001
1.300799e+003,6.636967e+001
1.301763e+003,6.697291e+001
1.302727e+003,6.717030e+001
1.303692e+003,6.690665e+001
1.304656e+003,6.651334e+001
1.305620e+003,6.671065e+001
1.306584e+003,6.786012e+001
1.307549e+003,6.945897e+001
1.308513e+003,7.060658e+001
1.309477e+003,7.123967e+001
1.310441e+003,7.148741e+001
1.311406e+003,7.187395e+001
1.312370e+003,7.129519e+001
1.313334e+003,6.840385e+001
1.314298e+003,6.552523e+001
1.315263e+003,6.461823e+001
1.316227e+003,6.552316e+001
1.317191e+003,6.729550e+001
1.318155e+003,6.963685e+001
1.319120e+003,7.158661e+001
1.320084e+003,7.197060e+001
1.321048e+003,7.122234e+001
1.322012e+003,7.010665e+001
1.322976e+003,6.874462e+001
1.323941e+003,6.833677e+001
1.324905e+003,6.976387e+001
1.325869e+003,7.189708e+001
1.326833e+003,7.300854e+001
1.327798e+003,7.307543e+001
1.328762e+003,7.330570e+001
1.329726e+003,7.439000e+001
1.330690e+003,7.434788e+001
1.331655e+003,7.112039e+001
1.332619e+003,6.824352e+001
1.333583e+003,6.868495e+001
1.334547e+003,7.122438e+001
1.335511e+003,7.312730e+001
1.336476e+003,7.323933e+001
1.337440e+003,7.269838e+001
1.338404e+003,7.296880e+001
1.339368e+003,7.389357e+001
1.340333e+003,7.371139e+001
1.341297e+003,7.166521e+001
1.342261e+003,7.067219e+001
1.343225e+003,7.177098e+001
1.344190e+003,7.331201e+001
1.345154e+003,7.423000e+001
1.346118e+003,7.472182e+001
1.347082e+003,7.556320e+001
1.348047e+003,7.696832e+001
1.349011e+003,7.733464e+001
1.349975e+003,7.480026e+001
1.350939e+003,7.192366e+001
1.351903e+003,7.156146e+001
1.352868e+003,7.283836e+001
1.353832e+003,7.395496e+001
1.354796e+003,7.443793e+001
1.355760e+003,7.503255e+001
1.356725e+003,7.662113e+001
1.357689e+003,7.879649e+001
1.358653e+003,7.959805e+001
1.359617e+003,7.857523e+001
1.360582e+003,7.744348e+001
1.361546e+003,7.578539e+001
1.362510e+003,7.465804e+001
1.363474e+003,7.503157e+001
1.364438e+003,7.586420e+001
1.365403e+003,7.578888e+001
1.366367e+003,7.477718e+001
1.367331e+003,7.381437e+001
1.368295e+003,7.355851e+001
1.369260e+003,7.393174e+001
1.370224e+003,7.498030e+001
1.371188e+003,7.679263e+001
1.372152e+003,7.792580e+001
1.373117e+003,7.794735e+001
1.374081e+003,7.804100e+001
1.375045e+003,7.873345e+001
1.376009e+003,7.964899e+001
1.376974e+003,8.069405e+001
1.377938e+003,8.172414e+001
1.378902e+003,8.154778e+001
1.379866e+003,7.925126e+001
1.380830e+003,7.755465e+001
1.381795e+003,7.917717e+001
1.382759e+003,8.169109e+001
1.383723e+003,8.307327e+001
1.384687e+003,8.354359e+001
1.385652e+003,8.408475e+001
1.386616e+003,8.504936e+001
1.387580e+003,8.572122e+001
1.388544e+003,8.511906e+001
1.389509e+003,8.334402e+001
1.390473e+003,8.174326e+001
1.391437e+003,7.993069e+001
1.392401e+003,7.952060e+001
1.393365e+003,8.157295e+001
1.394330e+003,8.361813e+001
1.395294e+003,8.445445e+001
1.396258e+003,8.472653e+001
1.397222e+003,8.536055e+001
1.398187e+003,8.660825e+001
1.399151e+003,8.836899e+001
1.400115e+003,9.050691e+001
1.401079e+003,9.224890e+001
1.402044e+003,9.205872e+001
1.403008e+003,8.992041e+001
1.403972e+003,8.901973e+001
1.404936e+003,8.995777e+001
1.405901e+003,9.079118e+001
1.406865e+003,9.066084e+001
1.407829e+003,9.025372e+001
1.408793e+003,9.023569e+001
1.409757e+003,9.064716e+001
1.410722e+003,9.135664e+001
1.411686e+003,9.226925e+001
1.412650e+003,9.322624e+001
1.413614e+003,9.440834e+001
1.414579e+003,9.550936e+001
1.415543e+003,9.625807e+001
1.416507e+003,9.667232e+001
1.417471e+003,9.653825e+001
1.418436e+003,9.574390e+001
1.419400e+003,9.509305e+001
1.420364e+003,9.571803e+001
1.421328e+003,9.718323e+001
1.422292e+003,9.698697e+001
1.423257e+003,9.414900e+001
1.424221e+003,9.288173e+001
1.425185e+003,9.497538e+001
1.426149e+003,9.720240e+001
1.427114e+003,9.926226e+001
1.428078e+003,1.009418e+002
1.429042e+003,1.016716e+002
1.430006e+003,1.016878e+002
1.430971e+003,1.018628e+002
1.431935e+003,1.026539e+002
1.432899e+003,1.035941e+002
1.433863e+003,1.040600e+002
1.434828e+003,1.041165e+002
1.435792e+003,1.036089e+002
1.436756e+003,1.013889e+002
1.437720e+003,1.005339e+002
1.438684e+003,1.028747e+002
1.439649e+003,1.050599e+002
1.440613e+003,1.041822e+002
1.441577e+003,1.023459e+002
1.442541e+003,1.037206e+002
1.443506e+003,1.084704e+002
1.444470e+003,1.121481e+002
1.445434e+003,1.122271e+002
1.446398e+003,1.105940e+002
1.447363e+003,1.089973e+002
1.448327e+003,1.076965e+002
1.449291e+003,1.076580e+002
1.450255e+003,1.090105e+002
1.451219e+003,1.107958e+002
1.452184e+003,1.130485e+002
1.453148e+003,1.148303e+002
1.454112e+003,1.144591e+002
1.455076e+003,1.123656e+002
1.456041e+003,1.113573e+002
1.457005e+003,1.119777e+002
1.457969e+003,1.132637e+002
1.458933e+003,1.156181e+002
1.459898e+003,1.176210e+002
1.460862e+003,1.181773e+002
1.461826e+003,1.178078e+002
1.462790e+003,1.171834e+002
1.463755e+003,1.165848e+002
1.464719e+003,1.162832e+002
1.465683e+003,1.164908e+002
1.466647e+003,1.171419e+002
1.467611e+003,1.180760e+002
1.468576e+003,1.192962e+002
1.469540e+003,1.204146e+002
1.470504e+003,1.222822e+002
1.471468e+003,1.228196e+002
1.472433e+003,1.200919e+002
1.473397e+003,1.176792e+002
1.474361e+003,1.181964e+002
1.475325e+003,1.204080e+002
1.476290e+003,1.225033e+002
1.477254e+003,1.236407e+002
1.478218e+003,1.231122e+002
1.479182e+003,1.203191e+002
1.480146e+003,1.168144e+002
1.481111e+003,1.161861e+002
1.482075e+003,1.187706e+002
1.483039e+003,1.200949e+002
1.484003e+003,1.193985e+002
1.484968e+003,1.188137e+002
1.485932e+003,1.191048e+002
1.486896e+003,1.196275e+002
1.487860e+003,1.197638e+002
1.488825e+003,1.195288e+002
1.489789e+003,1.192231e+002
1.490753e+003,1.189640e+002
1.491717e+003,1.186110e+002
1.492682e+003,1.179462e+002
1.493646e+003,1.173041e+002
1.494610e+003,1.172976e+002
1.495574e+003,1.177574e+002
1.496538e+003,1.182318e+002
1.497503e+003,1.186858e+002
1.498467e+003,1.193800e+002
1.499431e+003,1.207139e+002
1.500395e+003,1.220322e+002
1.501360e+003,1.228033e+002
1.502324e+003,1.230306e+002
1.503288e+003,1.220583e+002
1.504252e+003,1.193823e+002
1.505217e+003,1.170566e+002
1.506181e+003,1.164646e+002
1.507145e+003,1.161730e+002
1.508109e+003,1.148875e+002
1.509073e+003,1.131713e+002
1.510038e+003,1.117765e+002
1.511002e+003,1.108796e+002
1.511966e+003,1.106128e+002
1.512930e+003,1.111529e+002
1.513895e+003,1.121544e+002
1.514859e+003,1.128932e+002
1.515823e+003,1.132794e+002
1.516787e+003,1.141336e+002
1.517752e+003,1.165541e+002
1.518716e+003,1.170842e+002
1.519680e+003,1.123616e+002
1.520644e+003,1.081104e+002
1.521609e+003,1.070297e+002
1.522573e+003,1.077570e+002
1.523537e+003,1.092285e+002
1.524501e+003,1.108144e+002
1.525465e+003,1.114505e+002
1.526430e+003,1.105036e+002
1.527394e+003,1.090370e+002
1.528358e+003,1.088542e+002
1.529322e+003,1.098672e+002
1.530287e+003,1.098958e+002
1.531251e+003,1.079496e+002
1.532215e+003,1.071452e+002
1.533179e+003,1.079980e+002
1.534144e+003,1.091953e+002
1.535108e+003,1.109197e+002
1.536072e+003,1.121936e+002
1.537036e+003,1.117868e+002
1.538000e+003,1.100697e+002
1.538965e+003,1.084114e+002
1.539929e+003,1.073773e+002
1.540893e+003,1.062231e+002
1.541857e+003,1.040765e+002
1.542822e+003,1.014510e+002
1.543786e+003,1.000826e+002
1.544750e+003,1.001979e+002
1.545714e+003,1.006682e+002
1.546679e+003,1.020038e+002
1.547643e+003,1.028850e+002
1.548607e+003,1.025531e+002
1.549571e+003,1.020361e+002
1.550536e+003,1.025428e+002
1.551500e+003,1.035023e+002
1.552464e+003,1.032219e+002
1.553428e+003,1.013932e+002
1.554392e+003,9.986693e+001
1.555357e+003,1.001380e+002
1.556321e+003,1.011256e+002
1.557285e+003,1.008341e+002
1.558249e+003,9.935283e+001
1.559214e+003,9.770614e+001
1.560178e+003,9.544647e+001
1.561142e+003,9.442109e+001
1.562106e+003,9.604989e+001
1.563071e+003,9.814449e+001
1.564035e+003,9.919147e+001
1.564999e+003,9.931937e+001
1.565963e+003,9.854525e+001
1.566927e+003,9.692703e+001
1.567892e+003,9.562719e+001
1.568856e+003,9.529781e+001
1.569820e+003,9.530064e+001
1.570784e+003,9.536473e+001
1.571749e+003,9.498833e+001
1.572713e+003,9.242970e+001
1.573677e+003,8.786465e+001
1.574641e+003,8.526844e+001
1.575606e+003,8.667452e+001
1.576570e+003,8.856994e+001
1.577534e+003,8.867301e+001
1.578498e+003,8.726656e+001
1.579463e+003,8.396674e+001
1.580427e+003,7.906639e+001
1.581391e+003,7.649012e+001
1.582355e+003,7.772718e+001
1.583319e+003,7.993444e+001
1.584284e+003,8.211455e+001
1.585248e+003,8.354510e+001
1.586212e+003,8.283219e+001
1.587176e+003,8.053985e+001
1.588141e+003,7.853195e+001
1.589105e+003,7.727544e+001
1.590069e+003,7.600323e+001
1.591033e+003,7.382254e+001
1.591998e+003,7.173895e+001
1.592962e+003,7.184821e+001
1.593926e+003,7.352117e+001
1.594890e+003,7.289215e+001
1.595854e+003,6.908589e+001
1.596819e+003,6.666594e+001
1.597783e+003,6.789621e+001
1.598747e+003,6.990448e+001
1.599711e+003,7.131218e+001
1.600676e+003,7.175407e+001
1.601640e+003,7.028535e+001
1.602604e+003,6.739492e+001
1.603568e+003,6.485784e+001
1.604533e+003,6.325947e+001
1.605497e+003,6.271251e+001
1.606461e+003,6.431995e+001
1.607425e+003,6.666255e+001
1.608390e+003,6.500964e+001
1.609354e+003,5.927032e+001
1.610318e+003,5.628218e+001
1.611282e+003,5.807816e+001
1.612246e+003,5.973411e+001
1.613211e+003,5.879150e+001
1.614175e+003,5.712863e+001
1.615139e+003,5.583231e+001
1.616103e+003,5.488672e+001
1.617068e+003,5.424675e+001
1.618032e+003,5.381232e+001
1.618996e+003,5.315818e+001
1.619960e+003,5.196009e+001
1.620925e+003,5.065115e+001
1.621889e+003,5.008222e+001
1.622853e+003,5.007203e+001
1.623817e+003,4.921232e+001
1.624781e+003,4.738105e+001
1.625746e+003,4.579548e+001
1.626710e+003,4.458691e+001
1.627674e+003,4.368857e+001
1.628638e+003,4.313182e+001
1.629603e+003,4.266939e+001
1.630567e+003,4.209287e+001
1.631531e+003,4.153901e+001
1.632495e+003,4.149136e+001
1.633460e+003,4.198418e+001
1.634424e+003,4.204725e+001
1.635388e+003,4.082119e+001
1.636352e+003,3.913875e+001
1.637317e+003,3.875580e+001
1.638281e+003,3.952686e+001
1.639245e+003,3.918102e+001
1.640209e+003,3.729903e+001
1.641173e+003,3.564016e+001
1.642138e+003,3.436424e+001
1.643102e+003,3.390526e+001
1.644066e+003,3.554173e+001
1.645030e+003,3.712998e+001
1.645995e+003,3.604399e+001
1.646959e+003,3.317038e+001
1.647923e+003,3.131704e+001
1.648887e+003,3.130727e+001
1.649852e+003,3.144386e+001
1.650816e+003,3.030458e+001
1.651780e+003,2.846287e+001
1.652744e+003,2.700850e+001
1.653708e+003,2.593522e+001
1.654673e+003,2.535559e+001
1.655637e+003,2.536672e+001
1.656601e+003,2.554517e+001
1.657565e+003,2.617689e+001
1.658530e+003,2.642939e+001
1.659494e+003,2.537070e+001
1.660458e+003,2.404932e+001
1.661422e+003,2.388148e+001
1.662387e+003,2.447344e+001
1.663351e+003,2.408331e+001
1.664315e+003,2.219561e+001
1.665279e+003,2.085261e+001
1.666244e+003,2.221135e+001
1.667208e+003,2.463416e+001
1.668172e+003,2.463002e+001
1.669136e+003,2.231613e+001
1.670100e+003,1.970621e+001
1.671065e+003,1.671446e+001
1.672029e+003,1.443387e+001
1.672993e+003,1.328640e+001
1.673957e+003,1.297479e+001
1.674922e+003,1.369955e+001
1.675886e+003,1.473578e+001
1.676850e+003,1.510488e+001
1.677814e+003,1.505313e+001
1.678779e+003,1.590981e+001
1.679743e+003,1.811340e+001
1.680707e+003,1.957157e+001
1.681671e+003,1.838619e+001
1.682635e+003,1.573105e+001
1.683600e+003,1.330698e+001
1.684564e+003,1.123760e+001
1.685528e+003,1.026561e+001
1.686492e+003,1.055199e+001
1.687457e+003,1.078626e+001
1.688421e+003,1.029536e+001
1.689385e+003,1.016380e+001
1.690349e+003,1.203876e+001
1.691314e+003,1.424703e+001
1.692278e+003,1.490479e+001
1.693242e+003,1.407964e+001
1.694206e+003,1.223685e+001
1.695171e+003,9.376047e+000
1.696135e+003,6.866922e+000
1.697099e+003,5.493939e+000
1.698063e+003,4.990024e+000
1.699027e+003,5.210907e+000
1.699992e+003,6.004065e+000
1.700956e+003,7.034558e+000
1.701920e+003,8.223719e+000
1.702884e+003,8.762637e+000
1.703849e+003,8.233411e+000
1.704813e+003,7.511416e+000
1.705777e+003,7.424490e+000
1.706741e+003,7.405908e+000
1.707706e+003,6.146652e+000
1.708670e+003,4.143921e+000
1.709634e+003,3.484704e+000
1.710598e+003,4.688403e+000
1.711563e+003,5.492697e+000
1.712527e+003,4.555707e+000
1.713491e+003,3.285193e+000
1.714455e+003,2.748651e+000
1.715419e+003,2.709229e+000
1.716384e+003,2.998315e+000
1.717348e+003,3.398999e+000
1.718312e+003,2.875031e+000
1.719276e+003,1.093726e+000
1.720241e+003,-1.731903e-001
1.721205e+003,4.868164e-001
1.722169e+003,1.930869e+000
1.723133e+003,2.366403e+000
1.724098e+003,1.935629e+000
1.725062e+003,1.586594e+000
1.726026e+003,1.282330e+000
1.726990e+003,1.031580e+000
1.727954e+003,8.449677e-001
1.728919e+003,6.977326e-001
1.729883e+003,6.173736e-001
1.730847e+003,5.557281e-001
1.731811e+003,4.146759e-001
1.732776e+003,2.626709e-001
1.733740e+003,4.309662e-001
1.734704e+003,8.474060e-001
1.735668e+003,6.628052e-001
1.736633e+003,-6.156158e-001
1.737597e+003,-2.164734e+000
1.738561e+003,-2.959579e+000
1.739525e+003,-2.903924e+000
1.740490e+003,-1.467221e+000
1.741454e+003,2.444415e+000
1.742418e+003,3.508279e+000
1.743382e+003,-9.983856e-001
1.744346e+003,-4.099002e+000
1.745311e+003,-3.551419e+000
1.746275e+003,-2.603333e+000
1.747239e+003,-3.264813e+000
1.748203e+003,-4.538287e+000
1.749168e+003,-4.962637e+000
1.750132e+003,-4.641330e+000
1.751096e+003,-4.590442e+000
1.752060e+003,-5.190460e+000
1.753025e+003,-6.034232e+000
1.753989e+003,-6.785062e+000
1.754953e+003,-7.035452e+000
1.755917e+003,-5.594513e+000
1.756881e+003,-2.412546e+000
1.757846e+003,-8.287689e-001
1.758810e+003,-1.262622e+000
1.759774e+003,-2.014282e+000
1.760738e+003,-3.309531e+000
1.761703e+003,-4.332022e+000
1.762667e+003,-4.883826e+000
1.763631e+003,-4.973633e+000
1.764595e+003,-4.282065e+000
1.765560e+003,-3.246835e+000
1.766524e+003,-2.423584e+000
1.767488e+003,-2.060022e+000
1.768452e+003,-2.775922e+000
1.769417e+003,-5.032605e+000
1.770381e+003,-7.071536e+000
1.771345e+003,-6.440607e+000
1.772309e+003,-4.370581e+000
1.773273e+003,-4.185083e+000
1.774238e+003,-5.692648e+000
1.775202e+003,-6.437421e+000
1.776166e+003,-5.988595e+000
1.777130e+003,-5.396680e+000
1.778095e+003,-4.863431e+000
1.779059e+003,-4.726160e+000
1.780023e+003,-5.865463e+000
1.780987e+003,-7.198682e+000
1.781952e+003,-6.380096e+000
1.782916e+003,-4.052069e+000
1.783880e+003,-3.786594e+000
1.784844e+003,-6.715274e+000
1.785808e+003,-8.627371e+000
1.786773e+003,-6.632614e+000
1.787737e+003,-4.326673e+000
1.788701e+003,-4.918784e+000
1.789665e+003,-6.669354e+000
1.790630e+003,-6.747269e+000
1.791594e+003,-5.554681e+000
1.792558e+003,-5.506534e+000
1.793522e+003,-7.101544e+000
1.794487e+003,-8.325376e+000
1.795451e+003,-7.902350e+000
1.796415e+003,-6.635816e+000
1.797379e+003,-5.527575e+000
1.798344e+003,-4.679675e+000
1.799308e+003,-4.547287e+000
1.800272e+003,-5.538547e+000
1.801236e+003,-5.744046e+000
1.802201e+003,-3.963217e+000
1.803165e+003,-3.215878e+000
1.804129e+003,-4.918802e+000
1.805093e+003,-6.598029e+000
1.806057e+003,-6.982428e+000
1.807022e+003,-6.610242e+000
1.807986e+003,-5.886884e+000
1.808950e+003,-5.096509e+000
1.809914e+003,-4.632074e+000
1.810879e+003,-4.570849e+000
1.811843e+003,-4.571942e+000
1.812807e+003,-4.391821e+000
1.813771e+003,-4.195773e+000
1.814736e+003,-4.213629e+000
1.815700e+003,-4.417688e+000
1.816664e+003,-4.833566e+000
1.817628e+003,-5.547873e+000
1.818593e+003,-5.622522e+000
1.819557e+003,-4.519705e+000
1.820521e+003,-3.986340e+000
1.821485e+003,-5.204516e+000
1.822449e+003,-6.474890e+000
1.823414e+003,-6.516040e+000
1.824378e+003,-5.972201e+000
1.825342e+003,-5.465650e+000
1.826306e+003,-5.055014e+000
1.827271e+003,-4.879788e+000
1.828235e+003,-5.013227e+000
1.829199e+003,-4.964261e+000
1.830163e+003,-3.994977e+000
1.831128e+003,-3.325485e+000
1.832092e+003,-4.768121e+000
1.833056e+003,-6.710736e+000
1.834020e+003,-6.081586e+000
1.834984e+003,-3.671573e+000
1.835949e+003,-2.768478e+000
1.836913e+003,-3.934082e+000
1.837877e+003,-5.088165e+000
1.838841e+003,-5.121179e+000
1.839806e+003,-4.995740e+000
1.840770e+003,-5.883942e+000
1.841734e+003,-7.203006e+000
1.842698e+003,-7.070175e+000
1.843663e+003,-5.245474e+000
1.844627e+003,-3.834723e+000
1.845591e+003,-2.462872e+000
1.846555e+003,-2.182111e+000
1.847520e+003,-4.253168e+000
1.848484e+003,-5.879944e+000
1.849448e+003,-5.739221e+000
1.850412e+003,-4.931109e+000
1.851376e+003,-4.018982e+000
1.852341e+003,-3.355200e+000
1.853305e+003,-3.629553e+000
1.854269e+003,-4.603699e+000
1.855233e+003,-4.899103e+000
1.856198e+003,-3.884094e+000
1.857162e+003,-2.600983e+000
1.858126e+003,-2.040414e+000
1.859090e+003,-1.969611e+000
1.860055e+003,-1.982782e+000
1.861019e+003,-2.127084e+000
1.861983e+003,-2.619675e+000
1.862947e+003,-3.481696e+000
1.863911e+003,-3.799588e+000
1.864876e+003,-3.277884e+000
1.865840e+003,-2.366479e+000
1.866804e+003,-9.367371e-001
1.867768e+003,6.689759e-002
1.868733e+003,-1.054987e+000
1.869697e+003,-3.244464e+000
1.870661e+003,-3.092258e+000
1.871625e+003,-5.890137e-001
1.872590e+003,9.734924e-001
1.873554e+003,9.563263e-001
1.874518e+003,5.971283e-001
1.875482e+003,2.923584e-002
1.876447e+003,-5.105255e-001
1.877411e+003,-8.060303e-001
1.878375e+003,-1.036844e+000
1.879339e+003,-1.964221e+000
1.880303e+003,-2.864551e+000
1.881268e+003,-1.670816e+000
1.882232e+003,1.461755e+000
1.883196e+003,3.880484e+000
1.884160e+003,4.153974e+000
1.885125e+003,3.040811e+000
1.886089e+003,1.182135e+000
1.887053e+003,-7.422363e-001
1.888017e+003,-3.583893e-001
1.888982e+003,2.394208e+000
1.889946e+003,3.373663e+000
1.890910e+003,2.211963e+000
1.891874e+003,1.120923e+000
1.892839e+003,3.894165e-001
1.893803e+003,-6.135254e-002
1.894767e+003,-3.291565e-001
1.895731e+003,-2.023010e-001
1.896695e+003,1.056226e+000
1.897660e+003,2.542358e+000
1.898624e+003,2.380399e+000
1.899588e+003,7.965729e-001
1.900552e+003,2.502991e-001
1.901517e+003,1.524747e+000
1.902481e+003,2.517606e+000
1.903445e+003,2.175683e+000
1.904409e+003,1.612933e+000
1.905374e+003,1.486475e+000
1.906338e+003,1.644086e+000
1.907302e+003,2.101538e+000
1.908266e+003,2.510693e+000
1.909230e+003,2.012225e+000
1.910195e+003,7.860230e-001
1.911159e+003,2.240326e-001
1.912123e+003,9.060699e-001
1.913087e+003,1.834399e+000
1.914052e+003,2.060452e+000
1.915016e+003,1.694827e+000
1.915980e+003,8.982178e-001
1.916944e+003,-2.656647e-001
1.917909e+003,-1.024606e+000
1.918873e+003,-1.388489e+000
1.919837e+003,-1.099146e+000
1.920801e+003,2.039734e-001
1.921766e+003,1.193417e+000
1.922730e+003,1.248639e+000
1.923694e+003,1.043042e+000
1.924658e+003,8.844116e-001
1.925622e+003,8.997040e-001
1.926587e+003,1.471420e+000
1.927551e+003,2.358118e+000
1.928515e+003,2.665298e+000
1.929479e+003,2.269226e+000
1.930444e+003,1.693152e+000
1.931408e+003,8.529633e-001
1.932372e+003,1.617615e-001
1.933336e+003,-4.328796e-001
1.934301e+003,-5.331482e-001
1.935265e+003,5.907196e-001
1.936229e+003,2.167728e+000
1.937193e+003,3.299695e+000
1.938157e+003,3.788263e+000
1.939122e+003,3.394708e+000
1.940086e+003,2.296973e+000
1.941050e+003,1.480319e+000
1.942014e+003,1.514859e+000
1.942979e+003,1.825168e+000
1.943943e+003,1.726480e+000
1.944907e+003,1.390164e+000
1.945871e+003,1.343613e+000
1.946836e+003,1.577969e+000
1.947800e+003,1.244943e+000
1.948764e+003,1.445374e-001
1.949728e+003,4.456482e-002
1.950693e+003,1.709836e+000
1.951657e+003,2.721625e+000
1.952621e+003,1.550781e+000
1.953585e+003,1.470520e-001
1.954549e+003,5.398468e-001
1.955514e+003,1.827502e+000
1.956478e+003,1.974451e+000
1.957442e+003,1.069998e+000
1.958406e+003,4.672485e-001
1.959371e+003,-5.580749e-002
1.960335e+003,3.942413e-001
1.961299e+003,3.422992e+000
1.962263e+003,5.391797e+000
1.963228e+003,4.003641e+000
1.964192e+003,2.263116e+000
1.965156e+003,2.331238e+000
1.966120e+003,3.258856e+000
1.967084e+003,3.791559e+000
1.968049e+003,3.939447e+000
1.969013e+003,4.279883e+000
1.969977e+003,4.875540e+000
1.970941e+003,5.103147e+000
1.971906e+003,4.565042e+000
1.972870e+003,4.230157e+000
1.973834e+003,5.708972e+000
1.974798e+003,7.524951e+000
1.975763e+003,6.368518e+000
1.976727e+003,3.508521e+000
1.977691e+003,3.211792e+000
1.978655e+003,5.295984e+000
1.979620e+003,6.276703e+000
1.980584e+003,5.405762e+000
1.981548e+003,4.609046e+000
1.982512e+003,4.882556e+000
1.983476e+003,5.319040e+000
1.984441e+003,4.973404e+000
1.985405e+003,4.224588e+000
1.986369e+003,3.980667e+000
1.987333e+003,4.258911e+000
1.988298e+003,4.630612e+000
1.989262e+003,5.293149e+000
1.990226e+003,5.281283e+000
1.991190e+003,3.961643e+000
1.992155e+003,3.125055e+000
1.993119e+003,3.614731e+000
1.994083e+003,4.225553e+000
1.995047e+003,4.194785e+000
1.996011e+003,4.043344e+000
1.996976e+003,4.427960e+000
1.997940e+003,5.127493e+000
1.998904e+003,5.599002e+000
1.999868e+003,5.785120e+000
2.000833e+003,5.670920e+000
2.001797e+003,4.980689e+000
2.002761e+003,4.636765e+000
2.003725e+003,5.532648e+000
2.004690e+003,6.259933e+000
2.005654e+003,5.271036e+000
2.006618e+003,4.245334e+000
2.007582e+003,5.588244e+000
2.008547e+003,7.862466e+000
2.009511e+003,8.400351e+000
2.010475e+003,7.144742e+000
2.011439e+003,5.311264e+000
2.012403e+003,3.574954e+000
2.013368e+003,2.971921e+000
2.014332e+003,4.367990e+000
2.015296e+003,6.100171e+000
2.016260e+003,5.532275e+000
2.017225e+003,3.983740e+000
2.018189e+003,4.979230e+000
2.019153e+003,7.690289e+000
2.020117e+003,8.587097e+000
2.021082e+003,7.586252e+000
2.022046e+003,7.224032e+000
2.023010e+003,8.147183e+000
2.023974e+003,8.528745e+000
2.024938e+003,7.293112e+000
2.025903e+003,5.818140e+000
2.026867e+003,5.561609e+000
2.027831e+003,6.070322e+000
2.028795e+003,6.300235e+000
2.029760e+003,6.297732e+000
2.030724e+003,6.453104e+000
2.031688e+003,6.918109e+000
2.032652e+003,6.696420e+000
2.033617e+003,5.288324e+000
2.034581e+003,4.306055e+000
2.035545e+003,4.030927e+000
2.036509e+003,4.549445e+000
2.037474e+003,6.747003e+000
2.038438e+003,8.850253e+000
2.039402e+003,8.793350e+000
2.040366e+003,7.392889e+000
2.041330e+003,6.330032e+000
2.042295e+003,5.666903e+000
2.043259e+003,5.117618e+000
2.044223e+003,4.316596e+000
2.045187e+003,4.489429e+000
2.046152e+003,7.137204e+000
2.047116e+003,9.014181e+000
2.048080e+003,8.518890e+000
2.049044e+003,7.204169e+000
2.050009e+003,5.835388e+000
2.050973e+003,4.628213e+000
2.051937e+003,3.447388e+000
2.052901e+003,2.629880e+000
2.053865e+003,3.153244e+000
2.054830e+003,4.868744e+000
2.055794e+003,6.000278e+000
2.056758e+003,5.747437e+000
2.057722e+003,5.137131e+000
2.058687e+003,4.898843e+000
2.059651e+003,4.702994e+000
2.060615e+003,4.166312e+000
2.061579e+003,3.465027e+000
2.062544e+003,2.476752e+000
2.063508e+003,1.761548e+000
2.064472e+003,2.934750e+000
2.065436e+003,5.393420e+000
2.066401e+003,6.311170e+000
2.067365e+003,5.037707e+000
2.068329e+003,3.852347e+000
2.069293e+003,4.214438e+000
2.070258e+003,5.099188e+000
2.071222e+003,5.308783e+000
2.072186e+003,5.209561e+000
2.073150e+003,5.725214e+000
2.074115e+003,6.598822e+000
2.075079e+003,6.581897e+000
2.076043e+003,5.733817e+000
2.077007e+003,5.038589e+000
2.077971e+003,4.686700e+000
2.078936e+003,4.623383e+000
2.079900e+003,4.815317e+000
2.080864e+003,5.226456e+000
2.081828e+003,5.882971e+000
2.082792e+003,6.290362e+000
2.083757e+003,5.642145e+000
2.084721e+003,4.468512e+000
2.085685e+003,4.837796e+000
2.086649e+003,6.880759e+000
2.087614e+003,7.391830e+000
2.088578e+003,5.872165e+000
2.089542e+003,5.345355e+000
2.090506e+003,6.467554e+000
2.091471e+003,7.361472e+000
2.092435e+003,7.429276e+000
2.093399e+003,7.200351e+000
2.094363e+003,7.090619e+000
2.095328e+003,6.734143e+000
2.096292e+003,5.367185e+000
2.097256e+003,3.442267e+000
2.098220e+003,2.651538e+000
2.099185e+003,3.112079e+000
2.100149e+003,3.965259e+000
2.101113e+003,5.778009e+000
2.102077e+003,6.851800e+000
2.103042e+003,6.842508e+000
2.104006e+003,6.516635e+000
2.104970e+003,5.591174e+000
2.105934e+003,4.945987e+000
2.106898e+003,5.370560e+000
2.107863e+003,6.003784e+000
2.108827e+003,5.904547e+000
2.109791e+003,5.389047e+000
2.110755e+003,5.184207e+000
2.111719e+003,5.300156e+000
2.112684e+003,5.276285e+000
2.113648e+003,4.836078e+000
2.114612e+003,4.964877e+000
2.115576e+003,6.797882e+000
2.116541e+003,7.840283e+000
2.117505e+003,6.355188e+000
2.118469e+003,4.859283e+000
2.119433e+003,5.114282e+000
2.120398e+003,6.013782e+000
2.121362e+003,6.367157e+000
2.122326e+003,6.345697e+000
2.123290e+003,6.720376e+000
2.124255e+003,7.389447e+000
2.125219e+003,7.135660e+000
2.126183e+003,5.482950e+000
2.127147e+003,4.599152e+000
2.128112e+003,6.027380e+000
2.129076e+003,7.676477e+000
2.130040e+003,8.731448e+000
2.131004e+003,9.168665e+000
2.131969e+003,8.615927e+000
2.132933e+003,7.700897e+000
2.133897e+003,6.820053e+000
2.134861e+003,6.375885e+000
2.135825e+003,7.339526e+000
2.136790e+003,9.167923e+000
2.137754e+003,9.742154e+000
2.138718e+003,8.509580e+000
2.139682e+003,7.185181e+000
2.140646e+003,6.603693e+000
2.141611e+003,6.743860e+000
2.142575e+003,8.117020e+000
2.143539e+003,9.570294e+000
2.144503e+003,1.002708e+001
2.145468e+003,9.866071e+000
2.146432e+003,9.129910e+000
2.147396e+003,8.395767e+000
2.148360e+003,8.903818e+000
2.149325e+003,1.036286e+001
2.150289e+003,1.147260e+001
2.151253e+003,1.177070e+001
2.152217e+003,1.137061e+001
2.153182e+003,1.034220e+001
2.154146e+003,9.454773e+000
2.155110e+003,9.655020e+000
2.156074e+003,1.002661e+001
2.157039e+003,8.968866e+000
2.158003e+003,7.516339e+000
2.158967e+003,7.560925e+000
2.159931e+003,8.585245e+000
2.160896e+003,9.336987e+000
2.161860e+003,9.692728e+000
2.162824e+003,1.001804e+001
2.163788e+003,1.034986e+001
2.164752e+003,1.019043e+001
2.165717e+003,9.363363e+000
2.166681e+003,8.880564e+000
2.167645e+003,9.709320e+000
2.168609e+003,1.090380e+001
2.169573e+003,1.111310e+001
2.170538e+003,1.083804e+001
2.171502e+003,1.100757e+001
2.172466e+003,1.139857e+001
2.173430e+003,1.153024e+001
2.174395e+003,1.143940e+001
2.175359e+003,1.133821e+001
2.176323e+003,1.126524e+001
2.177287e+003,1.121582e+001
2.178252e+003,1.113745e+001
2.179216e+003,1.064793e+001
2.180180e+003,9.476816e+000
2.181144e+003,8.579700e+000
2.182109e+003,9.297827e+000
2.183073e+003,1.067690e+001
2.184037e+003,1.087671e+001
2.185001e+003,1.030953e+001
2.185966e+003,9.990613e+000
2.186930e+003,9.917111e+000
2.187894e+003,9.945292e+000
2.188858e+003,9.915003e+000
2.189823e+003,8.912512e+000
2.190787e+003,6.978354e+000
2.191751e+003,6.478559e+000
2.192715e+003,8.614740e+000
2.193679e+003,1.081218e+001
2.194644e+003,1.051272e+001
2.195608e+003,9.320642e+000
2.196572e+003,1.027975e+001
2.197536e+003,1.207361e+001
2.198500e+003,1.079605e+001
2.199465e+003,7.838946e+000
2.200429e+003,7.677295e+000
2.201393e+003,9.817004e+000
2.202357e+003,1.096877e+001
2.203322e+003,1.058874e+001
2.204286e+003,9.643155e+000
2.205250e+003,8.719760e+000
2.206214e+003,9.070798e+000
2.207179e+003,1.156032e+001
2.208143e+003,1.406299e+001
2.209107e+003,1.392919e+001
2.210071e+003,1.249319e+001
2.211036e+003,1.208266e+001
2.212000e+003,1.231653e+001
2.212964e+003,1.215374e+001
2.213928e+003,1.183472e+001
2.214893e+003,1.242253e+001
2.215857e+003,1.376699e+001
2.216821e+003,1.472155e+001
2.217785e+003,1.502709e+001
2.218750e+003,1.528072e+001
2.219714e+003,1.575373e+001
2.220678e+003,1.606202e+001
2.221642e+003,1.587654e+001
2.222606e+003,1.580425e+001
2.223571e+003,1.683405e+001
2.224535e+003,1.824918e+001
2.225499e+003,1.854027e+001
2.226463e+003,1.839956e+001
2.227427e+003,1.925432e+001
2.228392e+003,2.095379e+001
2.229356e+003,2.311385e+001
2.230320e+003,2.541277e+001
2.231284e+003,2.693334e+001
2.232249e+003,2.764678e+001
2.233213e+003,2.908401e+001
2.234177e+003,3.198372e+001
2.235141e+003,3.473936e+001
2.236106e+003,3.585709e+001
2.237070e+003,3.647543e+001
2.238034e+003,3.793123e+001
2.238998e+003,3.967640e+001
2.239963e+003,4.067026e+001
2.240927e+003,4.166856e+001
2.241891e+003,4.433784e+001
2.242855e+003,4.798641e+001
2.243820e+003,5.072976e+001
2.244784e+003,5.259074e+001
2.245748e+003,5.484126e+001
2.246712e+003,5.782598e+001
2.247677e+003,6.108149e+001
2.248641e+003,6.445155e+001
2.249605e+003,6.691272e+001
2.250569e+003,6.688435e+001
2.251533e+003,6.671276e+001
2.252498e+003,6.931007e+001
2.253462e+003,7.205864e+001
2.254426e+003,7.171610e+001
2.255390e+003,7.019036e+001
2.256354e+003,7.072473e+001
2.257319e+003,7.191553e+001
2.258283e+003,7.067561e+001
2.259247e+003,6.701283e+001
2.260211e+003,6.238381e+001
2.261176e+003,5.741595e+001
2.262140e+003,5.348552e+001
2.263104e+003,5.144827e+001
2.264068e+003,4.924152e+001
2.265033e+003,4.520520e+001
2.265997e+003,4.134214e+001
2.266961e+003,3.883708e+001
2.267925e+003,3.695861e+001
2.268890e+003,3.558524e+001
2.269854e+003,3.411329e+001
2.270818e+003,3.207357e+001
2.271782e+003,2.947169e+001
2.272747e+003,2.600119e+001
2.273711e+003,2.209529e+001
2.274675e+003,1.916639e+001
2.275639e+003,1.748599e+001
2.276604e+003,1.646490e+001
2.277568e+003,1.616779e+001
2.278532e+003,1.607322e+001
2.279496e+003,1.633017e+001
2.280460e+003,1.625490e+001
2.281425e+003,1.591829e+001
2.282389e+003,1.480826e+001
2.283353e+003,1.148911e+001
2.284317e+003,8.437732e+000
2.285281e+003,8.465225e+000
2.286246e+003,1.004880e+001
2.287210e+003,1.059762e+001
2.288174e+003,1.015821e+001
2.289138e+003,9.650531e+000
2.290103e+003,9.184278e+000
2.291067e+003,8.173700e+000
2.292031e+003,5.572656e+000
2.292995e+003,4.505475e+000
2.293960e+003,6.056387e+000
2.294924e+003,7.285501e+000
2.295888e+003,7.632111e+000
2.296852e+003,7.287430e+000
2.297817e+003,5.902161e+000
2.298781e+003,4.699573e+000
2.299745e+003,4.976044e+000
2.300709e+003,5.875720e+000
2.301674e+003,5.930161e+000
2.302638e+003,5.224423e+000
2.303602e+003,4.235724e+000
2.304566e+003,2.904364e+000
2.305531e+003,1.768289e+000
2.306495e+003,8.110932e-001
2.307459e+003,5.794708e-001
2.308423e+003,1.176923e+000
2.309387e+003,1.800925e+000
2.310352e+003,2.250024e+000
2.311316e+003,2.581870e+000
2.312280e+003,2.842969e+000
2.313244e+003,3.119720e+000
2.314208e+003,3.468475e+000
2.315173e+003,3.708261e+000
2.316137e+003,3.660220e+000
2.317101e+003,3.196701e+000
2.318065e+003,1.349924e+000
2.319030e+003,-1.093982e+000
2.319994e+003,-3.088287e-001
2.320958e+003,2.698248e+000
2.321922e+003,3.501209e+000
2.322887e+003,2.205795e+000
2.323851e+003,1.522485e+000
2.324815e+003,1.865472e+000
2.325779e+003,1.720285e+000
2.326744e+003,6.579224e-001
2.327708e+003,2.857513e-001
2.328672e+003,1.645630e+000
2.329636e+003,2.920825e+000
2.330601e+003,2.465561e+000
2.331565e+003,9.700470e-001
2.332529e+003,-1.796152e+000
2.333493e+003,-4.180655e+000
2.334458e+003,-3.552725e+000
2.335422e+003,-1.829163e+000
2.336386e+003,-1.758221e+000
2.337350e+003,-2.616006e+000
2.338314e+003,-2.340274e+000
2.339279e+003,-1.373883e+000
2.340243e+003,-2.182733e+000
2.341207e+003,-4.929712e+000
2.342171e+003,-6.385529e+000
2.343135e+003,-5.226953e+000
2.344100e+003,-4.229383e+000
2.345064e+003,-4.817279e+000
2.346028e+003,-5.152185e+000
2.346992e+003,-4.120212e+000
2.347957e+003,-3.292825e+000
2.348921e+003,-3.525125e+000
2.349885e+003,-4.162369e+000
2.350849e+003,-5.306293e+000
2.351814e+003,-6.146225e+000
2.352778e+003,-5.004462e+000
2.353742e+003,-3.061655e+000
2.354706e+003,-3.424472e+000
2.355671e+003,-5.847970e+000
2.356635e+003,-7.270578e+000
2.357599e+003,-7.574084e+000
2.358563e+003,-7.429547e+000
2.359528e+003,-6.708777e+000
2.360492e+003,-5.966647e+000
2.361456e+003,-5.154706e+000
2.362420e+003,-4.688962e+000
2.363385e+003,-4.737372e+000
2.364349e+003,-5.026639e+000
2.365313e+003,-5.463501e+000
2.366277e+003,-5.639472e+000
2.367241e+003,-5.106442e+000
2.368206e+003,-4.674127e+000
2.369170e+003,-5.796258e+000
2.370134e+003,-7.692697e+000
2.371098e+003,-8.117289e+000
2.372063e+003,-7.304062e+000
2.373027e+003,-5.591913e+000
2.373991e+003,-3.563220e+000
2.374955e+003,-3.854392e+000
2.375919e+003,-5.970609e+000
2.376884e+003,-7.211945e+000
2.377848e+003,-7.134723e+000
2.378812e+003,-6.673010e+000
2.379776e+003,-6.212909e+000
2.380741e+003,-5.700616e+000
2.381705e+003,-5.089056e+000
2.382669e+003,-4.775388e+000
2.383633e+003,-5.425036e+000
2.384598e+003,-5.827481e+000
2.385562e+003,-4.456625e+000
2.386526e+003,-3.185645e+000
2.387490e+003,-3.587543e+000
2.388455e+003,-4.720215e+000
2.389419e+003,-6.197421e+000
2.390383e+003,-7.355490e+000
2.391347e+003,-7.182834e+000
2.392312e+003,-6.231262e+000
2.393276e+003,-5.778964e+000
2.394240e+003,-5.903628e+000
2.395204e+003,-6.041278e+000
2.396168e+003,-6.134585e+000
2.397133e+003,-6.140811e+000
2.398097e+003,-6.152176e+000
2.399061e+003,-5.911969e+000
2.400025e+003,-5.258868e+000
2.400990e+003,-4.677972e+000
2.401954e+003,-4.276840e+000
2.402918e+003,-3.965216e+000
2.403882e+003,-3.707572e+000
2.404846e+003,-3.496536e+000
2.405811e+003,-3.290588e+000
2.406775e+003,-3.230502e+000
2.407739e+003,-3.558692e+000
2.408703e+003,-4.160532e+000
2.409668e+003,-4.730298e+000
2.410632e+003,-5.222989e+000
2.411596e+003,-5.711587e+000
2.412560e+003,-5.954407e+000
2.413525e+003,-3.917957e+000
2.414489e+003,-5.807434e-001
2.415453e+003,-8.638214e-001
2.416417e+003,-4.296295e+000
2.417382e+003,-5.801093e+000
2.418346e+003,-4.324979e+000
2.419310e+003,-2.818277e+000
2.420274e+003,-2.619071e+000
2.421239e+003,-2.938529e+000
2.422203e+003,-3.426184e+000
2.423167e+003,-3.758935e+000
2.424131e+003,-3.870471e+000
2.425095e+003,-3.521616e+000
2.426060e+003,-1.924414e+000
2.427024e+003,-5.442139e-001
2.427988e+003,-6.467255e-001
2.428952e+003,-1.361395e+000
2.429917e+003,-2.293308e+000
2.430881e+003,-2.861868e+000
2.431845e+003,-1.826248e+000
2.432809e+003,1.408295e-001
2.433773e+003,4.359802e-001
2.434738e+003,-9.348297e-001
2.435702e+003,-1.418219e+000
2.436666e+003,-7.595154e-001
2.437630e+003,-1.886902e-002
2.438595e+003,9.977844e-001
2.439559e+003,9.624084e-001
2.440523e+003,-5.144562e-001
2.441487e+003,-1.021442e+000
2.442452e+003,1.947235e-001
2.443416e+003,1.075558e+000
2.444380e+003,5.745727e-001
2.445344e+003,3.705597e-001
2.446309e+003,1.895663e+000
2.447273e+003,3.684256e+000
2.448237e+003,3.692911e+000
2.449201e+003,3.023764e+000
2.450166e+003,3.797632e+000
2.451130e+003,4.949585e+000
2.452094e+003,4.521063e+000
2.453058e+003,3.395847e+000
2.454022e+003,3.083072e+000
2.454987e+003,3.164658e+000
2.455951e+003,2.466751e+000
2.456915e+003,1.346268e+000
2.457879e+003,1.037277e+000
2.458844e+003,1.657617e+000
2.459808e+003,2.442383e+000
2.460772e+003,3.225903e+000
2.461736e+003,3.959943e+000
2.462700e+003,4.473242e+000
2.463665e+003,5.130984e+000
2.464629e+003,6.714826e+000
2.465593e+003,7.269196e+000
2.466557e+003,5.648422e+000
2.467522e+003,4.449323e+000
2.468486e+003,4.692618e+000
2.469450e+003,5.937051e+000
2.470414e+003,8.234125e+000
2.471379e+003,9.848437e+000
2.472343e+003,8.467642e+000
2.473307e+003,5.971789e+000
2.474271e+003,6.514938e+000
2.475236e+003,8.878634e+000
2.476200e+003,8.882291e+000
2.477164e+003,7.435577e+000
2.478128e+003,7.111362e+000
2.479093e+003,7.753161e+000
2.480057e+003,8.987411e+000
2.481021e+003,1.028865e+001
2.481985e+003,1.048571e+001
2.482949e+003,9.748654e+000
2.483914e+003,9.343320e+000
2.484878e+003,9.576761e+000
2.485842e+003,9.834027e+000
2.486806e+003,9.900098e+000
2.487771e+003,9.996643e+000
2.488735e+003,1.014518e+001
2.489699e+003,1.044080e+001
2.490663e+003,1.110388e+001
2.491627e+003,1.155560e+001
2.492592e+003,1.165330e+001
2.493556e+003,1.145424e+001
2.494520e+003,1.062114e+001
2.495484e+003,1.028427e+001
2.496449e+003,1.163268e+001
2.497413e+003,1.319925e+001
2.498377e+003,1.274736e+001
2.499341e+003,1.136526e+001
2.500306e+003,1.217990e+001
2.501270e+003,1.448015e+001
2.502234e+003,1.460476e+001
2.503198e+003,1.332426e+001
2.504163e+003,1.344066e+001
2.505127e+003,1.459435e+001
2.506091e+003,1.537842e+001
2.507055e+003,1.568003e+001
2.508020e+003,1.573499e+001
2.508984e+003,1.577125e+001
2.509948e+003,1.626723e+001
2.510912e+003,1.730253e+001
2.511876e+003,1.821502e+001
2.512841e+003,1.868591e+001
2.513805e+003,1.936013e+001
2.514769e+003,2.142173e+001
2.515733e+003,2.213010e+001
2.516698e+003,1.866240e+001
2.517662e+003,1.691172e+001
2.518626e+003,1.945410e+001
2.519590e+003,2.291486e+001
2.520554e+003,2.606431e+001
2.521519e+003,2.812587e+001
2.522483e+003,2.821047e+001
2.523447e+003,2.758059e+001
2.524411e+003,2.805332e+001
2.525376e+003,2.945078e+001
2.526340e+003,3.166621e+001
2.527304e+003,3.411361e+001
2.528268e+003,3.450894e+001
2.529233e+003,3.398236e+001
2.530197e+003,3.552146e+001
2.531161e+003,3.824626e+001
2.532125e+003,3.975626e+001
2.533090e+003,4.028843e+001
2.534054e+003,4.138871e+001
2.535018e+003,4.308446e+001
2.535982e+003,4.395675e+001
2.536947e+003,4.377715e+001
2.537911e+003,4.475465e+001
2.538875e+003,4.782750e+001
2.539839e+003,5.080120e+001
2.540803e+003,5.416655e+001
2.541768e+003,5.579666e+001
2.542732e+003,5.421622e+001
2.543696e+003,5.422280e+001
2.544660e+003,5.777508e+001
2.545625e+003,6.042432e+001
2.546589e+003,6.000418e+001
2.547553e+003,5.896276e+001
2.548517e+003,5.912156e+001
2.549482e+003,5.951144e+001
2.550446e+003,5.895538e+001
2.551410e+003,5.840353e+001
2.552374e+003,5.997684e+001
2.553339e+003,6.179568e+001
2.554303e+003,6.079078e+001
2.555267e+003,5.875062e+001
2.556231e+003,5.750755e+001
2.557196e+003,5.707834e+001
2.558160e+003,5.837059e+001
2.559124e+003,5.959264e+001
2.560088e+003,5.723361e+001
2.561052e+003,5.239309e+001
2.562017e+003,4.930294e+001
2.562981e+003,4.813343e+001
2.563945e+003,4.742252e+001
2.564909e+003,4.743858e+001
2.565874e+003,4.624728e+001
2.566838e+003,4.368958e+001
2.567802e+003,4.147112e+001
2.568766e+003,3.975322e+001
2.569730e+003,3.808879e+001
2.570695e+003,3.646827e+001
2.571659e+003,3.615321e+001
2.572623e+003,3.729764e+001
2.573587e+003,3.815126e+001
2.574552e+003,3.779064e+001
2.575516e+003,3.591639e+001
2.576480e+003,3.180275e+001
2.577444e+003,2.799962e+001
2.578409e+003,2.620802e+001
2.579373e+003,2.501326e+001
2.580337e+003,2.401797e+001
2.581301e+003,2.308827e+001
2.582266e+003,2.216656e+001
2.583230e+003,2.131614e+001
2.584194e+003,2.029754e+001
2.585158e+003,1.970834e+001
2.586123e+003,2.044695e+001
2.587087e+003,2.144033e+001
2.588051e+003,2.087555e+001
2.589015e+003,1.904896e+001
2.589979e+003,1.625817e+001
2.590944e+003,1.317992e+001
2.591908e+003,1.329315e+001
2.592872e+003,1.491781e+001
2.593836e+003,1.296256e+001
2.594801e+003,9.430471e+000
2.595765e+003,9.942709e+000
2.596729e+003,1.295227e+001
2.597693e+003,1.321721e+001
2.598657e+003,1.069344e+001
2.599622e+003,8.682004e+000
2.600586e+003,7.836264e+000
2.601550e+003,7.709180e+000
2.602514e+003,8.715558e+000
2.603479e+003,8.975763e+000
2.604443e+003,8.270963e+000
2.605407e+003,7.400009e+000
2.606371e+003,6.437390e+000
2.607336e+003,5.379508e+000
2.608300e+003,4.209036e+000
2.609264e+003,3.744574e+000
2.610228e+003,4.240964e+000
2.611193e+003,5.052194e+000
2.612157e+003,5.787314e+000
2.613121e+003,6.196692e+000
2.614085e+003,6.114038e+000
2.615050e+003,5.467346e+000
2.616014e+003,3.574988e+000
2.616978e+003,1.943851e+000
2.617942e+003,1.478589e+000
2.618906e+003,1.734189e+000
2.619871e+003,3.643118e+000
2.620835e+003,4.653915e+000
2.621799e+003,1.620749e+000
2.622763e+003,-1.227741e+000
2.623728e+003,3.310089e-001
2.624692e+003,3.781329e+000
2.625656e+003,5.225915e+000
2.626620e+003,5.215005e+000
2.627584e+003,5.342606e+000
2.628549e+003,5.200357e+000
2.629513e+003,2.654962e+000
2.630477e+003,-7.366943e-001
2.631441e+003,-1.554428e+000
2.632406e+003,-5.469483e-001
2.633370e+003,1.257251e+000
2.634334e+003,2.995581e+000
2.635298e+003,2.993591e+000
2.636263e+003,1.885773e+000
2.637227e+003,2.570431e+000
2.638191e+003,5.194140e+000
2.639155e+003,5.584555e+000
2.640120e+003,3.198694e+000
2.641084e+003,1.270108e+000
2.642048e+003,-4.141327e-001
2.643012e+003,-1.334747e-001
2.643977e+003,2.237537e+000
2.644941e+003,2.977759e+000
2.645905e+003,1.685275e+000
2.646869e+003,3.984741e-001
2.647833e+003,-1.862152e-001
2.648798e+003,2.093414e-001
2.649762e+003,1.538983e+000
2.650726e+003,2.314233e+000
2.651690e+003,1.787991e+000
2.652655e+003,4.611115e-001
2.653619e+003,-2.464899e+000
2.654583e+003,-4.442801e+000
2.655547e+003,-4.701724e+000
2.656511e+003,-3.840656e+000
2.657476e+003,-1.307452e+000
2.658440e+003,4.593445e-001
2.659404e+003,4.254059e-001
2.660368e+003,-6.198212e-001
2.661333e+003,-2.225598e+000
2.662297e+003,-3.114899e+000
2.663261e+003,-1.937985e+000
2.664225e+003,-4.783539e-001
2.665190e+003,-1.520508e+000
2.666154e+003,-2.789752e+000
2.667118e+003,-8.471771e-001
2.668082e+003,1.206616e+000
2.669047e+003,-2.186340e-001
2.670011e+003,-2.096384e+000
2.670975e+003,-1.315125e+000
2.671939e+003,2.611755e-001
2.672904e+003,4.889465e-001
2.673868e+003,1.889832e-001
2.674832e+003,6.476593e-001
2.675796e+003,1.156586e+000
2.676760e+003,-3.586853e-001
2.677725e+003,-3.103061e+000
2.678689e+003,-3.739270e+000
2.679653e+003,-2.859708e+000
2.680617e+003,-2.012436e+000
2.681582e+003,-1.241016e+000
2.682546e+003,-1.857117e-001
2.683510e+003,7.502502e-001
2.684474e+003,5.376007e-001
2.685438e+003,-4.262024e-001
2.686403e+003,-9.681641e-001
2.687367e+003,-9.829712e-001
2.688331e+003,-8.547974e-001
2.689295e+003,-5.836884e-001
2.690260e+003,1.006012e-001
2.691224e+003,1.322766e+000
2.692188e+003,1.651117e+000
2.693152e+003,1.081323e+000
2.694117e+003,5.235535e-001
2.695081e+003,9.617920e-002
2.696045e+003,-4.085266e-001
2.697009e+003,-8.995331e-001
2.697974e+003,-8.859345e-001
2.698938e+003,-3.099060e-001
2.699902e+003,4.493927e-001
2.700866e+003,1.300174e+000
2.701831e+003,1.713751e+000
2.702795e+003,1.536563e+000
2.703759e+003,8.050568e-001
2.704723e+003,-1.075671e+000
2.705688e+003,-1.498035e+000
2.706652e+003,1.774658e-001
2.707616e+003,7.811920e-001
2.708580e+003,-4.495087e-001
2.709544e+003,-2.062952e+000
2.710509e+003,-3.322540e+000
2.711473e+003,-3.201727e+000
2.712437e+003,-1.170712e+000
2.713401e+003,4.854034e-001
2.714365e+003,2.234558e-001
2.715330e+003,-6.172638e-001
2.716294e+003,-1.755911e+000
2.717258e+003,-2.695847e+000
2.718222e+003,-3.434991e+000
2.719187e+003,-3.604791e+000
2.720151e+003,-2.915323e+000
2.721115e+003,-2.153976e+000
2.722079e+003,-1.705228e+000
2.723044e+003,-1.367245e+000
2.724008e+003,-9.907562e-001
2.724972e+003,-6.589325e-001
2.725936e+003,-4.754272e-001
2.726901e+003,-2.683716e-001
2.727865e+003,4.444702e-001
2.728829e+003,8.976043e-001
2.729793e+003,5.864258e-002
2.730758e+003,-7.719116e-001
2.731722e+003,-5.400971e-001
2.732686e+003,-1.557678e-001
2.733650e+003,-2.348969e-001
2.734615e+003,-4.491302e-001
2.735579e+003,-4.473114e-001
2.736543e+003,-7.993256e-001
2.737507e+003,-2.397449e+000
2.738471e+003,-4.225207e+000
2.739436e+003,-4.354767e+000
2.740400e+003,-3.452902e+000
2.741364e+003,-1.977011e+000
2.742328e+003,-8.202637e-001
2.743292e+003,-1.559006e+000
2.744257e+003,-2.660858e+000
2.745221e+003,-2.342334e+000
2.746185e+003,-1.454376e+000
2.747149e+003,-1.142596e+000
2.748114e+003,-1.166772e+000
2.749078e+003,-1.175037e+000
2.750042e+003,-1.132578e+000
2.751006e+003,-9.524048e-001
2.751971e+003,-7.032928e-001
2.752935e+003,-5.830292e-001
2.753899e+003,-5.823609e-001
2.754863e+003,-7.066040e-001
2.755828e+003,-8.860931e-001
2.756792e+003,-1.253330e+000
2.757756e+003,-1.441666e+000
2.758720e+003,-6.012848e-001
2.759685e+003,6.918396e-001
2.760649e+003,1.246649e+000
2.761613e+003,1.022699e+000
2.762577e+003,-3.459473e-001
2.763542e+003,-2.506589e+000
2.764506e+003,-2.285028e+000
2.765470e+003,-2.595795e-001
2.766434e+003,7.370575e-001
2.767398e+003,7.467346e-001
2.768363e+003,-4.967895e-001
2.769327e+003,-2.151523e+000
2.770291e+003,-2.414960e+000
2.771255e+003,-1.717148e+000
2.772219e+003,-1.784592e+000
2.773184e+003,-2.453922e+000
2.774148e+003,-1.638281e+000
2.775112e+003,4.701508e-001
2.776076e+003,3.138458e-001
2.777041e+003,-2.146741e+000
2.778005e+003,-2.890018e+000
2.778969e+003,-2.166055e+000
2.779933e+003,-9.145447e-001
2.780898e+003,2.051117e-001
2.781862e+003,-9.432983e-001
2.782826e+003,-3.301034e+000
2.783790e+003,-3.296707e+000
2.784755e+003,-1.107187e+000
2.785719e+003,7.868652e-002
2.786683e+003,-2.046020e-001
2.787647e+003,-5.817932e-001
2.788612e+003,-1.062631e+000
2.789576e+003,-1.790732e+000
2.790540e+003,-2.709503e+000
2.791504e+003,-2.297204e+000
2.792469e+003,-7.588288e-001
2.793433e+003,7.533356e-001
2.794397e+003,1.853561e+000
2.795361e+003,2.066040e+000
2.796325e+003,1.497852e+000
2.797290e+003,7.540588e-001
2.798254e+003,1.962280e-003
2.799218e+003,-6.419495e-001
2.800182e+003,-1.232632e+000
2.801146e+003,-1.487640e+000
2.802111e+003,-1.452298e+000
2.803075e+003,3.981628e-001
2.804039e+003,3.695184e+000
2.805003e+003,4.698752e+000
2.805968e+003,3.341565e+000
2.806932e+003,1.208240e+000
2.807896e+003,-8.838928e-001
2.808860e+003,-1.958228e+000
2.809825e+003,-1.936230e+000
2.810789e+003,-1.925617e+000
2.811753e+003,-2.183673e+000
2.812717e+003,-2.167020e+000
2.813682e+003,-1.837573e+000
2.814646e+003,-1.394907e+000
2.815610e+003,-8.369721e-001
2.816574e+003,-2.393280e-001
2.817539e+003,2.821533e-001
2.818503e+003,2.463379e-001
2.819467e+003,-3.393585e-001
2.820431e+003,-1.179050e+000
2.821396e+003,-2.060202e+000
2.822360e+003,-2.704517e+000
2.823324e+003,-3.117981e+000
2.824288e+003,-2.008935e+000
2.825252e+003,1.502020e+000
2.826217e+003,2.793057e+000
2.827181e+003,1.810703e+000
2.828145e+003,1.394836e+000
2.829109e+003,1.593265e+000
2.830073e+003,1.102097e+000
2.831038e+003,-1.502655e-001
2.832002e+003,-1.994406e+000
2.832966e+003,-3.879471e+000
2.833930e+003,-3.744734e+000
2.834895e+003,-1.141412e+000
2.835859e+003,3.403168e-001
2.836823e+003,2.442688e-001
2.837787e+003,-1.104706e-001
2.838752e+003,-7.585388e-001
2.839716e+003,-8.185272e-001
2.840680e+003,-3.403808e-001
2.841644e+003,8.784790e-002
2.842609e+003,2.810211e-001
2.843573e+003,-9.509277e-002
2.844537e+003,-8.330994e-001
2.845501e+003,-9.763153e-001
2.846466e+003,-4.356720e-001
2.847430e+003,-6.438141e-001
2.848394e+003,-1.861826e+000
2.849358e+003,-2.455597e+000
2.850323e+003,-2.400839e+000
2.851287e+003,-1.790707e+000
2.852251e+003,-8.031036e-001
2.853215e+003,-4.243042e-001
2.854179e+003,-5.852936e-001
2.855144e+003,-7.258514e-001
2.856108e+003,-7.971557e-001
2.857072e+003,-1.058075e+000
2.858036e+003,-1.472415e+000
2.859000e+003,-1.627719e+000
2.859965e+003,-1.507327e+000
2.860929e+003,-5.893127e-001
2.861893e+003,1.146622e+000
2.862857e+003,1.097571e+000
2.863822e+003,-2.105164e-001
2.864786e+003,-1.576935e-001
2.865750e+003,1.009207e+000
2.866714e+003,2.474686e+000
2.867679e+003,3.502270e+000
2.868643e+003,2.344476e+000
2.869607e+003,-3.229706e-001
2.870571e+003,-6.498963e-001
2.871536e+003,1.093411e+000
2.872500e+003,1.636816e+000
2.873464e+003,1.001956e+000
2.874428e+003,4.564606e-001
2.875393e+003,-5.815430e-002
2.876357e+003,-1.230023e+000
2.877321e+003,-2.300090e+000
2.878285e+003,-1.379758e+000
2.879250e+003,7.328705e-001
2.880214e+003,2.640607e+000
2.881178e+003,3.811597e+000
2.882142e+003,3.459561e+000
2.883106e+003,1.941800e+000
2.884071e+003,3.030640e-001
2.885035e+003,-1.161072e+000
2.885999e+003,-3.468140e-001
2.886963e+003,1.620905e+000
2.887927e+003,2.009354e+000
2.888892e+003,1.631674e+000
2.889856e+003,1.920377e+000
2.890820e+003,2.507919e+000
2.891784e+003,2.528049e+000
2.892749e+003,2.387164e+000
2.893713e+003,3.028149e+000
2.894677e+003,3.748859e+000
2.895641e+003,2.779388e+000
2.896606e+003,8.650055e-001
2.897570e+003,-2.681244e-001
2.898534e+003,-5.334778e-001
2.899498e+003,1.100531e+000
2.900463e+003,2.726944e+000
2.901427e+003,1.416422e+000
2.902391e+003,-2.566528e-001
2.903355e+003,1.008804e+000
2.904320e+003,2.749316e+000
2.905284e+003,2.372385e+000
2.906248e+003,1.200485e+000
2.907212e+003,1.205624e+000
2.908177e+003,1.799704e+000
2.909141e+003,2.418445e+000
2.910105e+003,2.542423e+000
2.911069e+003,1.071545e+000
2.912033e+003,-4.422027e-001
2.912998e+003,-8.451172e-001
2.913962e+003,-7.252625e-001
2.914926e+003,-3.746155e-001
2.915890e+003,1.243286e-002
2.916854e+003,3.207367e-001
2.917819e+003,3.169891e-001
2.918783e+003,-3.468475e-001
2.919747e+003,-7.501770e-001
2.920711e+003,4.078155e-001
2.921676e+003,1.712177e+000
2.922640e+003,2.686075e+000
2.923604e+003,2.878766e+000
2.924568e+003,1.765240e+000
2.925533e+003,7.220489e-001
2.926497e+003,1.532166e-001
2.927461e+003,4.591766e-001
2.928425e+003,1.882800e+000
2.929390e+003,3.465576e-001
2.930354e+003,-7.838768e+000
2.931318e+003,-1.296075e+001
2.932282e+003,-5.428230e+000
2.933247e+003,1.278870e-001
2.934211e+003,-1.373679e+000
2.935175e+003,-1.835364e+000
2.936139e+003,-4.842377e-001
2.937104e+003,1.451508e-001
2.938068e+003,-3.622559e-001
2.939032e+003,7.990418e-002
2.939996e+003,1.862967e+000
2.940960e+003,2.789554e+000
2.941925e+003,1.998114e+000
2.942889e+003,6.222900e-001
2.943853e+003,-1.517111e+000
2.944817e+003,-2.244598e+000
2.945781e+003,-1.141853e+000
2.946746e+003,-1.026868e+000
2.947710e+003,-1.922415e+000
2.948674e+003,-1.563780e+000
2.949638e+003,-2.438354e-002
2.950603e+003,1.315582e+000
2.951567e+003,2.030441e+000
2.952531e+003,1.554379e+000
2.953495e+003,8.149719e-002
2.954460e+003,6.239380e-001
2.955424e+003,3.255313e+000
2.956388e+003,2.460819e+000
2.957352e+003,-1.189784e+000
2.958317e+003,-1.867409e+000
2.959281e+003,-4.768662e-001
2.960245e+003,2.618286e-001
2.961209e+003,4.280304e-001
2.962174e+003,7.604706e-001
2.963138e+003,1.171381e+000
2.964102e+003,1.168234e+000
2.965066e+003,1.059604e+000
2.966031e+003,1.625977e+000
2.966995e+003,2.499286e+000
2.967959e+003,2.373245e+000
2.968923e+003,1.740597e+000
2.969887e+003,1.632517e+000
2.970852e+003,1.680371e+000
2.971816e+003,1.340094e+000
2.972780e+003,1.010339e+000
2.973744e+003,1.258731e+000
2.974708e+003,1.525320e+000
2.975673e+003,1.322195e+000
2.976637e+003,9.148102e-001
2.977601e+003,4.966324e-001
2.978565e+003,6.162079e-001
2.979530e+003,2.948273e+000
2.980494e+003,4.842490e+000
2.981458e+003,3.644733e+000
2.982422e+003,2.096561e+000
2.983387e+003,1.665222e+000
2.984351e+003,8.529602e-001
2.985315e+003,-9.920959e-001
2.986279e+003,-2.043018e+000
2.987244e+003,-1.393340e+000
2.988208e+003,-1.337845e-001
2.989172e+003,1.107031e+000
2.990136e+003,1.697623e+000
2.991101e+003,5.150528e-001
2.992065e+003,3.775543e-001
2.993029e+003,2.798401e+000
2.993993e+003,3.335123e+000
2.994958e+003,1.398990e+000
2.995922e+003,-9.181824e-002
2.996886e+003,-4.913483e-001
2.997850e+003,1.406738e-001
2.998814e+003,1.446457e+000
2.999779e+003,2.039896e+000
3.000743e+003,1.536823e+000
3.001707e+003,9.655167e-001
3.002671e+003,4.094605e-001
3.003635e+003,2.551575e-001
3.004600e+003,4.543198e-001
3.005564e+003,2.681595e-001
3.006528e+003,-1.449799e-001
3.007492e+003,-4.286118e-001
3.008457e+003,-2.548203e-001
3.009421e+003,1.532770e+000
3.010385e+003,3.871185e+000
3.011349e+003,4.048053e+000
3.012314e+003,2.540534e+000
3.013278e+003,3.121780e-001
3.014242e+003,-1.876126e+000
3.015206e+003,-1.005173e+000
3.016171e+003,1.214055e+000
3.017135e+003,2.198947e+000
3.018099e+003,2.502100e+000
3.019063e+003,2.615958e+000
3.020028e+003,2.680081e+000
3.020992e+003,3.028842e+000
3.021956e+003,2.547256e+000
3.022920e+003,1.006546e-001
3.023885e+003,-2.157169e+000
3.024849e+003,-1.741922e+000
3.025813e+003,-4.737747e-001
3.026777e+003,4.742737e-001
3.027741e+003,8.074020e-001
3.028706e+003,-2.581162e-001
3.029670e+003,-8.095779e-001
3.030634e+003,-2.721146e-001
3.031598e+003,8.157348e-003
3.032563e+003,-3.745773e-001
3.033527e+003,-1.187622e-001
3.034491e+003,1.249832e+000
3.035455e+003,2.398987e+000
3.036420e+003,2.812399e+000
3.037384e+003,2.444724e+000
3.038348e+003,8.417679e-001
3.039312e+003,-1.394455e-001
3.040277e+003,-4.532440e-001
3.041241e+003,-5.651398e-002
3.042205e+003,8.387192e-001
3.043169e+003,1.632422e+000
3.044134e+003,2.133624e+000
3.045098e+003,2.064766e+000
3.046062e+003,1.563409e+000
3.047026e+003,1.523610e+000
3.047990e+003,1.726585e+000
3.048955e+003,4.768387e-001
3.049919e+003,-1.628967e+000
3.050883e+003,-2.039119e+000
3.051847e+003,-1.324843e+000
3.052812e+003,1.893921e-001
3.053776e+003,1.608200e+000
3.054740e+003,1.848938e+000
3.055704e+003,1.449884e+000
3.056668e+003,8.562714e-001
3.057633e+003,4.491776e-001
3.058597e+003,6.205307e-001
3.059561e+003,1.258049e+000
3.060525e+003,2.734402e+000
3.061490e+003,3.685883e+000
3.062454e+003,2.439674e+000
3.063418e+003,1.415352e+000
3.064382e+003,1.702733e+000
3.065347e+003,1.728816e+000
3.066311e+003,1.068838e+000
3.067275e+003,5.581818e-001
3.068239e+003,5.184326e-001
3.069204e+003,7.026520e-001
3.070168e+003,9.754715e-001
3.071132e+003,5.528747e-001
3.072096e+003,-1.586189e+000
3.073061e+003,-1.790285e+000
3.074025e+003,1.661118e-001
3.074989e+003,1.949918e+000
3.075953e+003,3.283966e+000
3.076917e+003,3.890573e+000
3.077882e+003,3.725812e+000
3.078846e+003,2.460384e+000
3.079810e+003,6.267319e-001
3.080774e+003,-3.885071e-001
3.081739e+003,-6.814072e-001
3.082703e+003,-5.766495e-001
3.083667e+003,-1.728577e-001
3.084631e+003,4.968689e-001
3.085595e+003,9.985016e-001
3.086560e+003,1.352158e-001
3.087524e+003,-6.709595e-001
3.088488e+003,5.933396e-001
3.089452e+003,1.680164e+000
3.090417e+003,1.053085e+000
3.091381e+003,-7.041321e-002
3.092345e+003,-7.692673e-001
3.093309e+003,-1.090929e+000
3.094274e+003,-1.076166e+000
3.095238e+003,-7.268143e-001
3.096202e+003,3.197983e-001
3.097166e+003,1.070107e+000
3.098131e+003,1.284860e+000
3.099095e+003,1.609099e+000
3.100059e+003,2.087264e+000
3.101023e+003,1.482063e+000
3.101988e+003,-1.146439e-001
3.102952e+003,-8.052673e-001
3.103916e+003,-1.525497e-001
3.104880e+003,8.242798e-001
3.105844e+003,2.002560e+000
3.106809e+003,1.450078e+000
3.107773e+003,-5.942535e-001
3.108737e+003,-1.228505e+000
3.109701e+003,-1.021339e+000
3.110666e+003,-1.569096e+000
3.111630e+003,-2.243393e+000
3.112594e+003,-1.831148e+000
3.113558e+003,-7.246460e-001
3.114522e+003,5.986801e-001
3.115487e+003,1.549181e+000
3.116451e+003,1.246172e+000
3.117415e+003,3.311127e-001
3.118379e+003,-4.774033e-001
3.119344e+003,-1.177032e+000
3.120308e+003,-2.146492e+000
3.121272e+003,-2.295846e+000
3.122236e+003,-8.227112e-001
3.123201e+003,-4.232376e-001
3.124165e+003,-1.912088e+000
3.125129e+003,-3.120076e+000
3.126093e+003,-3.120780e+000
3.127058e+003,-2.345773e+000
3.128022e+003,-8.367569e-001
3.128986e+003,2.028503e-002
3.129950e+003,-1.115662e-001
3.130915e+003,-9.343872e-002
3.131879e+003,2.745819e-002
3.132843e+003,-7.198074e-001
3.133807e+003,-1.769720e+000
3.134771e+003,-1.054465e+000
3.135736e+003,5.452576e-001
3.136700e+003,4.905197e-001
3.137664e+003,-4.236542e-001
3.138628e+003,-3.722977e-001
3.139593e+003,9.082641e-002
3.140557e+003,-3.726349e-001
3.141521e+003,-1.151950e+000
3.142485e+003,-1.558417e+000
3.143449e+003,-1.501813e+000
3.144414e+003,1.065674e-002
3.145378e+003,2.453369e-001
3.146342e+003,-2.307324e+000
3.147306e+003,-3.410084e+000
3.148271e+003,-1.159084e+000
3.149235e+003,1.049377e+000
3.150199e+003,1.330881e+000
3.151163e+003,8.515304e-001
3.152128e+003,-1.304474e-002
3.153092e+003,-1.581651e+000
3.154056e+003,-4.146106e+000
3.155020e+003,-3.436256e+000
3.155985e+003,-1.439163e-001
3.156949e+003,1.680159e+000
3.157913e+003,1.732922e+000
3.158877e+003,3.411743e-001
3.159842e+003,-1.548293e+000
3.160806e+003,-1.696082e+000
3.161770e+003,-8.577636e-001
3.162734e+003,-1.063861e+000
3.163698e+003,-1.858644e+000
3.164663e+003,-2.703690e+000
3.165627e+003,-3.061604e+000
3.166591e+003,-2.253966e+000
3.167555e+003,-7.462875e-001
3.168520e+003,1.583466e+000
3.169484e+003,2.859637e+000
3.170448e+003,2.218825e+000
3.171412e+003,1.124226e+000
3.172376e+003,4.318680e-001
3.173341e+003,4.535675e-002
3.174305e+003,-1.702743e-001
3.175269e+003,4.247254e-001
3.176233e+003,2.353824e+000
3.177198e+003,1.408089e+000
3.178162e+003,-1.915984e+000
3.179126e+003,-2.639310e+000
3.180090e+003,-1.254997e+000
3.181055e+003,-8.365494e-001
3.182019e+003,-1.328334e+000
3.182983e+003,-1.235175e+000
3.183947e+003,-6.845627e-001
3.184912e+003,-6.730805e-002
3.185876e+003,6.179596e-001
3.186840e+003,1.990353e+000
3.187804e+003,2.625810e+000
3.188769e+003,8.022461e-002
3.189733e+003,-2.393639e+000
3.190697e+003,-3.129494e+000
3.191661e+003,-3.053754e+000
3.192625e+003,-2.552066e+000
3.193590e+003,-1.545416e+000
3.194554e+003,-3.593445e-002
3.195518e+003,8.728409e-001
3.196482e+003,3.972961e-001
3.197447e+003,4.777328e-001
3.198411e+003,1.451048e+000
3.199375e+003,1.484155e+000
3.200339e+003,7.233444e-001
3.201303e+003,1.377426e-001
3.202268e+003,-2.194672e-002
3.203232e+003,1.121378e+000
3.204196e+003,2.321574e+000
3.205160e+003,8.180466e-001
3.206125e+003,-1.746419e+000
3.207089e+003,-2.476678e+000
3.208053e+003,-1.931335e+000
3.209017e+003,-2.468933e-001
3.209982e+003,1.069708e+000
3.210946e+003,1.278702e-001
3.211910e+003,-4.672455e-001
3.212874e+003,2.955643e-001
3.213839e+003,1.182300e+000
3.214803e+003,1.697266e+000
3.215767e+003,9.953278e-001
3.216731e+003,-1.032640e+000
3.217696e+003,-1.946846e+000
3.218660e+003,-7.447861e-001
3.219624e+003,3.941422e-001
3.220588e+003,1.448202e+000
3.221552e+003,2.189986e+000
3.222517e+003,2.438132e+000
3.223481e+003,9.969025e-001
3.224445e+003,-8.176666e-001
3.225409e+003,-1.936951e-001
3.226374e+003,8.481048e-001
3.227338e+003,-4.033310e-001
3.228302e+003,-1.611490e+000
3.229266e+003,4.087219e-001
3.230230e+003,2.469417e+000
3.231195e+003,2.349411e-001
3.232159e+003,-1.633553e+000
3.233123e+003,-5.817367e-001
3.234087e+003,1.053024e-001
3.235052e+003,-5.339203e-002
3.236016e+003,-1.732651e-001
3.236980e+003,-9.145508e-002
3.237944e+003,-2.549011e-001
3.238909e+003,-6.893402e-001
3.239873e+003,-6.713578e-001
3.240837e+003,-2.693115e-001
3.241801e+003,-4.552200e-001
3.242766e+003,-1.006758e+000
3.243730e+003,-9.265763e-001
3.244694e+003,-6.951004e-001
3.245658e+003,-1.175104e+000
3.246623e+003,-1.664586e+000
3.247587e+003,-1.481248e+000
3.248551e+003,-1.295137e+000
3.249515e+003,-1.546031e+000
3.250479e+003,-1.520180e+000
3.251444e+003,-6.102554e-001
3.252408e+003,8.035278e-002
3.253372e+003,1.456436e-001
3.254336e+003,-9.054047e-001
3.255301e+003,-3.285422e+000
3.256265e+003,-2.519089e+000
3.257229e+003,6.058044e-001
3.258193e+003,1.267456e+000
3.259157e+003,-3.792419e-001
3.260122e+003,-2.595503e+000
3.261086e+003,-4.193454e+000
3.262050e+003,-3.255614e+000
3.263014e+003,-9.575440e-001
3.263979e+003,3.690369e-001
3.264943e+003,1.040398e+000
3.265907e+003,1.479237e+000
3.266871e+003,1.307373e+000
3.267836e+003,-1.872879e-001
3.268800e+003,-8.437683e-001
3.269764e+003,-4.860687e-002
3.270728e+003,5.949097e-001
3.271693e+003,4.516800e-001
3.272657e+003,-4.466202e-001
3.273621e+003,-2.157150e+000
3.274585e+003,-1.831070e+000
3.275550e+003,7.354614e-001
3.276514e+003,5.872299e-001
3.277478e+003,-9.751663e-001
3.278442e+003,2.046204e-002
3.279406e+003,1.927505e+000
3.280371e+003,2.161629e+000
3.281335e+003,1.507689e+000
3.282299e+003,8.005707e-001
3.283263e+003,-2.707504e-001
3.284228e+003,-2.157635e+000
3.285192e+003,-3.070877e+000
3.286156e+003,-5.776871e-001
3.287120e+003,1.321858e+000
3.288084e+003,1.574144e+000
3.289049e+003,1.728665e+000
3.290013e+003,1.852818e+000
3.290977e+003,7.469284e-001
3.291941e+003,-1.067688e+000
3.292906e+003,-1.451353e+000
3.293870e+003,-4.770889e-001
3.294834e+003,5.443603e-001
3.295798e+003,1.082393e+000
3.296763e+003,-1.107776e+000
3.297727e+003,-3.499742e+000
3.298691e+003,-5.796860e-001
3.299655e+003,2.315260e+000
3.300620e+003,9.566803e-002
3.301584e+003,-1.291866e+000
3.302548e+003,-1.665970e-001
3.303512e+003,1.160672e+000
3.304477e+003,1.800255e+000
3.305441e+003,2.393570e+000
3.306405e+003,3.151250e+000
3.307369e+003,2.079791e+000
3.308333e+003,-1.002447e+000
3.309298e+003,-2.854279e-001
3.310262e+003,2.630748e+000
3.311226e+003,3.089867e+000
3.312190e+003,2.172148e+000
3.313155e+003,1.155490e+000
3.314119e+003,5.945724e-001
3.315083e+003,7.752686e-001
3.316047e+003,1.790951e+000
3.317011e+003,3.836862e+000
3.317976e+003,5.104111e+000
3.318940e+003,3.733018e+000
3.319904e+003,2.473627e+000
3.320868e+003,1.890207e+000
3.321833e+003,7.508118e-001
3.322797e+003,-6.491745e-001
3.323761e+003,4.197113e-001
3.324725e+003,2.946822e+000
3.325690e+003,3.504509e+000
3.326654e+003,2.611159e+000
3.327618e+003,2.344011e+000
3.328582e+003,2.243393e+000
3.329547e+003,1.342966e+000
3.330511e+003,3.527603e-001
3.331475e+003,2.980499e-002
3.332439e+003,-3.853454e-002
3.333404e+003,-1.030075e-001
3.334368e+003,5.179214e-001
3.335332e+003,1.869360e+000
3.336296e+003,2.579065e+000
3.337260e+003,2.272469e+000
3.338225e+003,1.232445e+000
3.339189e+003,-3.154541e-001
3.340153e+003,-9.603546e-001
3.341117e+003,-8.416077e-001
3.342082e+003,-7.738220e-001
3.343046e+003,-5.179138e-001
3.344010e+003,1.081972e+000
3.344974e+003,1.955542e+000
3.345938e+003,1.931854e-001
3.346903e+003,-1.624614e+000
3.347867e+003,-2.279114e+000
3.348831e+003,-1.908464e+000
3.349795e+003,-5.543000e-001
3.350760e+003,-1.380920e-001
3.351724e+003,-1.871805e+000
3.352688e+003,-2.553685e+000
3.353652e+003,-2.235550e+000
3.354617e+003,-1.242030e+000
3.355581e+003,-9.944153e-002
3.356545e+003,2.734695e-001
3.357509e+003,-4.840851e-002
3.358474e+003,-9.612182e-001
3.359438e+003,-1.764792e+000
3.360402e+003,-1.861404e+000
3.361366e+003,-1.002669e+000
3.362331e+003,2.186194e+000
3.363295e+003,3.300912e+000
3.364259e+003,-8.280563e-001
3.365223e+003,-1.807315e+000
3.366188e+003,4.768906e-001
3.367152e+003,-1.378006e-001
3.368116e+003,-3.081285e+000
3.369080e+003,-3.979224e+000
3.370044e+003,-3.115353e+000
3.371009e+003,-3.001750e+000
3.371973e+003,-3.369897e+000
3.372937e+003,-3.898596e+000
3.373901e+003,-4.247973e+000
3.374865e+003,-3.734244e+000
3.375830e+003,-3.379880e+000
3.376794e+003,-3.718807e+000
3.377758e+003,-3.661923e+000
3.378722e+003,-3.058667e+000
3.379687e+003,-2.689874e+000
3.380651e+003,-2.712302e+000
3.381615e+003,-2.969186e+000
3.382579e+003,-3.196065e+000
3.383544e+003,-1.998863e+000
3.384508e+003,-6.544342e-002
3.385472e+003,2.158646e-001
3.386436e+003,-3.708344e-001
3.387401e+003,-1.440041e+000
3.388365e+003,-2.149818e+000
3.389329e+003,-2.139584e+000
3.390293e+003,-1.762134e+000
3.391258e+003,-1.174055e+000
3.392222e+003,-2.586304e-001
3.393186e+003,1.041689e+000
3.394150e+003,1.267586e+000
3.395115e+003,2.323334e-001
3.396079e+003,7.921448e-001
3.397043e+003,2.305107e+000
3.398007e+003,2.852655e+000
3.398971e+003,2.963306e+000
3.399936e+003,3.493460e+000
3.400900e+003,3.791513e+000
3.401864e+003,3.415473e+000
3.402828e+003,2.994607e+000
3.403792e+003,2.961868e+000
3.404757e+003,3.373666e+000
3.405721e+003,4.380563e+000
3.406685e+003,5.456134e+000
3.407649e+003,6.552752e+000
3.408614e+003,8.051828e+000
3.409578e+003,9.920853e+000
3.410542e+003,1.262450e+001
3.411506e+003,1.484120e+001
3.412471e+003,1.441190e+001
3.413435e+003,1.337223e+001
3.414399e+003,1.365139e+001
3.415363e+003,1.464523e+001
3.416328e+003,1.600736e+001
3.417292e+003,1.728166e+001
3.418256e+003,1.846937e+001
3.419220e+003,1.872305e+001
3.420185e+003,1.824905e+001
3.421149e+003,1.907437e+001
3.422113e+003,2.063902e+001
3.423077e+003,2.073193e+001
3.424042e+003,1.991191e+001
3.425006e+003,1.970910e+001
3.425970e+003,1.959305e+001
3.426934e+003,1.873598e+001
