7.140112e+001,1.856335e+002
7.236536e+001,1.763748e+002
7.332959e+001,1.794108e+002
7.429382e+001,1.876316e+002
7.525806e+001,2.026860e+002
7.622229e+001,2.092444e+002
7.718652e+001,1.960773e+002
7.815076e+001,1.522390e+002
7.911499e+001,1.227950e+002
8.007922e+001,1.035173e+002
8.104346e+001,9.570378e+001
8.200769e+001,1.017103e+002
8.297192e+001,1.307008e+002
8.393616e+001,1.632857e+002
8.490039e+001,2.051333e+002
8.586462e+001,2.464979e+002
8.682886e+001,2.715014e+002
8.779310e+001,2.453455e+002
8.875733e+001,2.028262e+002
8.972157e+001,1.617678e+002
9.068580e+001,1.290613e+002
9.165003e+001,1.046043e+002
9.261427e+001,9.313723e+001
9.357850e+001,9.044409e+001
9.454273e+001,9.010022e+001
9.550697e+001,8.780920e+001
9.647120e+001,8.307224e+001
9.743543e+001,7.949007e+001
9.839967e+001,7.757566e+001
9.936390e+001,7.605808e+001
1.003281e+002,7.336499e+001
1.012924e+002,6.746220e+001
1.022566e+002,6.253826e+001
1.032208e+002,5.838306e+001
1.041851e+002,5.579467e+001
1.051493e+002,5.618359e+001
1.061135e+002,6.779710e+001
1.070778e+002,7.773386e+001
1.080420e+002,7.887205e+001
1.090062e+002,6.979698e+001
1.099705e+002,5.538027e+001
1.109347e+002,4.628633e+001
1.118989e+002,4.131725e+001
1.128632e+002,4.220192e+001
1.138274e+002,5.036364e+001
1.147916e+002,6.763694e+001
1.157559e+002,7.339518e+001
1.167201e+002,6.347911e+001
1.176843e+002,4.898486e+001
1.186486e+002,4.359396e+001
1.196128e+002,5.568407e+001
1.205770e+002,6.663141e+001
1.215413e+002,7.900455e+001
1.225055e+002,8.945180e+001
1.234697e+002,9.132849e+001
1.244340e+002,6.833927e+001
1.253982e+002,4.447623e+001
1.263624e+002,2.330424e+001
1.273267e+002,7.944177e+000
1.282909e+002,2.136621e+000
1.292551e+002,2.736343e+001
1.302194e+002,6.178743e+001
1.311836e+002,8.575205e+001
1.321478e+002,8.685513e+001
1.331121e+002,6.493294e+001
1.340763e+002,4.587676e+001
1.350405e+002,2.787628e+001
1.360048e+002,1.593416e+001
1.369690e+002,1.679847e+001
1.379332e+002,4.501316e+001
1.388975e+002,6.220437e+001
1.398617e+002,6.482170e+001
1.408259e+002,5.800857e+001
1.417902e+002,4.983983e+001
1.427544e+002,4.160825e+001
1.437186e+002,3.443960e+001
1.446829e+002,2.817654e+001
1.456471e+002,2.307440e+001
1.466113e+002,1.959600e+001
1.475756e+002,1.793057e+001
1.485398e+002,1.880098e+001
1.495040e+002,2.566765e+001
1.504683e+002,3.885574e+001
1.514325e+002,5.533789e+001
1.523967e+002,5.560835e+001
1.533610e+002,4.350964e+001
1.543252e+002,3.006392e+001
1.552894e+002,2.320004e+001
1.562537e+002,2.568554e+001
1.572179e+002,2.687579e+001
1.581821e+002,2.423827e+001
1.591464e+002,2.209314e+001
1.601106e+002,2.591276e+001
1.610748e+002,4.446033e+001
1.620391e+002,5.536372e+001
1.630033e+002,4.935571e+001
1.639676e+002,3.397739e+001
1.649318e+002,2.118341e+001
1.658960e+002,2.596177e+001
1.668603e+002,3.368413e+001
1.678245e+002,3.357694e+001
1.687887e+002,2.585419e+001
1.697530e+002,1.566401e+001
1.707172e+002,1.871464e+001
1.716814e+002,2.988199e+001
1.726457e+002,3.690436e+001
1.736099e+002,3.500391e+001
1.745741e+002,2.377754e+001
1.755384e+002,1.465773e+001
1.765026e+002,5.657178e+000
1.774668e+002,-2.831421e-001
1.784311e+002,-3.525147e-001
1.793953e+002,8.299365e+000
1.803595e+002,1.438315e+001
1.813238e+002,1.594554e+001
1.822880e+002,1.503268e+001
1.832522e+002,1.309109e+001
1.842165e+002,1.087451e+001
1.851807e+002,7.971900e+000
1.861449e+002,2.842773e+000
1.871092e+002,-2.877771e+000
1.880734e+002,-7.227588e+000
1.890376e+002,-7.484448e+000
1.900019e+002,-3.832629e+000
1.909661e+002,2.916174e+000
1.919303e+002,1.250685e+001
1.928946e+002,2.271211e+001
1.938588e+002,2.576331e+001
1.948230e+002,1.645155e+001
1.957873e+002,1.154121e+001
1.967515e+002,1.572720e+001
1.977157e+002,2.872866e+001
1.986800e+002,3.904413e+001
1.996442e+002,4.177871e+001
2.006084e+002,4.507407e+001
2.015727e+002,5.437339e+001
2.025369e+002,7.104912e+001
2.035011e+002,8.129384e+001
2.044654e+002,7.062038e+001
2.054296e+002,5.364962e+001
2.063938e+002,3.801200e+001
2.073581e+002,2.883768e+001
2.083223e+002,2.483167e+001
2.092865e+002,2.006033e+001
2.102508e+002,1.587761e+001
2.112150e+002,1.675703e+001
2.121792e+002,2.756639e+001
2.131435e+002,5.202244e+001
2.141077e+002,6.619181e+001
2.150719e+002,6.676943e+001
2.160362e+002,6.055068e+001
2.170004e+002,5.754650e+001
2.179646e+002,6.149035e+001
2.189289e+002,6.352693e+001
2.198931e+002,5.957578e+001
2.208573e+002,5.335436e+001
2.218216e+002,5.196207e+001
2.227858e+002,6.380723e+001
2.237500e+002,7.840916e+001
2.247143e+002,9.716355e+001
2.256785e+002,1.160897e+002
2.266427e+002,1.275736e+002
2.276070e+002,1.100436e+002
2.285712e+002,7.827232e+001
2.295354e+002,5.029407e+001
2.304997e+002,3.148682e+001
2.314639e+002,2.095817e+001
2.324281e+002,1.395135e+001
2.333924e+002,1.034957e+001
2.343566e+002,9.016602e+000
2.353208e+002,1.079503e+001
2.362851e+002,1.665204e+001
2.372493e+002,1.899115e+001
2.382135e+002,1.479738e+001
2.391778e+002,1.015342e+001
2.401420e+002,8.523999e+000
2.411062e+002,1.159239e+001
2.420705e+002,1.358917e+001
2.430347e+002,9.948425e+000
2.439989e+002,4.592322e+000
2.449632e+002,2.884888e-001
2.459274e+002,-8.518432e-001
2.468916e+002,3.524414e-001
2.478559e+002,1.920874e+000
2.488201e+002,3.628113e+000
2.497843e+002,4.854712e+000
2.507486e+002,4.845813e+000
2.517128e+002,3.198120e+000
2.526770e+002,3.767908e+000
2.536413e+002,7.933264e+000
2.546055e+002,1.300066e+001
2.555697e+002,1.452833e+001
2.565340e+002,7.666504e+000
2.574982e+002,4.108398e+000
2.584625e+002,7.505835e+000
2.594267e+002,1.439739e+001
2.603909e+002,1.862742e+001
2.613552e+002,1.426165e+001
2.623194e+002,8.602918e+000
2.632836e+002,3.882947e+000
2.642479e+002,7.537964e-001
2.652121e+002,-4.060059e-001
2.661763e+002,2.330139e+000
2.671406e+002,6.720740e+000
2.681048e+002,9.157593e+000
2.690690e+002,9.028333e+000
2.700333e+002,7.160901e+000
2.709975e+002,7.003528e+000
2.719617e+002,9.561121e+000
2.729260e+002,1.063875e+001
2.738902e+002,8.467566e+000
2.748544e+002,3.108740e+000
2.758187e+002,-7.638916e-001
2.767829e+002,-2.267236e+000
2.777471e+002,-3.182092e+000
2.787114e+002,-3.991492e+000
2.796756e+002,-4.716687e+000
2.806398e+002,-4.574780e+000
2.816041e+002,-2.821289e+000
2.825683e+002,-3.613159e-001
2.835325e+002,2.789319e+000
2.844968e+002,6.461853e+000
2.854610e+002,1.002011e+001
2.864252e+002,1.253861e+001
2.873895e+002,1.393163e+001
2.883537e+002,1.326378e+001
2.893179e+002,9.932068e+000
2.902822e+002,3.769617e+000
2.912464e+002,-5.260254e-001
2.922106e+002,-2.989282e+000
2.931749e+002,-4.581653e+000
2.941391e+002,-5.826941e+000
2.951033e+002,-6.670618e+000
2.960676e+002,-7.642639e+000
2.970318e+002,-1.012708e+001
2.979960e+002,-1.161510e+001
2.989603e+002,-1.001775e+001
2.999245e+002,-3.928638e+000
3.008887e+002,3.040417e+000
3.018530e+002,9.294787e+000
3.028172e+002,1.442249e+001
3.037814e+002,1.783497e+001
3.047457e+002,1.901516e+001
3.057099e+002,1.831294e+001
3.066741e+002,1.763025e+001
3.076384e+002,1.676185e+001
3.086026e+002,1.478577e+001
3.095668e+002,1.056003e+001
3.105311e+002,2.899353e+000
3.114953e+002,-2.107459e+000
3.124595e+002,-4.031885e+000
3.134238e+002,-4.139099e+000
3.143880e+002,-3.863867e+000
3.153522e+002,-3.424243e+000
3.163165e+002,-2.248718e+000
3.172807e+002,6.917602e-001
3.182449e+002,4.151416e+000
3.192092e+002,6.454749e+000
3.201734e+002,5.654382e+000
3.211376e+002,4.998804e+000
3.221019e+002,7.428674e+000
3.230661e+002,1.181884e+001
3.240303e+002,1.664135e+001
3.249946e+002,2.027079e+001
3.259588e+002,2.199509e+001
3.269230e+002,2.079635e+001
3.278873e+002,1.654570e+001
3.288515e+002,1.120536e+001
3.298157e+002,8.261597e+000
3.307800e+002,9.676953e+000
3.317442e+002,1.084628e+001
3.327084e+002,1.095177e+001
3.336727e+002,1.085026e+001
3.346369e+002,1.235126e+001
3.356011e+002,1.863387e+001
3.365654e+002,2.247924e+001
3.375296e+002,2.073198e+001
3.384938e+002,1.587789e+001
3.394581e+002,1.180071e+001
3.404223e+002,1.198879e+001
3.413865e+002,1.410404e+001
3.423508e+002,1.639174e+001
3.433150e+002,1.852889e+001
3.442792e+002,2.002884e+001
3.452435e+002,1.983834e+001
3.462077e+002,1.815332e+001
3.471719e+002,1.887332e+001
3.481362e+002,2.184807e+001
3.491004e+002,2.764651e+001
3.500646e+002,3.747746e+001
3.510289e+002,4.899062e+001
3.519931e+002,7.014294e+001
3.529573e+002,1.036068e+002
3.539216e+002,1.460286e+002
3.548858e+002,1.941073e+002
3.558500e+002,2.666001e+002
3.568143e+002,3.141578e+002
3.577785e+002,3.153667e+002
3.587427e+002,2.814753e+002
3.597070e+002,2.311656e+002
3.606712e+002,1.756864e+002
3.616354e+002,1.238148e+002
3.625997e+002,8.509184e+001
3.635639e+002,5.944694e+001
3.645281e+002,4.429988e+001
3.654924e+002,3.526892e+001
3.664566e+002,3.432867e+001
3.674208e+002,3.225695e+001
3.683851e+002,2.872513e+001
3.693493e+002,2.407732e+001
3.703135e+002,1.896051e+001
3.712778e+002,1.140668e+001
3.722420e+002,6.797900e+000
3.732062e+002,6.651330e+000
3.741705e+002,9.258020e+000
3.751347e+002,1.208357e+001
3.760989e+002,1.403802e+001
3.770632e+002,1.566370e+001
3.780274e+002,1.739544e+001
3.789916e+002,1.891206e+001
3.799559e+002,1.979382e+001
3.809201e+002,1.963541e+001
3.818844e+002,1.841370e+001
3.828486e+002,1.619768e+001
3.838128e+002,1.314194e+001
3.847771e+002,1.022978e+001
3.857413e+002,8.934839e+000
3.867055e+002,1.013452e+001
3.876698e+002,1.104625e+001
3.886340e+002,1.018370e+001
3.895982e+002,9.535901e+000
3.905625e+002,1.245475e+001
3.915267e+002,2.326741e+001
3.924909e+002,3.021333e+001
3.934552e+002,3.017974e+001
3.944194e+002,2.637748e+001
3.953836e+002,2.175083e+001
3.963479e+002,1.720277e+001
3.973121e+002,1.460515e+001
3.982763e+002,1.644355e+001
3.992406e+002,2.048445e+001
4.002048e+002,2.350323e+001
4.011690e+002,2.234055e+001
4.021333e+002,1.770333e+001
4.030975e+002,1.614360e+001
4.040617e+002,1.765948e+001
4.050260e+002,1.995111e+001
4.059902e+002,2.048298e+001
4.069544e+002,1.780836e+001
4.079187e+002,1.761636e+001
4.088829e+002,2.194492e+001
4.098471e+002,2.649219e+001
4.108114e+002,2.756221e+001
4.117756e+002,2.338893e+001
4.127398e+002,2.022079e+001
4.137041e+002,2.102307e+001
4.146683e+002,2.323154e+001
4.156325e+002,2.536887e+001
4.165968e+002,2.661721e+001
4.175610e+002,2.693879e+001
4.185252e+002,2.565085e+001
4.194895e+002,2.379390e+001
4.204537e+002,2.265720e+001
4.214179e+002,2.305786e+001
4.223822e+002,2.496410e+001
4.233464e+002,2.789530e+001
4.243106e+002,3.250322e+001
4.252749e+002,3.548864e+001
4.262391e+002,3.375908e+001
4.272033e+002,2.652799e+001
4.281676e+002,2.461277e+001
4.291318e+002,3.243755e+001
4.300960e+002,4.133736e+001
4.310603e+002,4.701730e+001
4.320245e+002,4.947601e+001
4.329887e+002,5.486554e+001
4.339530e+002,6.774939e+001
4.349172e+002,8.645679e+001
4.358814e+002,1.126949e+002
4.368457e+002,1.456026e+002
4.378099e+002,1.829457e+002
4.387741e+002,2.269378e+002
4.397384e+002,2.702423e+002
4.407026e+002,2.874106e+002
4.416668e+002,2.713281e+002
4.426311e+002,2.303394e+002
4.435953e+002,1.920772e+002
4.445595e+002,1.544453e+002
4.455238e+002,1.234427e+002
4.464880e+002,1.005715e+002
4.474522e+002,8.441420e+001
4.484165e+002,7.259560e+001
4.493807e+002,6.815804e+001
4.503449e+002,6.387962e+001
4.513092e+002,5.652241e+001
4.522734e+002,4.796477e+001
4.532376e+002,4.138423e+001
4.542019e+002,4.013485e+001
4.551661e+002,4.084156e+001
4.561303e+002,3.827843e+001
4.570946e+002,3.347393e+001
4.580588e+002,2.866985e+001
4.590230e+002,2.632343e+001
4.599873e+002,2.671466e+001
4.609515e+002,2.631269e+001
4.619157e+002,2.468868e+001
4.628800e+002,2.307219e+001
4.638442e+002,2.250481e+001
4.648084e+002,2.312076e+001
4.657727e+002,2.459550e+001
4.667369e+002,2.825190e+001
4.677011e+002,3.155096e+001
4.686654e+002,3.261561e+001
4.696296e+002,3.080083e+001
4.705938e+002,2.852826e+001
4.715581e+002,2.813469e+001
4.725223e+002,2.777672e+001
4.734865e+002,2.591211e+001
4.744508e+002,2.215944e+001
4.754150e+002,1.764503e+001
4.763792e+002,1.496916e+001
4.773435e+002,1.375829e+001
4.783077e+002,1.387957e+001
4.792719e+002,1.558479e+001
4.802362e+002,1.835470e+001
4.812004e+002,1.909727e+001
4.821646e+002,1.547732e+001
4.831289e+002,1.248823e+001
4.840931e+002,1.021939e+001
4.850573e+002,8.791296e+000
4.860216e+002,8.719226e+000
4.869858e+002,1.222828e+001
4.879500e+002,1.484264e+001
4.889143e+002,1.478070e+001
4.898785e+002,1.291947e+001
4.908427e+002,1.063630e+001
4.918070e+002,8.833325e+000
4.927712e+002,7.624475e+000
4.937354e+002,7.066565e+000
4.946997e+002,7.047174e+000
4.956639e+002,7.379089e+000
4.966281e+002,7.900281e+000
4.975924e+002,8.653778e+000
4.985566e+002,7.746033e+000
4.995208e+002,3.810089e+000
5.004851e+002,5.746643e-001
5.014493e+002,1.406012e+000
5.024135e+002,7.618896e+000
5.033778e+002,1.161169e+001
5.043420e+002,1.116595e+001
5.053063e+002,1.020758e+001
5.062705e+002,1.080313e+001
5.072347e+002,1.314322e+001
5.081990e+002,1.481755e+001
5.091632e+002,1.238418e+001
5.101274e+002,8.994306e+000
5.110917e+002,6.183337e+000
5.120559e+002,4.466449e+000
5.130201e+002,3.742725e+000
5.139844e+002,4.057477e+000
5.149486e+002,5.221033e+000
5.159128e+002,5.515741e+000
5.168771e+002,4.569293e+000
5.178413e+002,2.998480e+000
5.188055e+002,2.147400e+000
5.197698e+002,2.753204e+000
5.207340e+002,2.970563e+000
5.216982e+002,2.642395e+000
5.226625e+002,1.973914e+000
5.236267e+002,9.328858e-001
5.245909e+002,-9.917420e-001
5.255552e+002,-1.730530e+000
5.265194e+002,5.935303e-001
5.274836e+002,3.769098e+000
5.284479e+002,6.073456e+000
5.294121e+002,6.532880e+000
5.303763e+002,5.550806e+000
5.313406e+002,2.598242e+000
5.323048e+002,-1.153088e+000
5.332690e+002,-2.739545e+000
5.342333e+002,-5.803772e-001
5.351975e+002,4.649341e+000
5.361617e+002,7.362475e+000
5.371260e+002,6.009790e+000
5.380902e+002,4.707642e+000
5.390544e+002,4.165552e+000
5.400187e+002,4.104712e+000
5.409829e+002,3.731354e+000
5.419471e+002,2.528052e+000
5.429114e+002,1.616510e+000
5.438756e+002,1.396167e+000
5.448398e+002,1.581677e+000
5.458041e+002,1.722827e+000
5.467683e+002,1.477911e+000
5.477325e+002,1.195209e+000
5.486968e+002,1.519348e+000
5.496610e+002,2.142584e+000
5.506252e+002,2.453589e+000
5.515895e+002,1.945904e+000
5.525537e+002,6.241394e-001
5.535179e+002,-4.347962e-001
5.544822e+002,-1.400696e+000
5.554464e+002,-1.796606e+000
5.564106e+002,-1.077393e+000
5.573749e+002,7.351502e-001
5.583391e+002,1.771460e+000
5.593033e+002,7.220703e-001
5.602676e+002,1.310852e-001
5.612318e+002,1.145648e+000
5.621960e+002,3.282104e+000
5.631603e+002,4.955786e+000
5.641245e+002,4.905225e+000
5.650887e+002,4.002215e+000
5.660530e+002,2.684113e+000
5.670172e+002,1.199005e+000
5.679814e+002,-1.483582e-001
5.689457e+002,-1.047736e+000
5.699099e+002,-1.428101e+000
5.708741e+002,-8.523865e-001
5.718384e+002,9.510864e-001
5.728026e+002,2.429486e+000
5.737668e+002,1.887073e+000
5.747311e+002,-1.448029e+000
5.756953e+002,-3.004632e+000
5.766595e+002,-1.281439e+000
5.776238e+002,3.984985e-001
5.785880e+002,6.979797e-001
5.795522e+002,-3.782410e-001
5.805165e+002,-1.619208e+000
5.814807e+002,-2.201105e+000
5.824449e+002,-2.690338e+000
5.834092e+002,-3.757159e+000
5.843734e+002,-5.102918e+000
5.853376e+002,-5.889465e+000
5.863019e+002,-5.037354e+000
5.872661e+002,-2.774280e+000
5.882303e+002,-7.873963e-001
5.891946e+002,9.665467e-001
5.901588e+002,1.990967e+000
5.911230e+002,1.494238e+000
5.920873e+002,-1.381152e+000
5.930515e+002,-2.360864e+000
5.940157e+002,1.761291e-001
5.949800e+002,2.384228e+000
5.959442e+002,1.848578e+000
5.969084e+002,-1.456390e+000
5.978727e+002,-4.104480e+000
5.988369e+002,-3.431305e+000
5.998011e+002,-2.222394e+000
6.007654e+002,-1.250250e+000
6.017296e+002,-7.480041e-001
6.026938e+002,-7.454101e-001
6.036581e+002,-1.429755e+000
6.046223e+002,-2.499823e+000
6.055865e+002,-2.877393e+000
6.065508e+002,-2.580280e+000
6.075150e+002,-2.214014e+000
6.084792e+002,-2.487952e+000
6.094435e+002,-3.668640e+000
6.104077e+002,-3.947455e+000
6.113719e+002,-2.676367e+000
6.123362e+002,-1.558575e+000
6.133004e+002,-1.698297e+000
6.142646e+002,-3.105255e+000
6.152289e+002,-4.091321e+000
6.161931e+002,-3.418518e+000
6.171573e+002,-2.699731e+000
6.181216e+002,-2.409253e+000
6.190858e+002,-2.508655e+000
6.200500e+002,-2.735565e+000
6.210143e+002,-2.931488e+000
6.219785e+002,-3.082117e+000
6.229427e+002,-3.194726e+000
6.239070e+002,-3.255640e+000
6.248712e+002,-3.145239e+000
6.258354e+002,-2.709766e+000
6.267997e+002,-1.840790e+000
6.277639e+002,-9.902649e-001
6.287281e+002,1.730042e-001
6.296924e+002,7.910889e-001
6.306566e+002,3.041992e-002
6.316208e+002,-1.925134e+000
6.325851e+002,-3.027350e+000
6.335493e+002,-2.013715e+000
6.345135e+002,-4.583435e-001
6.354778e+002,1.827356e+000
6.364420e+002,4.227997e+000
6.374063e+002,5.751398e+000
6.383705e+002,5.462793e+000
6.393347e+002,4.244061e+000
6.402990e+002,3.604352e+000
6.412632e+002,3.472314e+000
6.422274e+002,3.700653e+000
6.431917e+002,4.174390e+000
6.441559e+002,4.851062e+000
6.451201e+002,5.170624e+000
6.460844e+002,4.980542e+000
6.470486e+002,4.801147e+000
6.480128e+002,4.974133e+000
6.489771e+002,5.347192e+000
6.499413e+002,5.194226e+000
6.509055e+002,3.725610e+000
6.518698e+002,2.522137e+000
6.528340e+002,2.119635e+000
6.537982e+002,2.206549e+000
6.547625e+002,2.338727e+000
6.557267e+002,2.246332e+000
6.566909e+002,2.112805e+000
6.576552e+002,2.445251e+000
6.586194e+002,2.865668e+000
6.595836e+002,2.697919e+000
6.605479e+002,1.655835e+000
6.615121e+002,9.830322e-002
6.624763e+002,-5.856873e-001
6.634406e+002,-2.788086e-002
6.644048e+002,4.045166e-001
6.653690e+002,3.175598e-001
6.663333e+002,-4.552002e-002
6.672975e+002,-2.221069e-001
6.682617e+002,-3.066894e-001
6.692260e+002,4.507996e-001
6.701902e+002,3.487885e+000
6.711544e+002,6.391742e+000
6.721187e+002,6.782861e+000
6.730829e+002,3.940735e+000
6.740471e+002,2.270691e-001
6.750114e+002,-1.153674e+000
6.759756e+002,-1.408392e+000
6.769398e+002,-1.617078e+000
6.779041e+002,-2.024316e+000
6.788683e+002,-2.312176e+000
6.798325e+002,-1.877283e+000
6.807968e+002,-4.117859e-001
6.817610e+002,6.701660e-001
6.827252e+002,1.443720e+000
6.836895e+002,1.820923e+000
6.846537e+002,1.555475e+000
6.856179e+002,4.679993e-001
6.865822e+002,-3.797119e-001
6.875464e+002,-8.576782e-001
6.885106e+002,-9.364502e-001
6.894749e+002,-3.435974e-001
6.904391e+002,7.376099e-001
6.914034e+002,1.774091e+000
6.923676e+002,2.310724e+000
6.933318e+002,2.506348e+000
6.942961e+002,2.737079e+000
6.952603e+002,2.907599e+000
6.962245e+002,2.586133e+000
6.971888e+002,1.324768e+000
6.981530e+002,-9.319336e-001
6.991172e+002,-1.918982e+000
7.000815e+002,-1.442615e+000
7.010457e+002,-5.912353e-001
7.020099e+002,6.534851e-001
7.029742e+002,2.137457e+000
7.039384e+002,2.947626e+000
7.049026e+002,2.299438e+000
7.058669e+002,1.626148e+000
7.068311e+002,1.064838e+000
7.077953e+002,7.827331e-001
7.087596e+002,1.130194e+000
7.097238e+002,2.358166e+000
7.106880e+002,3.752087e+000
7.116523e+002,3.774353e+000
7.126165e+002,3.170074e+000
7.135807e+002,3.269702e+000
7.145450e+002,4.570233e+000
7.155092e+002,6.377917e+000
7.164734e+002,6.731891e+000
7.174377e+002,4.550720e+000
7.184019e+002,3.109729e+000
7.193661e+002,2.595502e+000
7.203304e+002,2.599878e+000
7.212946e+002,2.925403e+000
7.222589e+002,3.786261e+000
7.232231e+002,4.052484e+000
7.241873e+002,2.567010e+000
7.251516e+002,1.120825e+000
7.261158e+002,6.668884e-001
7.270800e+002,1.214539e+000
7.280443e+002,2.143390e+000
7.290085e+002,3.047137e+000
7.299727e+002,3.711407e+000
7.309370e+002,3.654156e+000
7.319012e+002,2.981482e+000
7.328654e+002,2.267749e+000
7.338297e+002,2.026080e+000
7.347939e+002,2.267346e+000
7.357581e+002,2.482684e+000
7.367224e+002,2.992560e+000
7.376866e+002,3.088440e+000
7.386508e+002,2.177338e+000
7.396151e+002,6.985718e-001
7.405793e+002,-4.897461e-002
7.415435e+002,8.243958e-001
7.425078e+002,1.634247e+000
7.434720e+002,1.599353e+000
7.444362e+002,1.088385e+000
7.454005e+002,3.900208e-001
7.463647e+002,-3.172790e-001
7.473289e+002,-8.656128e-001
7.482932e+002,-7.195007e-001
7.492574e+002,-1.131836e-001
7.502216e+002,2.153625e-001
7.511859e+002,2.561646e-002
7.521501e+002,-2.845947e-001
7.531143e+002,1.979004e-001
7.540786e+002,2.544177e+000
7.550428e+002,3.026721e+000
7.560070e+002,-3.232422e-002
7.569713e+002,-2.966956e+000
7.579355e+002,-3.228168e+000
7.588997e+002,-8.522705e-001
7.598640e+002,1.206378e+000
7.608282e+002,6.237671e-001
7.617924e+002,1.036560e-001
7.627567e+002,1.106842e+000
7.637209e+002,3.280530e+000
7.646851e+002,5.653351e+000
7.656494e+002,7.421496e+000
7.666136e+002,8.980255e+000
7.675778e+002,1.294779e+001
7.685421e+002,1.893580e+001
7.695063e+002,2.230164e+001
7.704705e+002,2.052355e+001
7.714348e+002,1.469797e+001
7.723990e+002,9.055280e+000
7.733632e+002,2.324719e+000
7.743275e+002,-1.956262e+000
7.752917e+002,-2.238898e+000
7.762559e+002,-1.047467e+000
7.772202e+002,-6.429566e-001
7.781844e+002,-1.613379e+000
7.791486e+002,-2.452899e+000
7.801129e+002,-1.444031e+000
7.810771e+002,-5.157471e-003
7.820413e+002,1.244434e+000
7.830056e+002,2.060071e+000
7.839698e+002,2.170514e+000
7.849340e+002,1.192999e+000
7.858983e+002,-7.967529e-001
7.868625e+002,-1.755383e+000
7.878267e+002,-1.603131e+000
7.887910e+002,-1.131421e+000
7.897552e+002,-6.697266e-001
7.907194e+002,-1.993347e-001
7.916837e+002,3.304566e-001
7.926479e+002,1.342426e+000
7.936121e+002,1.737665e+000
7.945764e+002,8.611206e-001
7.955406e+002,-5.091308e-001
7.965048e+002,-1.591168e+000
7.974691e+002,-2.036292e+000
7.984333e+002,-1.921472e+000
7.993975e+002,-8.592469e-001
8.003618e+002,4.168579e-001
8.013260e+002,9.958008e-001
8.022902e+002,7.697083e-001
8.032545e+002,3.729675e-001
8.042187e+002,7.780334e-001
8.051829e+002,2.198554e+000
8.061472e+002,3.432751e+000
8.071114e+002,4.744598e+000
8.080756e+002,5.569171e+000
8.090399e+002,5.393433e+000
8.100041e+002,4.398725e+000
8.109683e+002,3.699121e+000
8.119326e+002,3.662946e+000
8.128968e+002,3.852393e+000
8.138610e+002,4.166944e+000
8.148253e+002,4.566424e+000
8.157895e+002,4.789636e+000
8.167537e+002,4.764630e+000
8.177180e+002,5.213458e+000
8.186822e+002,8.436633e+000
8.196464e+002,1.311397e+001
8.206107e+002,1.611949e+001
8.215749e+002,1.665927e+001
8.225391e+002,1.586526e+001
8.235034e+002,1.551709e+001
8.244676e+002,1.584449e+001
8.254318e+002,1.582815e+001
8.263961e+002,1.541382e+001
8.273603e+002,1.498343e+001
8.283245e+002,1.476102e+001
8.292888e+002,1.463518e+001
8.302530e+002,1.419600e+001
8.312172e+002,1.304345e+001
8.321815e+002,1.187284e+001
8.331457e+002,1.123018e+001
8.341099e+002,1.090776e+001
8.350742e+002,1.069722e+001
8.360384e+002,1.044343e+001
8.370026e+002,9.968427e+000
8.379669e+002,8.660565e+000
8.389311e+002,6.463464e+000
8.398953e+002,5.349994e+000
8.408596e+002,6.063605e+000
8.418238e+002,7.188422e+000
8.427880e+002,7.003241e+000
8.437523e+002,5.240222e+000
8.447165e+002,3.613483e+000
8.456807e+002,2.254639e+000
8.466450e+002,1.158820e+000
8.476092e+002,4.394226e-001
8.485734e+002,-7.135010e-002
8.495377e+002,-8.190735e-001
8.505019e+002,-2.239148e+000
8.514661e+002,-3.188458e+000
8.524304e+002,-1.498944e+000
8.533946e+002,1.424304e+000
8.543588e+002,3.433661e+000
8.553231e+002,3.702332e+000
8.562873e+002,2.759454e+000
8.572515e+002,1.766541e+000
8.582158e+002,7.347839e-001
8.591800e+002,-4.401001e-001
8.601442e+002,-2.910260e+000
8.611085e+002,-4.491516e+000
8.620727e+002,-2.735376e+000
8.630369e+002,2.014410e+000
8.640012e+002,4.829974e+000
8.649654e+002,2.371845e+000
8.659296e+002,-5.089782e-001
8.668939e+002,-2.115472e+000
8.678581e+002,-2.616357e+000
8.688223e+002,-2.275574e+000
8.697866e+002,-1.296753e+000
8.707508e+002,-6.008911e-002
8.717150e+002,6.129028e-001
8.726793e+002,8.257019e-001
8.736435e+002,1.151709e+000
8.746077e+002,1.788995e+000
8.755720e+002,2.256561e+000
8.765362e+002,1.844086e+000
8.775004e+002,3.276428e-001
8.784647e+002,-1.089374e+000
8.794289e+002,-2.857135e+000
8.803931e+002,-4.038745e+000
8.813574e+002,-4.223413e+000
8.823216e+002,-3.628534e+000
8.832858e+002,-2.434265e+000
8.842501e+002,-3.775513e-001
8.852143e+002,1.096338e+000
8.861785e+002,-3.508301e-001
8.871428e+002,-2.873145e+000
8.881070e+002,-4.191516e+000
8.890712e+002,-3.748230e+000
8.900355e+002,-2.712646e+000
8.909997e+002,-2.972375e+000
8.919639e+002,-4.791883e+000
8.929282e+002,-5.767023e+000
8.938924e+002,-5.748224e+000
8.948566e+002,-5.278406e+000
8.958209e+002,-4.209210e+000
8.967851e+002,-2.807428e+000
8.977493e+002,-2.323932e+000
8.987136e+002,-3.715393e+000
8.996778e+002,-4.986310e+000
9.006420e+002,-5.219190e+000
9.016063e+002,-5.067639e+000
9.025705e+002,-5.064032e+000
9.035347e+002,-5.390265e+000
9.044990e+002,-5.975061e+000
9.054632e+002,-6.942517e+000
9.064274e+002,-8.048895e+000
9.073917e+002,-8.150604e+000
9.083559e+002,-7.157123e+000
9.093201e+002,-6.127777e+000
9.102844e+002,-6.005408e+000
9.112486e+002,-6.722522e+000
9.122128e+002,-6.823480e+000
9.131771e+002,-6.020587e+000
9.141413e+002,-4.857727e+000
9.151055e+002,-2.373389e+000
9.160698e+002,-1.660095e-001
9.170340e+002,-2.585388e-001
9.179982e+002,-3.006824e+000
9.189625e+002,-5.754822e+000
9.199267e+002,-6.088525e+000
9.208909e+002,-5.447162e+000
9.218552e+002,-4.947699e+000
9.228194e+002,-4.726617e+000
9.237836e+002,-4.937598e+000
9.247479e+002,-5.720343e+000
9.257121e+002,-6.783521e+000
9.266763e+002,-6.295722e+000
9.276406e+002,-2.831683e+000
9.286048e+002,-1.100317e+000
9.295690e+002,-2.855066e+000
9.305333e+002,-5.696161e+000
9.314975e+002,-6.790094e+000
9.324617e+002,-5.742999e+000
9.334260e+002,-4.943805e+000
9.343902e+002,-6.065711e+000
9.353545e+002,-7.066541e+000
9.363187e+002,-7.060492e+000
9.372830e+002,-6.261529e+000
9.382472e+002,-5.006146e+000
9.392114e+002,-3.513355e+000
9.401757e+002,-2.171759e+000
9.411399e+002,-2.395068e+000
9.421041e+002,-3.924908e+000
9.430684e+002,-4.649835e+000
9.440326e+002,-4.087866e+000
9.449968e+002,-2.929529e+000
9.459611e+002,-1.780005e+000
9.469253e+002,-4.449707e-001
9.478895e+002,4.664307e-002
9.488538e+002,-1.327118e+000
9.498180e+002,-2.545685e+000
9.507822e+002,-3.112634e+000
9.517465e+002,-3.205737e+000
9.527107e+002,-3.247742e+000
9.536749e+002,-3.399878e+000
9.546392e+002,-3.079510e+000
9.556034e+002,-7.206055e-001
9.565676e+002,2.108521e+000
9.575319e+002,3.328699e+000
9.584961e+002,2.794025e+000
9.594603e+002,1.527826e+000
9.604246e+002,4.919495e-001
9.613888e+002,-3.504700e-001
9.623530e+002,-4.742249e-001
9.633173e+002,2.105286e-001
9.642815e+002,1.448718e+000
9.652457e+002,3.423962e+000
9.662100e+002,5.936572e+000
9.671742e+002,8.566480e+000
9.681384e+002,1.117093e+001
9.691027e+002,1.441804e+001
9.700669e+002,1.468281e+001
9.710311e+002,1.954902e+001
9.719954e+002,3.825038e+001
9.729596e+002,6.583775e+001
9.739238e+002,9.258691e+001
9.748881e+002,1.115543e+002
9.758523e+002,1.207685e+002
9.768165e+002,1.112137e+002
9.777808e+002,7.808942e+001
9.787450e+002,5.162743e+001
9.797092e+002,3.645134e+001
9.806735e+002,2.759258e+001
9.816377e+002,2.090884e+001
9.826019e+002,1.642817e+001
9.835662e+002,1.408767e+001
9.845304e+002,1.606433e+001
9.854946e+002,1.780400e+001
9.864589e+002,1.772087e+001
9.874231e+002,1.655156e+001
9.883873e+002,1.496195e+001
9.893516e+002,1.334150e+001
9.903158e+002,1.223620e+001
9.912800e+002,1.253453e+001
9.922443e+002,1.425732e+001
9.932085e+002,1.640368e+001
9.941727e+002,1.893180e+001
9.951370e+002,2.238965e+001
9.961012e+002,2.636853e+001
9.970654e+002,3.113465e+001
9.980297e+002,3.878688e+001
9.989939e+002,3.789957e+001
9.999581e+002,6.200289e+001
1.000922e+003,1.216136e+002
1.001887e+003,1.988824e+002
1.002851e+003,3.067699e+002
1.003815e+003,4.267750e+002
1.004779e+003,4.897171e+002
1.005744e+003,4.328022e+002
1.006708e+003,3.168679e+002
1.007672e+003,2.278895e+002
1.008636e+003,1.617630e+002
1.009600e+003,1.148051e+002
1.010565e+003,8.579618e+001
1.011529e+003,6.953688e+001
1.012493e+003,5.652944e+001
1.013457e+003,4.756532e+001
1.014422e+003,4.026231e+001
1.015386e+003,3.450272e+001
1.016350e+003,3.008208e+001
1.017314e+003,2.741279e+001
1.018279e+003,2.578424e+001
1.019243e+003,2.387991e+001
1.020207e+003,2.118203e+001
1.021171e+003,1.877938e+001
1.022135e+003,1.774312e+001
1.023100e+003,1.738510e+001
1.024064e+003,1.739527e+001
1.025028e+003,1.752282e+001
1.025992e+003,1.732117e+001
1.026957e+003,1.640290e+001
1.027921e+003,1.496777e+001
1.028885e+003,1.407786e+001
1.029849e+003,1.385403e+001
1.030814e+003,1.392551e+001
1.031778e+003,1.430419e+001
1.032742e+003,1.475595e+001
1.033706e+003,1.517704e+001
1.034671e+003,1.561032e+001
1.035635e+003,1.598194e+001
1.036599e+003,1.633608e+001
1.037563e+003,1.649135e+001
1.038527e+003,1.625687e+001
1.039492e+003,1.578837e+001
1.040456e+003,1.512977e+001
1.041420e+003,1.441137e+001
1.042384e+003,1.403249e+001
1.043349e+003,1.463524e+001
1.044313e+003,1.619750e+001
1.045277e+003,1.743905e+001
1.046241e+003,1.864454e+001
1.047206e+003,1.884855e+001
1.048170e+003,1.661362e+001
1.049134e+003,1.323871e+001
1.050098e+003,1.218831e+001
1.051063e+003,1.466830e+001
1.052027e+003,1.665295e+001
1.052991e+003,1.602477e+001
1.053955e+003,1.517286e+001
1.054919e+003,1.574973e+001
1.055884e+003,1.717715e+001
1.056848e+003,1.773831e+001
1.057812e+003,1.644025e+001
1.058776e+003,1.453915e+001
1.059741e+003,1.465269e+001
1.060705e+003,1.647306e+001
1.061669e+003,1.810864e+001
1.062633e+003,1.948304e+001
1.063598e+003,2.015460e+001
1.064562e+003,1.936066e+001
1.065526e+003,1.730855e+001
1.066490e+003,1.628202e+001
1.067454e+003,1.711129e+001
1.068419e+003,1.789371e+001
1.069383e+003,1.783150e+001
1.070347e+003,1.770726e+001
1.071311e+003,1.838700e+001
1.072276e+003,1.979620e+001
1.073240e+003,2.103890e+001
1.074204e+003,2.139596e+001
1.075168e+003,2.126303e+001
1.076133e+003,2.181578e+001
1.077097e+003,2.274462e+001
1.078061e+003,2.258249e+001
1.079025e+003,2.058913e+001
1.079990e+003,1.819733e+001
1.080954e+003,1.752192e+001
1.081918e+003,1.881885e+001
1.082882e+003,2.012159e+001
1.083846e+003,2.158414e+001
1.084811e+003,2.270089e+001
1.085775e+003,2.345716e+001
1.086739e+003,2.374734e+001
1.087703e+003,2.312792e+001
1.088668e+003,2.176857e+001
1.089632e+003,2.105975e+001
1.090596e+003,2.241794e+001
1.091560e+003,2.475257e+001
1.092525e+003,2.579675e+001
1.093489e+003,2.580930e+001
1.094453e+003,2.604888e+001
1.095417e+003,2.720889e+001
1.096381e+003,2.857151e+001
1.097346e+003,2.845767e+001
1.098310e+003,2.612814e+001
1.099274e+003,2.494574e+001
1.100238e+003,2.556073e+001
1.101203e+003,2.653695e+001
1.102167e+003,2.794338e+001
1.103131e+003,2.918637e+001
1.104095e+003,2.937545e+001
1.105060e+003,2.830785e+001
1.106024e+003,2.701596e+001
1.106988e+003,2.629467e+001
1.107952e+003,2.619445e+001
1.108917e+003,2.695226e+001
1.109881e+003,2.824948e+001
1.110845e+003,2.875031e+001
1.111809e+003,2.760402e+001
1.112773e+003,2.577043e+001
1.113738e+003,2.578959e+001
1.114702e+003,2.891724e+001
1.115666e+003,3.047078e+001
1.116630e+003,2.939222e+001
1.117595e+003,2.819596e+001
1.118559e+003,2.749103e+001
1.119523e+003,2.730997e+001
1.120487e+003,2.777697e+001
1.121452e+003,2.892026e+001
1.122416e+003,3.000212e+001
1.123380e+003,3.019694e+001
1.124344e+003,2.997876e+001
1.125308e+003,3.007571e+001
1.126273e+003,3.049719e+001
1.127237e+003,3.104070e+001
1.128201e+003,3.159133e+001
1.129165e+003,3.215575e+001
1.130130e+003,3.273849e+001
1.131094e+003,3.326844e+001
1.132058e+003,3.379863e+001
1.133022e+003,3.438078e+001
1.133987e+003,3.496328e+001
1.134951e+003,3.567040e+001
1.135915e+003,3.640698e+001
1.136879e+003,3.715194e+001
1.137844e+003,3.786407e+001
1.138808e+003,3.797840e+001
1.139772e+003,3.639469e+001
1.140736e+003,3.438957e+001
1.141700e+003,3.398472e+001
1.142665e+003,3.484895e+001
1.143629e+003,3.571287e+001
1.144593e+003,3.597771e+001
1.145557e+003,3.599281e+001
1.146522e+003,3.638213e+001
1.147486e+003,3.715795e+001
1.148450e+003,3.767914e+001
1.149414e+003,3.761387e+001
1.150379e+003,3.798924e+001
1.151343e+003,3.973408e+001
1.152307e+003,4.171323e+001
1.153271e+003,4.232227e+001
1.154235e+003,4.129420e+001
1.155200e+003,4.001156e+001
1.156164e+003,3.940998e+001
1.157128e+003,3.944254e+001
1.158092e+003,4.001258e+001
1.159057e+003,4.093243e+001
1.160021e+003,4.181866e+001
1.160985e+003,4.251075e+001
1.161949e+003,4.285129e+001
1.162914e+003,4.251621e+001
1.163878e+003,4.140860e+001
1.164842e+003,4.111027e+001
1.165806e+003,4.171619e+001
1.166771e+003,4.299377e+001
1.167735e+003,4.601561e+001
1.168699e+003,4.890170e+001
1.169663e+003,4.950023e+001
1.170627e+003,4.809053e+001
1.171592e+003,4.736411e+001
1.172556e+003,4.932415e+001
1.173520e+003,5.174387e+001
1.174484e+003,5.074940e+001
1.175449e+003,4.779838e+001
1.176413e+003,4.532451e+001
1.177377e+003,4.387206e+001
1.178341e+003,4.370201e+001
1.179306e+003,4.551125e+001
1.180270e+003,4.908368e+001
1.181234e+003,5.126308e+001
1.182198e+003,5.100836e+001
1.183162e+003,5.098688e+001
1.184127e+003,5.190698e+001
1.185091e+003,5.264465e+001
1.186055e+003,5.234088e+001
1.187019e+003,5.142173e+001
1.187984e+003,5.086692e+001
1.188948e+003,5.107782e+001
1.189912e+003,5.168826e+001
1.190876e+003,5.265381e+001
1.191841e+003,5.354636e+001
1.192805e+003,5.312444e+001
1.193769e+003,5.135543e+001
1.194733e+003,4.956905e+001
1.195698e+003,4.817291e+001
1.196662e+003,4.758754e+001
1.197626e+003,4.953014e+001
1.198590e+003,5.540687e+001
1.199554e+003,5.857026e+001
1.200519e+003,5.591069e+001
1.201483e+003,5.331489e+001
1.202447e+003,5.242421e+001
1.203411e+003,5.276710e+001
1.204376e+003,5.370930e+001
1.205340e+003,5.486527e+001
1.206304e+003,5.595406e+001
1.207268e+003,5.694401e+001
1.208233e+003,5.777016e+001
1.209197e+003,5.739708e+001
1.210161e+003,5.593212e+001
1.211125e+003,5.519924e+001
1.212089e+003,5.574836e+001
1.213054e+003,5.684774e+001
1.214018e+003,5.807468e+001
1.214982e+003,5.950548e+001
1.215946e+003,6.027107e+001
1.216911e+003,5.949049e+001
1.217875e+003,5.931670e+001
1.218839e+003,6.130019e+001
1.219803e+003,6.306360e+001
1.220768e+003,6.212896e+001
1.221732e+003,5.966841e+001
1.222696e+003,5.907700e+001
1.223660e+003,6.214227e+001
1.224625e+003,6.657069e+001
1.225589e+003,6.823647e+001
1.226553e+003,6.693500e+001
1.227517e+003,6.603230e+001
1.228481e+003,6.553447e+001
1.229446e+003,6.557545e+001
1.230410e+003,6.684888e+001
1.231374e+003,6.836218e+001
1.232338e+003,6.811810e+001
1.233303e+003,6.590956e+001
1.234267e+003,6.477296e+001
1.235231e+003,6.678673e+001
1.236195e+003,6.867503e+001
1.237160e+003,6.841096e+001
1.238124e+003,6.701009e+001
1.239088e+003,6.537083e+001
1.240052e+003,6.404962e+001
1.241016e+003,6.389247e+001
1.241981e+003,6.573926e+001
1.242945e+003,6.893135e+001
1.243909e+003,7.046129e+001
1.244873e+003,6.957973e+001
1.245838e+003,6.880797e+001
1.246802e+003,6.742660e+001
1.247766e+003,6.687797e+001
1.248730e+003,6.866597e+001
1.249695e+003,7.170866e+001
1.250659e+003,7.364857e+001
1.251623e+003,7.391907e+001
1.252587e+003,7.359375e+001
1.253552e+003,7.291557e+001
1.254516e+003,7.235393e+001
1.255480e+003,7.244942e+001
1.256444e+003,7.302706e+001
1.257408e+003,7.373671e+001
1.258373e+003,7.444032e+001
1.259337e+003,7.505373e+001
1.260301e+003,7.545848e+001
1.261265e+003,7.570729e+001
1.262230e+003,7.593825e+001
1.263194e+003,7.601563e+001
1.264158e+003,7.585490e+001
1.265122e+003,7.497908e+001
1.266087e+003,7.439008e+001
1.267051e+003,7.501015e+001
1.268015e+003,7.651662e+001
1.268979e+003,7.802495e+001
1.269943e+003,7.915959e+001
1.270908e+003,7.986990e+001
1.271872e+003,7.982461e+001
1.272836e+003,7.949103e+001
1.273800e+003,8.025925e+001
1.274765e+003,8.201593e+001
1.275729e+003,8.296018e+001
1.276693e+003,8.199819e+001
1.277657e+003,8.028688e+001
1.278622e+003,7.947400e+001
1.279586e+003,7.953371e+001
1.280550e+003,8.015012e+001
1.281514e+003,8.229018e+001
1.282479e+003,8.379215e+001
1.283443e+003,8.364192e+001
1.284407e+003,8.300588e+001
1.285371e+003,8.256667e+001
1.286335e+003,8.237273e+001
1.287300e+003,8.226064e+001
1.288264e+003,8.221327e+001
1.289228e+003,8.243109e+001
1.290192e+003,8.320677e+001
1.291157e+003,8.447709e+001
1.292121e+003,8.511266e+001
1.293085e+003,8.475957e+001
1.294049e+003,8.442796e+001
1.295014e+003,8.431947e+001
1.295978e+003,8.474133e+001
1.296942e+003,8.660624e+001
1.297906e+003,8.966146e+001
1.298870e+003,9.102612e+001
1.299835e+003,8.867578e+001
1.300799e+003,8.679211e+001
1.301763e+003,8.936957e+001
1.302727e+003,9.267905e+001
1.303692e+003,9.315243e+001
1.304656e+003,9.128813e+001
1.305620e+003,8.970911e+001
1.306584e+003,8.988137e+001
1.307549e+003,9.103856e+001
1.308513e+003,9.176813e+001
1.309477e+003,9.189972e+001
1.310441e+003,9.239911e+001
1.311406e+003,9.412547e+001
1.312370e+003,9.519041e+001
1.313334e+003,9.463641e+001
1.314298e+003,9.394398e+001
1.315263e+003,9.456990e+001
1.316227e+003,9.620561e+001
1.317191e+003,9.762657e+001
1.318155e+003,9.836189e+001
1.319120e+003,9.801465e+001
1.320084e+003,9.504024e+001
1.321048e+003,9.128809e+001
1.322012e+003,9.154927e+001
1.322976e+003,9.550045e+001
1.323941e+003,9.804146e+001
1.324905e+003,9.646934e+001
1.325869e+003,9.351387e+001
1.326833e+003,9.317931e+001
1.327798e+003,9.540654e+001
1.328762e+003,9.739740e+001
1.329726e+003,9.970782e+001
1.330690e+003,1.000694e+002
1.331655e+003,9.507527e+001
1.332619e+003,9.093845e+001
1.333583e+003,9.306345e+001
1.334547e+003,9.906187e+001
1.335511e+003,1.039454e+002
1.336476e+003,1.054722e+002
1.337440e+003,1.048606e+002
1.338404e+003,1.034709e+002
1.339368e+003,1.016105e+002
1.340333e+003,1.016431e+002
1.341297e+003,1.042915e+002
1.342261e+003,1.061936e+002
1.343225e+003,1.068381e+002
1.344190e+003,1.068613e+002
1.345154e+003,1.062108e+002
1.346118e+003,1.053731e+002
1.347082e+003,1.055520e+002
1.348047e+003,1.070324e+002
1.349011e+003,1.085285e+002
1.349975e+003,1.094945e+002
1.350939e+003,1.099401e+002
1.351903e+003,1.097802e+002
1.352868e+003,1.091638e+002
1.353832e+003,1.081386e+002
1.354796e+003,1.068071e+002
1.355760e+003,1.063850e+002
1.356725e+003,1.083894e+002
1.357689e+003,1.120218e+002
1.358653e+003,1.134254e+002
1.359617e+003,1.115569e+002
1.360582e+003,1.104386e+002
1.361546e+003,1.108204e+002
1.362510e+003,1.113775e+002
1.363474e+003,1.123362e+002
1.364438e+003,1.130719e+002
1.365403e+003,1.122035e+002
1.366367e+003,1.101191e+002
1.367331e+003,1.090800e+002
1.368295e+003,1.105979e+002
1.369260e+003,1.133444e+002
1.370224e+003,1.151710e+002
1.371188e+003,1.161997e+002
1.372152e+003,1.165722e+002
1.373117e+003,1.156989e+002
1.374081e+003,1.151073e+002
1.375045e+003,1.156708e+002
1.376009e+003,1.165691e+002
1.376974e+003,1.170255e+002
1.377938e+003,1.170795e+002
1.378902e+003,1.166692e+002
1.379866e+003,1.153865e+002
1.380830e+003,1.146373e+002
1.381795e+003,1.160268e+002
1.382759e+003,1.179754e+002
1.383723e+003,1.192599e+002
1.384687e+003,1.199855e+002
1.385652e+003,1.205440e+002
1.386616e+003,1.210739e+002
1.387580e+003,1.214836e+002
1.388544e+003,1.215769e+002
1.389509e+003,1.213472e+002
1.390473e+003,1.214387e+002
1.391437e+003,1.224209e+002
1.392401e+003,1.228405e+002
1.393365e+003,1.213551e+002
1.394330e+003,1.205712e+002
1.395294e+003,1.218390e+002
1.396258e+003,1.240989e+002
1.397222e+003,1.264394e+002
1.398187e+003,1.286212e+002
1.399151e+003,1.307622e+002
1.400115e+003,1.328274e+002
1.401079e+003,1.338951e+002
1.402044e+003,1.319168e+002
1.403008e+003,1.269178e+002
1.403972e+003,1.253252e+002
1.404936e+003,1.287811e+002
1.405901e+003,1.317005e+002
1.406865e+003,1.314743e+002
1.407829e+003,1.304524e+002
1.408793e+003,1.313925e+002
1.409757e+003,1.339068e+002
1.410722e+003,1.355752e+002
1.411686e+003,1.355817e+002
1.412650e+003,1.348418e+002
1.413614e+003,1.338776e+002
1.414579e+003,1.328691e+002
1.415543e+003,1.314339e+002
1.416507e+003,1.302000e+002
1.417471e+003,1.311844e+002
1.418436e+003,1.348956e+002
1.419400e+003,1.380489e+002
1.420364e+003,1.368125e+002
1.421328e+003,1.328595e+002
1.422292e+003,1.334649e+002
1.423257e+003,1.404603e+002
1.424221e+003,1.447363e+002
1.425185e+003,1.426137e+002
1.426149e+003,1.402040e+002
1.427114e+003,1.386111e+002
1.428078e+003,1.384144e+002
1.429042e+003,1.409118e+002
1.430006e+003,1.448861e+002
1.430971e+003,1.469717e+002
1.431935e+003,1.456182e+002
1.432899e+003,1.435626e+002
1.433863e+003,1.449647e+002
1.434828e+003,1.494939e+002
1.435792e+003,1.512896e+002
1.436756e+003,1.480017e+002
1.437720e+003,1.461838e+002
1.438684e+003,1.475614e+002
1.439649e+003,1.493996e+002
1.440613e+003,1.500601e+002
1.441577e+003,1.501996e+002
1.442541e+003,1.510332e+002
1.443506e+003,1.525736e+002
1.444470e+003,1.538514e+002
1.445434e+003,1.544797e+002
1.446398e+003,1.546797e+002
1.447363e+003,1.544786e+002
1.448327e+003,1.538997e+002
1.449291e+003,1.529812e+002
1.450255e+003,1.517543e+002
1.451219e+003,1.512002e+002
1.452184e+003,1.517940e+002
1.453148e+003,1.531704e+002
1.454112e+003,1.553868e+002
1.455076e+003,1.581203e+002
1.456041e+003,1.594102e+002
1.457005e+003,1.588734e+002
1.457969e+003,1.579294e+002
1.458933e+003,1.561380e+002
1.459898e+003,1.551681e+002
1.460862e+003,1.568258e+002
1.461826e+003,1.594962e+002
1.462790e+003,1.607575e+002
1.463755e+003,1.602537e+002
1.464719e+003,1.592818e+002
1.465683e+003,1.587763e+002
1.466647e+003,1.587221e+002
1.467611e+003,1.589525e+002
1.468576e+003,1.593145e+002
1.469540e+003,1.606045e+002
1.470504e+003,1.643616e+002
1.471468e+003,1.668880e+002
1.472433e+003,1.667311e+002
1.473397e+003,1.661736e+002
1.474361e+003,1.664861e+002
1.475325e+003,1.674884e+002
1.476290e+003,1.688512e+002
1.477254e+003,1.702301e+002
1.478218e+003,1.708415e+002
1.479182e+003,1.700681e+002
1.480146e+003,1.690679e+002
1.481111e+003,1.705477e+002
1.482075e+003,1.748568e+002
1.483039e+003,1.768805e+002
1.484003e+003,1.755885e+002
1.484968e+003,1.739572e+002
1.485932e+003,1.719443e+002
1.486896e+003,1.708104e+002
1.487860e+003,1.725341e+002
1.488825e+003,1.755186e+002
1.489789e+003,1.757291e+002
1.490753e+003,1.723744e+002
1.491717e+003,1.694368e+002
1.492682e+003,1.698809e+002
1.493646e+003,1.714217e+002
1.494610e+003,1.692550e+002
1.495574e+003,1.650371e+002
1.496538e+003,1.649798e+002
1.497503e+003,1.704622e+002
1.498467e+003,1.747362e+002
1.499431e+003,1.734881e+002
1.500395e+003,1.698091e+002
1.501360e+003,1.674281e+002
1.502324e+003,1.662858e+002
1.503288e+003,1.654308e+002
1.504252e+003,1.644570e+002
1.505217e+003,1.644013e+002
1.506181e+003,1.665379e+002
1.507145e+003,1.689628e+002
1.508109e+003,1.702006e+002
1.509073e+003,1.707132e+002
1.510038e+003,1.710702e+002
1.511002e+003,1.714358e+002
1.511966e+003,1.720573e+002
1.512930e+003,1.732187e+002
1.513895e+003,1.744862e+002
1.514859e+003,1.749921e+002
1.515823e+003,1.745934e+002
1.516787e+003,1.735270e+002
1.517752e+003,1.715455e+002
1.518716e+003,1.701271e+002
1.519680e+003,1.696294e+002
1.520644e+003,1.694348e+002
1.521609e+003,1.694803e+002
1.522573e+003,1.695682e+002
1.523537e+003,1.698254e+002
1.524501e+003,1.701471e+002
1.525465e+003,1.698146e+002
1.526430e+003,1.683573e+002
1.527394e+003,1.665963e+002
1.528358e+003,1.659976e+002
1.529322e+003,1.665082e+002
1.530287e+003,1.664939e+002
1.531251e+003,1.656472e+002
1.532215e+003,1.651251e+002
1.533179e+003,1.647815e+002
1.534144e+003,1.647661e+002
1.535108e+003,1.657602e+002
1.536072e+003,1.665881e+002
1.537036e+003,1.654102e+002
1.538000e+003,1.630132e+002
1.538965e+003,1.621992e+002
1.539929e+003,1.640399e+002
1.540893e+003,1.663772e+002
1.541857e+003,1.669630e+002
1.542822e+003,1.659495e+002
1.543786e+003,1.631123e+002
1.544750e+003,1.569933e+002
1.545714e+003,1.537305e+002
1.546679e+003,1.554092e+002
1.547643e+003,1.568363e+002
1.548607e+003,1.564059e+002
1.549571e+003,1.551909e+002
1.550536e+003,1.537330e+002
1.551500e+003,1.522296e+002
1.552464e+003,1.512206e+002
1.553428e+003,1.509730e+002
1.554392e+003,1.510596e+002
1.555357e+003,1.510121e+002
1.556321e+003,1.509147e+002
1.557285e+003,1.513454e+002
1.558249e+003,1.522873e+002
1.559214e+003,1.521563e+002
1.560178e+003,1.508586e+002
1.561142e+003,1.487538e+002
1.562106e+003,1.446327e+002
1.563071e+003,1.407309e+002
1.564035e+003,1.395523e+002
1.564999e+003,1.402258e+002
1.565963e+003,1.404456e+002
1.566927e+003,1.397724e+002
1.567892e+003,1.388654e+002
1.568856e+003,1.380061e+002
1.569820e+003,1.372032e+002
1.570784e+003,1.366502e+002
1.571749e+003,1.360627e+002
1.572713e+003,1.348227e+002
1.573677e+003,1.330100e+002
1.574641e+003,1.308791e+002
1.575606e+003,1.277170e+002
1.576570e+003,1.255294e+002
1.577534e+003,1.271345e+002
1.578498e+003,1.303886e+002
1.579463e+003,1.308256e+002
1.580427e+003,1.284277e+002
1.581391e+003,1.262885e+002
1.582355e+003,1.251403e+002
1.583319e+003,1.250576e+002
1.584284e+003,1.275730e+002
1.585248e+003,1.299056e+002
1.586212e+003,1.276835e+002
1.587176e+003,1.223238e+002
1.588141e+003,1.178800e+002
1.589105e+003,1.152745e+002
1.590069e+003,1.144758e+002
1.591033e+003,1.164198e+002
1.591998e+003,1.188090e+002
1.592962e+003,1.179799e+002
1.593926e+003,1.145195e+002
1.594890e+003,1.115857e+002
1.595854e+003,1.094513e+002
1.596819e+003,1.088192e+002
1.597783e+003,1.113727e+002
1.598747e+003,1.130250e+002
1.599711e+003,1.092681e+002
1.600676e+003,1.038622e+002
1.601640e+003,1.015531e+002
1.602604e+003,1.022106e+002
1.603568e+003,1.031684e+002
1.604533e+003,1.033830e+002
1.605497e+003,1.029630e+002
1.606461e+003,1.018729e+002
1.607425e+003,1.003644e+002
1.608390e+003,9.908855e+001
1.609354e+003,9.814264e+001
1.610318e+003,9.761393e+001
1.611282e+003,9.786157e+001
1.612246e+003,9.707243e+001
1.613211e+003,9.291801e+001
1.614175e+003,8.891103e+001
1.615139e+003,8.795741e+001
1.616103e+003,8.873714e+001
1.617068e+003,8.910014e+001
1.618032e+003,8.864714e+001
1.618996e+003,8.791893e+001
1.619960e+003,8.717249e+001
1.620925e+003,8.616787e+001
1.621889e+003,8.452073e+001
1.622853e+003,8.240907e+001
1.623817e+003,8.064901e+001
1.624781e+003,7.934074e+001
1.625746e+003,7.842140e+001
1.626710e+003,7.847836e+001
1.627674e+003,7.765178e+001
1.628638e+003,7.317294e+001
1.629603e+003,6.894920e+001
1.630567e+003,6.918611e+001
1.631531e+003,7.210886e+001
1.632495e+003,7.384615e+001
1.633460e+003,7.338324e+001
1.634424e+003,7.130879e+001
1.635388e+003,6.765730e+001
1.636352e+003,6.369524e+001
1.637317e+003,6.199723e+001
1.638281e+003,6.237799e+001
1.639245e+003,6.220300e+001
1.640209e+003,6.134737e+001
1.641173e+003,6.006816e+001
1.642138e+003,5.808937e+001
1.643102e+003,5.631564e+001
1.644066e+003,5.518966e+001
1.645030e+003,5.440897e+001
1.645995e+003,5.393860e+001
1.646959e+003,5.349823e+001
1.647923e+003,5.223998e+001
1.648887e+003,5.003306e+001
1.649852e+003,4.854408e+001
1.650816e+003,4.943330e+001
1.651780e+003,5.124723e+001
1.652744e+003,5.079051e+001
1.653708e+003,4.814352e+001
1.654673e+003,4.574641e+001
1.655637e+003,4.350395e+001
1.656601e+003,4.231437e+001
1.657565e+003,4.331282e+001
1.658530e+003,4.434969e+001
1.659494e+003,4.428142e+001
1.660458e+003,4.356207e+001
1.661422e+003,4.255902e+001
1.662387e+003,4.138770e+001
1.663351e+003,4.004278e+001
1.664315e+003,3.856451e+001
1.665279e+003,3.756740e+001
1.666244e+003,3.778259e+001
1.667208e+003,3.855679e+001
1.668172e+003,3.845563e+001
1.669136e+003,3.750308e+001
1.670100e+003,3.656041e+001
1.671065e+003,3.563796e+001
1.672029e+003,3.494120e+001
1.672993e+003,3.515444e+001
1.673957e+003,3.487886e+001
1.674922e+003,3.247832e+001
1.675886e+003,2.958043e+001
1.676850e+003,2.788122e+001
1.677814e+003,2.737878e+001
1.678779e+003,2.769525e+001
1.679743e+003,2.872667e+001
1.680707e+003,2.945679e+001
1.681671e+003,2.895520e+001
1.682635e+003,2.778498e+001
1.683600e+003,2.689605e+001
1.684564e+003,2.628965e+001
1.685528e+003,2.578059e+001
1.686492e+003,2.531578e+001
1.687457e+003,2.461264e+001
1.688421e+003,2.349358e+001
1.689385e+003,2.241662e+001
1.690349e+003,2.201484e+001
1.691314e+003,2.174587e+001
1.692278e+003,2.071954e+001
1.693242e+003,1.913656e+001
1.694206e+003,1.801346e+001
1.695171e+003,1.762470e+001
1.696135e+003,1.732924e+001
1.697099e+003,1.639577e+001
1.698063e+003,1.566836e+001
1.699027e+003,1.675494e+001
1.699992e+003,1.890088e+001
1.700956e+003,1.961700e+001
1.701920e+003,1.865414e+001
1.702884e+003,1.739994e+001
1.703849e+003,1.623073e+001
1.704813e+003,1.522355e+001
1.705777e+003,1.449860e+001
1.706741e+003,1.395412e+001
1.707706e+003,1.333325e+001
1.708670e+003,1.276238e+001
1.709634e+003,1.273239e+001
1.710598e+003,1.337689e+001
1.711563e+003,1.399700e+001
1.712527e+003,1.446161e+001
1.713491e+003,1.459269e+001
1.714455e+003,1.392056e+001
1.715419e+003,1.301804e+001
1.716384e+003,1.312303e+001
1.717348e+003,1.400590e+001
1.718312e+003,1.394998e+001
1.719276e+003,1.240831e+001
1.720241e+003,1.083248e+001
1.721205e+003,1.023383e+001
1.722169e+003,1.025145e+001
1.723133e+003,1.047443e+001
1.724098e+003,1.086777e+001
1.725062e+003,1.073209e+001
1.726026e+003,9.806116e+000
1.726990e+003,9.231659e+000
1.727954e+003,9.403387e+000
1.728919e+003,9.671844e+000
1.729883e+003,1.032297e+001
1.730847e+003,1.045965e+001
1.731811e+003,8.316711e+000
1.732776e+003,5.202094e+000
1.733740e+003,4.383691e+000
1.734704e+003,6.177258e+000
1.735668e+003,7.846246e+000
1.736633e+003,7.786059e+000
1.737597e+003,6.510119e+000
1.738561e+003,4.491126e+000
1.739525e+003,2.291333e+000
1.740490e+003,2.587848e+000
1.741454e+003,6.563306e+000
1.742418e+003,8.469025e+000
1.743382e+003,6.767554e+000
1.744346e+003,5.408954e+000
1.745311e+003,5.519739e+000
1.746275e+003,5.557055e+000
1.747239e+003,4.036017e+000
1.748203e+003,2.351932e+000
1.749168e+003,2.739044e+000
1.750132e+003,4.616724e+000
1.751096e+003,5.471509e+000
1.752060e+003,4.420306e+000
1.753025e+003,2.993256e+000
1.753989e+003,2.608307e+000
1.754953e+003,2.918182e+000
1.755917e+003,3.189594e+000
1.756881e+003,3.423383e+000
1.757846e+003,3.107098e+000
1.758810e+003,1.923105e+000
1.759774e+003,1.230823e+000
1.760738e+003,1.397406e+000
1.761703e+003,1.728381e+000
1.762667e+003,2.443994e+000
1.763631e+003,2.797662e+000
1.764595e+003,1.959567e+000
1.765560e+003,4.828949e-001
1.766524e+003,-8.162171e-001
1.767488e+003,-1.723337e+000
1.768452e+003,-2.114752e+000
1.769417e+003,-1.886383e+000
1.770381e+003,-1.196564e+000
1.771345e+003,1.617096e-001
1.772309e+003,1.631473e+000
1.773273e+003,1.461557e+000
1.774238e+003,-1.601440e-001
1.775202e+003,-7.291565e-001
1.776166e+003,2.190094e-001
1.777130e+003,1.521313e+000
1.778095e+003,3.205499e+000
1.779059e+003,4.139148e+000
1.780023e+003,2.697552e+000
1.780987e+003,2.932861e-001
1.781952e+003,-5.853516e-001
1.782916e+003,-3.016022e-001
1.783880e+003,-7.314606e-001
1.784844e+003,-2.428043e+000
1.785808e+003,-3.283105e+000
1.786773e+003,-1.425696e+000
1.787737e+003,4.416809e-001
1.788701e+003,-2.882752e-001
1.789665e+003,-1.998328e+000
1.790630e+003,-1.965875e+000
1.791594e+003,-6.651489e-001
1.792558e+003,-6.664215e-001
1.793522e+003,-2.510919e+000
1.794487e+003,-4.200632e+000
1.795451e+003,-4.495300e+000
1.796415e+003,-3.709512e+000
1.797379e+003,-2.096191e+000
1.798344e+003,-6.443787e-002
1.799308e+003,4.187164e-001
1.800272e+003,-1.431567e+000
1.801236e+003,-1.905875e+000
1.802201e+003,6.667511e-001
1.803165e+003,2.049869e+000
1.804129e+003,4.848175e-001
1.805093e+003,-1.052478e+000
1.806057e+003,-6.520935e-001
1.807022e+003,3.673004e-001
1.807986e+003,5.228882e-001
1.808950e+003,-1.145233e-001
1.809914e+003,-1.005405e+000
1.810879e+003,-1.840588e+000
1.811843e+003,-2.108026e+000
1.812807e+003,-1.404651e+000
1.813771e+003,-6.292785e-001
1.814736e+003,-1.389114e+000
1.815700e+003,-3.248920e+000
1.816664e+003,-3.711051e+000
1.817628e+003,-2.638711e+000
1.818593e+003,-1.637482e+000
1.819557e+003,-5.374817e-001
1.820521e+003,-4.518158e-001
1.821485e+003,-2.917999e+000
1.822449e+003,-5.058402e+000
1.823414e+003,-4.160300e+000
1.824378e+003,-2.201328e+000
1.825342e+003,-1.722205e+000
1.826306e+003,-2.417935e+000
1.827271e+003,-2.586154e+000
1.828235e+003,-1.818765e+000
1.829199e+003,-1.035706e+000
1.830163e+003,-3.916412e-001
1.831128e+003,-2.589172e-001
1.832092e+003,-1.659564e+000
1.833056e+003,-3.358285e+000
1.834020e+003,-2.854944e+000
1.834984e+003,-9.215729e-001
1.835949e+003,-7.601105e-001
1.836913e+003,-2.819357e+000
1.837877e+003,-4.485272e+000
1.838841e+003,-4.370782e+000
1.839806e+003,-3.306808e+000
1.840770e+003,-2.078519e+000
1.841734e+003,-9.525574e-001
1.842698e+003,-7.559937e-001
1.843663e+003,-1.598923e+000
1.844627e+003,-1.941730e+000
1.845591e+003,-1.683105e+000
1.846555e+003,-1.110819e+000
1.847520e+003,4.778046e-001
1.848484e+003,1.362244e+000
1.849448e+003,3.475891e-001
1.850412e+003,-9.934112e-001
1.851376e+003,-1.284341e+000
1.852341e+003,-1.011121e+000
1.853305e+003,-1.437509e+000
1.854269e+003,-2.460413e+000
1.855233e+003,-2.474149e+000
1.856198e+003,-7.664093e-001
1.857162e+003,9.765320e-001
1.858126e+003,1.029932e+000
1.859090e+003,1.065308e-001
1.860055e+003,-4.351501e-001
1.861019e+003,-7.244323e-001
1.861983e+003,-1.463055e+000
1.862947e+003,-2.705029e+000
1.863911e+003,-2.953030e+000
1.864876e+003,-1.534366e+000
1.865840e+003,-4.249573e-001
1.866804e+003,-9.048279e-001
1.867768e+003,-1.911603e+000
1.868733e+003,-2.416864e+000
1.869697e+003,-2.473276e+000
1.870661e+003,-2.084335e+000
1.871625e+003,-1.245117e+000
1.872590e+003,-5.899536e-001
1.873554e+003,1.965820e-001
1.874518e+003,5.772400e-002
1.875482e+003,-2.811664e+000
1.876447e+003,-4.848648e+000
1.877411e+003,-2.803415e+000
1.878375e+003,3.615967e-001
1.879339e+003,9.519043e-001
1.880303e+003,-1.852692e-001
1.881268e+003,-2.181122e-001
1.882232e+003,1.194049e+000
1.883196e+003,1.970755e+000
1.884160e+003,1.045523e+000
1.885125e+003,-1.954590e-001
1.886089e+003,-1.771240e-001
1.887053e+003,5.152161e-001
1.888017e+003,1.629974e-001
1.888982e+003,-1.242770e+000
1.889946e+003,-1.610934e+000
1.890910e+003,-6.334931e-001
1.891874e+003,-1.684753e-001
1.892839e+003,-7.988709e-001
1.893803e+003,-1.509375e+000
1.894767e+003,-2.284366e+000
1.895731e+003,-2.365634e+000
1.896695e+003,-4.009552e-001
1.897660e+003,2.346237e+000
1.898624e+003,3.949554e+000
1.899588e+003,4.332205e+000
1.900552e+003,3.586145e+000
1.901517e+003,1.239328e+000
1.902481e+003,-5.067078e-001
1.903445e+003,-5.556641e-001
1.904409e+003,6.496582e-002
1.905374e+003,1.355704e+000
1.906338e+003,2.446552e+000
1.907302e+003,1.735263e+000
1.908266e+003,1.413910e-001
1.909230e+003,-4.402466e-002
1.910195e+003,1.242517e+000
1.911159e+003,2.145517e+000
1.912123e+003,1.872995e+000
1.913087e+003,1.447824e+000
1.914052e+003,1.829730e+000
1.915016e+003,2.504852e+000
1.915980e+003,2.351965e+000
1.916944e+003,1.482608e+000
1.917909e+003,1.487857e+000
1.918873e+003,2.677872e+000
1.919837e+003,3.026532e+000
1.920801e+003,2.183441e+000
1.921766e+003,7.333252e-001
1.922730e+003,-2.184354e+000
1.923694e+003,-4.171491e+000
1.924658e+003,-2.290900e+000
1.925622e+003,6.671295e-001
1.926587e+003,1.102054e+000
1.927551e+003,-2.487488e-001
1.928515e+003,-5.848053e-001
1.929479e+003,5.018951e-001
1.930444e+003,1.303052e+000
1.931408e+003,9.664307e-001
1.932372e+003,7.538239e-001
1.933336e+003,1.394156e+000
1.934301e+003,2.249054e+000
1.935265e+003,3.059094e+000
1.936229e+003,3.594306e+000
1.937193e+003,3.326413e+000
1.938157e+003,2.542212e+000
1.939122e+003,2.153250e+000
1.940086e+003,2.337073e+000
1.941050e+003,2.410428e+000
1.942014e+003,1.951715e+000
1.942979e+003,1.405197e+000
1.943943e+003,1.350647e+000
1.944907e+003,1.619421e+000
1.945871e+003,1.841296e+000
1.946836e+003,2.016623e+000
1.947800e+003,1.372217e+000
1.948764e+003,-3.159699e-001
1.949728e+003,-1.276422e+000
1.950693e+003,-1.159656e+000
1.951657e+003,-1.979004e-001
1.952621e+003,2.125095e+000
1.953585e+003,4.132489e+000
1.954549e+003,4.019849e+000
1.955514e+003,2.584256e+000
1.956478e+003,1.212299e+000
1.957442e+003,-3.491516e-002
1.958406e+003,-1.859436e-002
1.959371e+003,1.931259e+000
1.960335e+003,3.273349e+000
1.961299e+003,3.238742e+000
1.962263e+003,3.193463e+000
1.963228e+003,3.944016e+000
1.964192e+003,4.441394e+000
1.965156e+003,3.476138e+000
1.966120e+003,2.156055e+000
1.967084e+003,1.990436e+000
1.968049e+003,2.768320e+000
1.969013e+003,3.478156e+000
1.969977e+003,3.820392e+000
1.970941e+003,4.166617e+000
1.971906e+003,4.763657e+000
1.972870e+003,5.146753e+000
1.973834e+003,4.670599e+000
1.974798e+003,3.835284e+000
1.975763e+003,3.443417e+000
1.976727e+003,3.367688e+000
1.977691e+003,3.371176e+000
1.978655e+003,3.383499e+000
1.979620e+003,3.056433e+000
1.980584e+003,2.375845e+000
1.981548e+003,2.205347e+000
1.982512e+003,2.996194e+000
1.983476e+003,4.007886e+000
1.984441e+003,4.519784e+000
1.985405e+003,4.654123e+000
1.986369e+003,4.744980e+000
1.987333e+003,4.812415e+000
1.988298e+003,4.060718e+000
1.989262e+003,1.714023e+000
1.990226e+003,6.629303e-001
1.991190e+003,1.659927e+000
1.992155e+003,2.800946e+000
1.993119e+003,4.010681e+000
1.994083e+003,4.812457e+000
1.995047e+003,4.660208e+000
1.996011e+003,4.178653e+000
1.996976e+003,4.070740e+000
1.997940e+003,4.177042e+000
1.998904e+003,3.946973e+000
1.999868e+003,3.359900e+000
2.000833e+003,3.118823e+000
2.001797e+003,3.561746e+000
2.002761e+003,3.867270e+000
2.003725e+003,3.538196e+000
2.004690e+003,3.200095e+000
2.005654e+003,3.077914e+000
2.006618e+003,3.302939e+000
2.007582e+003,4.602386e+000
2.008547e+003,6.021142e+000
2.009511e+003,5.558350e+000
2.010475e+003,3.637967e+000
2.011439e+003,2.621753e+000
2.012403e+003,3.255814e+000
2.013368e+003,4.168329e+000
2.014332e+003,4.394028e+000
2.015296e+003,4.384585e+000
2.016260e+003,4.785104e+000
2.017225e+003,5.369086e+000
2.018189e+003,5.341931e+000
2.019153e+003,4.999985e+000
2.020117e+003,5.956696e+000
2.021082e+003,8.090296e+000
2.022046e+003,8.959753e+000
2.023010e+003,8.000012e+000
2.023974e+003,7.125409e+000
2.024938e+003,7.341376e+000
2.025903e+003,8.224353e+000
2.026867e+003,9.534454e+000
2.027831e+003,1.043586e+001
2.028795e+003,8.702087e+000
2.029760e+003,4.545233e+000
2.030724e+003,3.171841e+000
2.031688e+003,5.576276e+000
2.032652e+003,6.878351e+000
2.033617e+003,6.432495e+000
2.034581e+003,5.990064e+000
2.035545e+003,5.825147e+000
2.036509e+003,6.112348e+000
2.037474e+003,7.364856e+000
2.038438e+003,8.570935e+000
2.039402e+003,8.477221e+000
2.040366e+003,7.680780e+000
2.041330e+003,7.719720e+000
2.042295e+003,8.588221e+000
2.043259e+003,8.286432e+000
2.044223e+003,5.795032e+000
2.045187e+003,4.209216e+000
2.046152e+003,4.260422e+000
2.047116e+003,5.091886e+000
2.048080e+003,7.547363e+000
2.049044e+003,9.332837e+000
2.050009e+003,8.033594e+000
2.050973e+003,5.875842e+000
2.051937e+003,5.730615e+000
2.052901e+003,6.970886e+000
2.053865e+003,7.402618e+000
2.054830e+003,6.705811e+000
2.055794e+003,6.352899e+000
2.056758e+003,7.043134e+000
2.057722e+003,7.637457e+000
2.058687e+003,7.050055e+000
2.059651e+003,6.336462e+000
2.060615e+003,6.374249e+000
2.061579e+003,6.953363e+000
2.062544e+003,8.365473e+000
2.063508e+003,9.946924e+000
2.064472e+003,1.022839e+001
2.065436e+003,9.253039e+000
2.066401e+003,7.716565e+000
2.067365e+003,6.111786e+000
2.068329e+003,5.645746e+000
2.069293e+003,7.060297e+000
2.070258e+003,8.703845e+000
2.071222e+003,8.567327e+000
2.072186e+003,7.494354e+000
2.073150e+003,7.150842e+000
2.074115e+003,7.452979e+000
2.075079e+003,8.272168e+000
2.076043e+003,9.437841e+000
2.077007e+003,9.850848e+000
2.077971e+003,9.397229e+000
2.078936e+003,8.694067e+000
2.079900e+003,7.940247e+000
2.080864e+003,7.313019e+000
2.081828e+003,6.942358e+000
2.082792e+003,6.792572e+000
2.083757e+003,6.796997e+000
2.084721e+003,7.035065e+000
2.085685e+003,7.980463e+000
2.086649e+003,9.735901e+000
2.087614e+003,9.869110e+000
2.088578e+003,7.787127e+000
2.089542e+003,7.158820e+000
2.090506e+003,8.969940e+000
2.091471e+003,1.004675e+001
2.092435e+003,8.983874e+000
2.093399e+003,7.934052e+000
2.094363e+003,8.448578e+000
2.095328e+003,9.521429e+000
2.096292e+003,9.905042e+000
2.097256e+003,9.689618e+000
2.098220e+003,9.222857e+000
2.099185e+003,8.494946e+000
2.100149e+003,8.258118e+000
2.101113e+003,9.040143e+000
2.102077e+003,9.237793e+000
2.103042e+003,8.082727e+000
2.104006e+003,7.395471e+000
2.104970e+003,8.186444e+000
2.105934e+003,8.856201e+000
2.106898e+003,8.182104e+000
2.107863e+003,7.240027e+000
2.108827e+003,7.162164e+000
2.109791e+003,7.719678e+000
2.110755e+003,8.398236e+000
2.111719e+003,9.109955e+000
2.112684e+003,9.553296e+000
2.113648e+003,9.758881e+000
2.114612e+003,9.575617e+000
2.115576e+003,8.809504e+000
2.116541e+003,7.795740e+000
2.117505e+003,6.129437e+000
2.118469e+003,4.911691e+000
2.119433e+003,5.203516e+000
2.120398e+003,5.984323e+000
2.121362e+003,6.235382e+000
2.122326e+003,6.056821e+000
2.123290e+003,5.719574e+000
2.124255e+003,5.414773e+000
2.125219e+003,5.759656e+000
2.126183e+003,7.009027e+000
2.127147e+003,7.546344e+000
2.128112e+003,5.678848e+000
2.129076e+003,4.486185e+000
2.130040e+003,6.361249e+000
2.131004e+003,8.720593e+000
2.131969e+003,9.939374e+000
2.132933e+003,1.009225e+001
2.133897e+003,8.981501e+000
2.134861e+003,7.301013e+000
2.135825e+003,5.794846e+000
2.136790e+003,4.800363e+000
2.137754e+003,4.999924e+000
2.138718e+003,6.461816e+000
2.139682e+003,7.534644e+000
2.140646e+003,7.169690e+000
2.141611e+003,6.582410e+000
2.142575e+003,7.000751e+000
2.143539e+003,7.357007e+000
2.144503e+003,6.231543e+000
2.145468e+003,4.746106e+000
2.146432e+003,4.258618e+000
2.147396e+003,4.669397e+000
2.148360e+003,6.055960e+000
2.149325e+003,7.788580e+000
2.150289e+003,8.154492e+000
2.151253e+003,6.842511e+000
2.152217e+003,5.316574e+000
2.153182e+003,4.414224e+000
2.154146e+003,4.257391e+000
2.155110e+003,5.405154e+000
2.156074e+003,6.675079e+000
2.157039e+003,6.134634e+000
2.158003e+003,4.914899e+000
2.158967e+003,5.244440e+000
2.159931e+003,6.323194e+000
2.160896e+003,5.977674e+000
2.161860e+003,4.431317e+000
2.162824e+003,3.203958e+000
2.163788e+003,2.738940e+000
2.164752e+003,2.859537e+000
2.165717e+003,3.429364e+000
2.166681e+003,4.101950e+000
2.167645e+003,4.601309e+000
2.168609e+003,4.923654e+000
2.169573e+003,5.115008e+000
2.170538e+003,5.138657e+000
2.171502e+003,4.843216e+000
2.172466e+003,4.269293e+000
2.173430e+003,3.421683e+000
2.174395e+003,2.500165e+000
2.175359e+003,2.276938e+000
2.176323e+003,2.630810e+000
2.177287e+003,2.083893e+000
2.178252e+003,2.355469e-001
2.179216e+003,-1.139261e+000
2.180180e+003,-7.386078e-001
2.181144e+003,5.182037e-001
2.182109e+003,1.656085e+000
2.183073e+003,2.561487e+000
2.184037e+003,2.984866e+000
2.185001e+003,3.040146e+000
2.185966e+003,3.195960e+000
2.186930e+003,3.274756e+000
2.187894e+003,2.101471e+000
2.188858e+003,2.241821e-002
2.189823e+003,-6.571838e-001
2.190787e+003,5.034698e-001
2.191751e+003,1.844568e+000
2.192715e+003,2.464047e+000
2.193679e+003,2.503253e+000
2.194644e+003,2.005136e+000
2.195608e+003,1.330301e+000
2.196572e+003,1.103906e+000
2.197536e+003,1.128571e+000
2.198500e+003,8.194580e-001
2.199465e+003,4.032044e-001
2.200429e+003,6.174469e-001
2.201393e+003,1.352420e+000
2.202357e+003,2.019244e+000
2.203322e+003,2.487897e+000
2.204286e+003,2.903000e+000
2.205250e+003,3.298444e+000
2.206214e+003,3.442828e+000
2.207179e+003,3.179321e+000
2.208143e+003,2.617462e+000
2.209107e+003,1.847015e+000
2.210071e+003,9.260010e-001
2.211036e+003,-2.355866e-001
2.212000e+003,-1.381329e+000
2.212964e+003,-1.881421e+000
2.213928e+003,-1.823575e+000
2.214893e+003,-1.265262e+000
2.215857e+003,-4.162964e-001
2.216821e+003,-8.289184e-002
2.217785e+003,-3.675781e-001
2.218750e+003,-4.370453e-001
2.219714e+003,5.141602e-002
2.220678e+003,3.059845e-001
2.221642e+003,-3.421203e-001
2.222606e+003,-1.065738e+000
2.223571e+003,-7.640473e-001
2.224535e+003,1.102509e-001
2.225499e+003,1.073474e+000
2.226463e+003,1.841660e+000
2.227427e+003,1.697827e+000
2.228392e+003,8.763214e-001
2.229356e+003,-2.248169e-001
2.230320e+003,-1.241434e+000
2.231284e+003,-1.223810e+000
2.232249e+003,-1.158936e-001
2.233213e+003,9.706146e-001
2.234177e+003,1.440280e+000
2.235141e+003,1.290012e+000
2.236106e+003,2.396759e-001
2.237070e+003,-5.728668e-001
2.238034e+003,5.870849e-001
2.238998e+003,2.463339e+000
2.239963e+003,3.515936e+000
2.240927e+003,3.911691e+000
2.241891e+003,3.728064e+000
2.242855e+003,3.346802e+000
2.243820e+003,3.485434e+000
2.244784e+003,4.109942e+000
2.245748e+003,4.869241e+000
2.246712e+003,5.507492e+000
2.247677e+003,5.415567e+000
2.248641e+003,4.271079e+000
2.249605e+003,2.838388e+000
2.250569e+003,1.001584e+000
2.251533e+003,2.258850e-001
2.252498e+003,3.126691e+000
2.253462e+003,6.476569e+000
2.254426e+003,6.722955e+000
2.255390e+003,5.378675e+000
2.256354e+003,4.279523e+000
2.257319e+003,3.589438e+000
2.258283e+003,3.117743e+000
2.259247e+003,2.808948e+000
2.260211e+003,2.817102e+000
2.261176e+003,3.070468e+000
2.262140e+003,2.527765e+000
2.263104e+003,4.725433e-001
2.264068e+003,-1.417160e+000
2.265033e+003,-2.276498e+000
2.265997e+003,-2.578815e+000
2.266961e+003,-2.518152e+000
2.267925e+003,-2.124240e+000
2.268890e+003,-1.097330e+000
2.269854e+003,-3.091736e-002
2.270818e+003,7.319672e-001
2.271782e+003,9.227722e-001
2.272747e+003,-2.312469e-001
2.273711e+003,-2.248666e+000
2.274675e+003,-3.209839e+000
2.275639e+003,-2.734729e+000
2.276604e+003,-2.460007e+000
2.277568e+003,-2.998294e+000
2.278532e+003,-3.333136e+000
2.279496e+003,-3.087533e+000
2.280460e+003,-2.852286e+000
2.281425e+003,-3.011319e+000
2.282389e+003,-3.027585e+000
2.283353e+003,-1.976144e+000
2.284317e+003,-1.141992e+000
2.285281e+003,-2.096835e+000
2.286246e+003,-3.926962e+000
2.287210e+003,-5.433884e+000
2.288174e+003,-6.396997e+000
2.289138e+003,-5.408926e+000
2.290103e+003,-1.585812e+000
2.291067e+003,-4.003204e-001
2.292031e+003,-3.945700e+000
2.292995e+003,-6.070587e+000
2.293960e+003,-6.257675e+000
2.294924e+003,-5.547211e+000
2.295888e+003,-3.512573e+000
2.296852e+003,-1.811929e+000
2.297817e+003,-1.142731e+000
2.298781e+003,-1.324085e+000
2.299745e+003,-2.435660e+000
2.300709e+003,-3.889563e+000
2.301674e+003,-4.783288e+000
2.302638e+003,-5.164114e+000
2.303602e+003,-5.216913e+000
2.304566e+003,-4.976379e+000
2.305531e+003,-4.059616e+000
2.306495e+003,-2.219006e+000
2.307459e+003,-1.369803e+000
2.308423e+003,-1.808261e+000
2.309387e+003,-2.367938e+000
2.310352e+003,-2.774972e+000
2.311316e+003,-3.013379e+000
2.312280e+003,-3.043445e+000
2.313244e+003,-2.998178e+000
2.314208e+003,-3.001605e+000
2.315173e+003,-3.245892e+000
2.316137e+003,-3.960956e+000
2.317101e+003,-5.161115e+000
2.318065e+003,-7.725754e+000
2.319030e+003,-1.066628e+001
2.319994e+003,-9.000326e+000
2.320958e+003,-4.165674e+000
2.321922e+003,-2.533307e+000
2.322887e+003,-3.872516e+000
2.323851e+003,-3.845847e+000
2.324815e+003,-1.926855e+000
2.325779e+003,-8.323029e-001
2.326744e+003,-1.545621e+000
2.327708e+003,-2.680798e+000
2.328672e+003,-3.377304e+000
2.329636e+003,-4.016461e+000
2.330601e+003,-5.115033e+000
2.331565e+003,-6.025113e+000
2.332529e+003,-5.954638e+000
2.333493e+003,-5.363809e+000
2.334458e+003,-4.509259e+000
2.335422e+003,-3.732492e+000
2.336386e+003,-3.645374e+000
2.337350e+003,-3.799255e+000
2.338314e+003,-2.881317e+000
2.339279e+003,-1.541217e+000
2.340243e+003,-2.394662e+000
2.341207e+003,-5.573706e+000
2.342171e+003,-7.402682e+000
2.343135e+003,-6.389618e+000
2.344100e+003,-5.609601e+000
2.345064e+003,-6.827884e+000
2.346028e+003,-7.534094e+000
2.346992e+003,-6.060660e+000
2.347957e+003,-4.904486e+000
2.348921e+003,-5.981192e+000
2.349885e+003,-7.073697e+000
2.350849e+003,-6.261584e+000
2.351814e+003,-4.811377e+000
2.352778e+003,-4.027679e+000
2.353742e+003,-3.936191e+000
2.354706e+003,-4.749710e+000
2.355671e+003,-6.310675e+000
2.356635e+003,-6.761685e+000
2.357599e+003,-5.723352e+000
2.358563e+003,-5.319586e+000
2.359528e+003,-5.891171e+000
2.360492e+003,-5.966623e+000
2.361456e+003,-5.116150e+000
2.362420e+003,-4.816568e+000
2.363385e+003,-5.632010e+000
2.364349e+003,-6.501617e+000
2.365313e+003,-6.915057e+000
2.366277e+003,-6.700790e+000
2.367241e+003,-5.601565e+000
2.368206e+003,-4.574051e+000
2.369170e+003,-5.343081e+000
2.370134e+003,-6.972571e+000
2.371098e+003,-6.345258e+000
2.372063e+003,-4.238861e+000
2.373027e+003,-4.055747e+000
2.373991e+003,-5.248507e+000
2.374955e+003,-5.824622e+000
2.375919e+003,-5.627371e+000
2.376884e+003,-4.799020e+000
2.377848e+003,-3.605115e+000
2.378812e+003,-2.593030e+000
2.379776e+003,-2.056448e+000
2.380741e+003,-2.673026e+000
2.381705e+003,-4.878839e+000
2.382669e+003,-6.343924e+000
2.383633e+003,-4.809390e+000
2.384598e+003,-2.796701e+000
2.385562e+003,-2.024811e+000
2.386526e+003,-1.997989e+000
2.387490e+003,-2.518872e+000
2.388455e+003,-3.268994e+000
2.389419e+003,-4.279892e+000
2.390383e+003,-5.106552e+000
2.391347e+003,-4.934766e+000
2.392312e+003,-4.291440e+000
2.393276e+003,-4.364999e+000
2.394240e+003,-5.215631e+000
2.395204e+003,-6.388135e+000
2.396168e+003,-8.118555e+000
2.397133e+003,-8.704340e+000
2.398097e+003,-7.572739e+000
2.399061e+003,-6.217923e+000
2.400025e+003,-4.063190e+000
2.400990e+003,-3.187152e+000
2.401954e+003,-4.756986e+000
2.402918e+003,-5.872778e+000
2.403882e+003,-5.019525e+000
2.404846e+003,-3.882114e+000
2.405811e+003,-3.855203e+000
2.406775e+003,-4.049185e+000
2.407739e+003,-3.150647e+000
2.408703e+003,-1.806967e+000
2.409668e+003,-1.906552e+000
2.410632e+003,-3.042856e+000
2.411596e+003,-2.939709e+000
2.412560e+003,-2.041315e+000
2.413525e+003,-2.410202e+000
2.414489e+003,-3.784427e+000
2.415453e+003,-4.528006e+000
2.416417e+003,-4.534006e+000
2.417382e+003,-4.719147e+000
2.418346e+003,-5.300577e+000
2.419310e+003,-5.781018e+000
2.420274e+003,-5.939444e+000
2.421239e+003,-5.934296e+000
2.422203e+003,-5.803003e+000
2.423167e+003,-5.732053e+000
2.424131e+003,-6.057950e+000
2.425095e+003,-6.206708e+000
2.426060e+003,-5.411972e+000
2.427024e+003,-4.755667e+000
2.427988e+003,-5.557831e+000
2.428952e+003,-6.425711e+000
2.429917e+003,-5.497149e+000
2.430881e+003,-3.982236e+000
2.431845e+003,-4.085715e+000
2.432809e+003,-5.337286e+000
2.433773e+003,-5.549438e+000
2.434738e+003,-4.700259e+000
2.435702e+003,-4.468875e+000
2.436666e+003,-5.297019e+000
2.437630e+003,-4.931714e+000
2.438595e+003,-2.823007e+000
2.439559e+003,-2.204416e+000
2.440523e+003,-3.718955e+000
2.441487e+003,-4.784705e+000
2.442452e+003,-4.679379e+000
2.443416e+003,-3.664066e+000
2.444380e+003,-1.859000e+000
2.445344e+003,-8.051971e-001
2.446309e+003,-1.838101e+000
2.447273e+003,-2.904336e+000
2.448237e+003,-1.055298e+000
2.449201e+003,1.723355e+000
2.450166e+003,2.468082e+000
2.451130e+003,1.715591e+000
2.452094e+003,-5.939544e-001
2.453058e+003,-3.155383e+000
2.454022e+003,-3.783780e+000
2.454987e+003,-3.311859e+000
2.455951e+003,-3.381726e+000
2.456915e+003,-4.010583e+000
2.457879e+003,-4.630942e+000
2.458844e+003,-5.077588e+000
2.459808e+003,-5.322736e+000
2.460772e+003,-5.394968e+000
2.461736e+003,-5.117264e+000
2.462700e+003,-4.033868e+000
2.463665e+003,-3.402508e+000
2.464629e+003,-3.532739e+000
2.465593e+003,-3.667151e+000
2.466557e+003,-3.663107e+000
2.467522e+003,-3.781256e+000
2.468486e+003,-4.190033e+000
2.469450e+003,-4.531903e+000
2.470414e+003,-4.548816e+000
2.471379e+003,-4.358487e+000
2.472343e+003,-4.130216e+000
2.473307e+003,-3.770883e+000
2.474271e+003,-2.935492e+000
2.475236e+003,-1.934253e+000
2.476200e+003,-1.787839e+000
2.477164e+003,-2.323972e+000
2.478128e+003,-3.366467e+000
2.479093e+003,-4.497812e+000
2.480057e+003,-4.510794e+000
2.481021e+003,-3.793601e+000
2.481985e+003,-3.931506e+000
2.482949e+003,-4.684656e+000
2.483914e+003,-3.979138e+000
2.484878e+003,-1.533905e+000
2.485842e+003,2.500549e-001
2.486806e+003,5.367767e-001
2.487771e+003,1.953125e-002
2.488735e+003,-1.991086e+000
2.489699e+003,-3.247693e+000
2.490663e+003,-2.826407e+000
2.491627e+003,-2.105826e+000
2.492592e+003,-1.105978e+000
2.493556e+003,-5.147217e-001
2.494520e+003,-7.791198e-001
2.495484e+003,-1.375824e+000
2.496449e+003,-2.070413e+000
2.497413e+003,-2.420615e+000
2.498377e+003,-1.656964e+000
2.499341e+003,-3.385742e-001
2.500306e+003,1.083557e-001
2.501270e+003,-2.137207e-001
2.502234e+003,-1.255682e+000
2.503198e+003,-2.619028e+000
2.504163e+003,-2.570602e+000
2.505127e+003,-1.661041e+000
2.506091e+003,-1.829282e+000
2.507055e+003,-2.864627e+000
2.508020e+003,-3.496054e+000
2.508984e+003,-3.405081e+000
2.509948e+003,-2.471472e+000
2.510912e+003,-8.512481e-001
2.511876e+003,-4.890259e-001
2.512841e+003,-2.807873e+000
2.513805e+003,-3.588281e+000
2.514769e+003,3.921936e-001
2.515733e+003,3.150079e+000
2.516698e+003,2.286346e+000
2.517662e+003,1.230002e+000
2.518626e+003,1.294861e+000
2.519590e+003,1.003900e+000
2.520554e+003,-9.523315e-001
2.521519e+003,-2.092297e+000
2.522483e+003,4.634399e-002
2.523447e+003,2.917859e+000
2.524411e+003,2.780264e+000
2.525376e+003,9.198853e-001
2.526340e+003,3.004730e-001
2.527304e+003,5.900177e-001
2.528268e+003,1.051361e+000
2.529233e+003,1.496521e+000
2.530197e+003,1.225067e+000
2.531161e+003,6.525696e-001
2.532125e+003,8.315827e-001
2.533090e+003,1.498850e+000
2.534054e+003,1.642542e+000
2.535018e+003,1.360596e+000
2.535982e+003,1.758389e+000
2.536947e+003,3.026791e+000
2.537911e+003,3.831354e+000
2.538875e+003,3.678818e+000
2.539839e+003,3.544537e+000
2.540803e+003,3.501090e+000
2.541768e+003,3.574973e+000
2.542732e+003,3.759213e+000
2.543696e+003,4.096194e+000
2.544660e+003,4.816583e+000
2.545625e+003,4.868390e+000
2.546589e+003,3.649921e+000
2.547553e+003,2.678076e+000
2.548517e+003,3.110031e+000
2.549482e+003,4.066607e+000
2.550446e+003,4.556458e+000
2.551410e+003,4.940430e+000
2.552374e+003,6.269012e+000
2.553339e+003,7.335406e+000
2.554303e+003,5.735242e+000
2.555267e+003,3.459976e+000
2.556231e+003,3.072180e+000
2.557196e+003,3.635599e+000
2.558160e+003,3.861670e+000
2.559124e+003,3.818668e+000
2.560088e+003,4.044226e+000
2.561052e+003,4.403583e+000
2.562017e+003,3.907144e+000
2.562981e+003,2.596612e+000
2.563945e+003,3.201822e+000
2.564909e+003,6.615668e+000
2.565874e+003,6.576166e+000
2.566838e+003,2.432590e+000
2.567802e+003,2.844330e-001
2.568766e+003,6.624085e-001
2.569730e+003,1.545114e+000
2.570695e+003,2.410800e+000
2.571659e+003,2.668387e+000
2.572623e+003,2.238788e+000
2.573587e+003,2.409439e+000
2.574552e+003,3.792804e+000
2.575516e+003,4.232181e+000
2.576480e+003,1.832733e+000
2.577444e+003,-3.870636e-001
2.578409e+003,-2.444489e-001
2.579373e+003,2.988861e-001
2.580337e+003,3.561920e-001
2.581301e+003,3.905304e-001
2.582266e+003,5.861999e-001
2.583230e+003,1.029688e+000
2.584194e+003,1.917807e+000
2.585158e+003,2.703055e+000
2.586123e+003,2.802429e+000
2.587087e+003,2.685577e+000
2.588051e+003,3.219122e+000
2.589015e+003,3.942560e+000
2.589979e+003,3.092023e+000
2.590944e+003,1.287076e+000
2.591908e+003,1.285452e+000
2.592872e+003,2.225369e+000
2.593836e+003,1.793341e+000
2.594801e+003,5.758850e-001
2.595765e+003,2.527405e-001
2.596729e+003,5.316681e-001
2.597693e+003,1.014069e-001
2.598657e+003,-9.692078e-001
2.599622e+003,-1.714410e+000
2.600586e+003,-1.930341e+000
2.601550e+003,-1.247967e+000
2.602514e+003,1.120023e+000
2.603479e+003,2.058243e+000
2.604443e+003,7.737702e-001
2.605407e+003,5.592896e-001
2.606371e+003,2.041046e+000
2.607336e+003,2.498401e+000
2.608300e+003,1.303857e+000
2.609264e+003,4.080200e-001
2.610228e+003,5.067261e-001
2.611193e+003,6.238464e-001
2.612157e+003,2.150330e-001
2.613121e+003,-1.438202e-001
2.614085e+003,-3.347778e-003
2.615050e+003,2.697082e-001
2.616014e+003,3.313599e-001
2.616978e+003,4.324402e-001
2.617942e+003,1.189886e+000
2.618906e+003,1.533865e+000
2.619871e+003,4.376343e-001
2.620835e+003,-9.168152e-001
2.621799e+003,-2.012073e+000
2.622763e+003,-2.504422e+000
2.623728e+003,-1.898996e+000
2.624692e+003,-7.817780e-001
2.625656e+003,-4.816895e-002
2.626620e+003,3.082275e-001
2.627584e+003,1.437897e-001
2.628549e+003,-2.644562e-001
2.629513e+003,2.359680e-001
2.630477e+003,1.098788e+000
2.631441e+003,1.177151e+000
2.632406e+003,6.028198e-001
2.633370e+003,-6.422089e-001
2.634334e+003,-1.907910e+000
2.635298e+003,-1.936575e+000
2.636263e+003,-1.037680e+000
2.637227e+003,-4.068024e-001
2.638191e+003,-2.122711e-001
2.639155e+003,-7.541901e-001
2.640120e+003,-2.272629e+000
2.641084e+003,-2.926379e+000
2.642048e+003,-2.792032e+000
2.643012e+003,-1.267844e+000
2.643977e+003,1.716815e+000
2.644941e+003,3.510153e+000
2.645905e+003,3.668329e+000
2.646869e+003,2.160162e+000
2.647833e+003,-5.367279e-001
2.648798e+003,-1.889380e+000
2.649762e+003,-9.910706e-001
2.650726e+003,1.539063e-001
2.651690e+003,5.917755e-001
2.652655e+003,6.596405e-001
2.653619e+003,1.287201e-001
2.654583e+003,-6.004333e-002
2.655547e+003,1.006821e+000
2.656511e+003,1.384454e+000
2.657476e+003,2.399078e-001
2.658440e+003,-9.582459e-001
2.659404e+003,-1.623334e+000
2.660368e+003,-2.055597e+000
2.661333e+003,-2.443237e+000
2.662297e+003,-2.468820e+000
2.663261e+003,-1.795334e+000
2.664225e+003,-1.064404e+000
2.665190e+003,-9.379822e-001
2.666154e+003,-1.389154e+000
2.667118e+003,-3.147610e+000
2.668082e+003,-4.509753e+000
2.669047e+003,-3.639771e+000
2.670011e+003,-2.034659e+000
2.670975e+003,-8.889984e-001
2.671939e+003,1.201172e-002
2.672904e+003,1.188391e+000
2.673868e+003,2.257730e+000
2.674832e+003,2.671558e+000
2.675796e+003,2.446213e+000
2.676760e+003,1.539301e+000
2.677725e+003,1.459076e-001
2.678689e+003,-1.211389e+000
2.679653e+003,-2.166367e+000
2.680617e+003,-1.208542e+000
2.681582e+003,6.286041e-001
2.682546e+003,1.585214e+000
2.683510e+003,1.556219e+000
2.684474e+003,-1.295013e-001
2.685438e+003,-2.278912e+000
2.686403e+003,-1.509195e+000
2.687367e+003,1.745941e+000
2.688331e+003,2.200757e+000
2.689295e+003,-3.452911e-001
2.690260e+003,-4.169312e-001
2.691224e+003,2.421216e+000
2.692188e+003,3.533044e+000
2.693152e+003,2.885416e+000
2.694117e+003,2.318964e+000
2.695081e+003,2.073413e+000
2.696045e+003,2.094797e+000
2.697009e+003,2.244724e+000
2.697974e+003,1.779266e+000
2.698938e+003,8.253632e-001
2.699902e+003,1.577966e+000
2.700866e+003,4.952521e+000
2.701831e+003,6.252222e+000
2.702795e+003,2.552161e+000
2.703759e+003,1.534424e-001
2.704723e+003,-3.080170e-001
2.705688e+003,-1.420776e-001
2.706652e+003,6.128601e-001
2.707616e+003,8.253266e-001
2.708580e+003,2.501038e-001
2.709544e+003,-1.368042e-001
2.710509e+003,5.736694e-002
2.711473e+003,5.399902e-001
2.712437e+003,1.120938e+000
2.713401e+003,1.432153e+000
2.714365e+003,1.071524e+000
2.715330e+003,9.407959e-001
2.716294e+003,2.125348e+000
2.717258e+003,2.670245e+000
2.718222e+003,1.405798e+000
2.719187e+003,9.408569e-003
2.720151e+003,-1.404269e+000
2.721115e+003,-1.583423e+000
2.722079e+003,2.734772e-001
2.723044e+003,1.778772e+000
2.724008e+003,1.132196e+000
2.724972e+003,-9.108277e-002
2.725936e+003,-3.946991e-001
2.726901e+003,-1.742554e-003
2.727865e+003,1.549167e+000
2.728829e+003,2.771426e+000
2.729793e+003,1.848880e+000
2.730758e+003,8.874481e-001
2.731722e+003,1.423154e+000
2.732686e+003,2.396207e+000
2.733650e+003,3.415473e+000
2.734615e+003,3.866669e+000
2.735579e+003,3.181567e+000
2.736543e+003,1.688193e+000
2.737507e+003,-3.803345e-001
2.738471e+003,-1.971973e+000
2.739436e+003,-4.959442e-001
2.740400e+003,2.122485e+000
2.741364e+003,3.024179e+000
2.742328e+003,2.750668e+000
2.743292e+003,8.832275e-001
2.744257e+003,-7.312195e-001
2.745221e+003,5.536682e-001
2.746185e+003,2.581985e+000
2.747149e+003,2.132181e+000
2.748114e+003,9.501709e-001
2.749078e+003,1.823108e+000
2.750042e+003,3.726758e+000
2.751006e+003,3.821576e+000
2.751971e+003,2.714462e+000
2.752935e+003,2.621091e+000
2.753899e+003,2.914758e+000
2.754863e+003,2.169037e+000
2.755828e+003,9.184845e-001
2.756792e+003,-3.915344e-001
2.757756e+003,-1.187854e+000
2.758720e+003,-1.815124e-001
2.759685e+003,1.612567e+000
2.760649e+003,1.773300e+000
2.761613e+003,7.998444e-001
2.762577e+003,1.655273e-001
2.763542e+003,-1.034698e-001
2.764506e+003,7.856995e-001
2.765470e+003,2.409003e+000
2.766434e+003,2.094491e+000
2.767398e+003,7.649506e-001
2.768363e+003,1.223483e+000
2.769327e+003,2.500452e+000
2.770291e+003,1.842758e+000
2.771255e+003,1.030914e-001
2.772219e+003,1.925995e-001
2.773184e+003,1.836645e+000
2.774148e+003,2.010126e+000
2.775112e+003,7.865814e-001
2.776076e+003,4.628845e-001
2.777041e+003,1.070050e+000
2.778005e+003,1.405869e+000
2.778969e+003,1.542636e+000
2.779933e+003,2.004504e+000
2.780898e+003,2.622064e+000
2.781862e+003,2.968332e+000
2.782826e+003,2.833685e+000
2.783790e+003,1.373636e+000
2.784755e+003,-7.822418e-001
2.785719e+003,-6.078522e-001
2.786683e+003,2.293668e+000
2.787647e+003,3.694827e+000
2.788612e+003,3.481122e+000
2.789576e+003,1.854572e+000
2.790540e+003,-1.048941e+000
2.791504e+003,-1.659637e+000
2.792469e+003,-1.917358e-001
2.793433e+003,1.450061e+000
2.794397e+003,2.775546e+000
2.795361e+003,3.712219e+000
2.796325e+003,4.098346e+000
2.797290e+003,3.366306e+000
2.798254e+003,1.530478e+000
2.799218e+003,-2.002228e-001
2.800182e+003,-1.958878e+000
2.801146e+003,-1.802811e+000
2.802111e+003,5.714935e-001
2.803075e+003,2.168985e+000
2.804039e+003,2.781351e+000
2.805003e+003,2.399631e+000
2.805968e+003,1.171747e+000
2.806932e+003,-7.836151e-001
2.807896e+003,-2.668033e+000
2.808860e+003,-2.084494e+000
2.809825e+003,1.014398e+000
2.810789e+003,2.870282e+000
2.811753e+003,2.503903e+000
2.812717e+003,2.314822e+000
2.813682e+003,2.315094e+000
2.814646e+003,2.575360e+000
2.815610e+003,3.112424e+000
2.816574e+003,3.897516e+000
2.817539e+003,4.707117e+000
2.818503e+003,4.457593e+000
2.819467e+003,3.242786e+000
2.820431e+003,2.091687e+000
2.821396e+003,1.371780e+000
2.822360e+003,1.168185e+000
2.823324e+003,1.509262e+000
2.824288e+003,2.099524e+000
2.825252e+003,3.071732e+000
2.826217e+003,3.496820e+000
2.827181e+003,3.387610e+000
2.828145e+003,3.347916e+000
2.829109e+003,3.326031e+000
2.830073e+003,2.668875e+000
2.831038e+003,1.618900e+000
2.832002e+003,1.394858e+000
2.832966e+003,2.049405e+000
2.833930e+003,2.581302e+000
2.834895e+003,2.738248e+000
2.835859e+003,2.397510e+000
2.836823e+003,1.346484e+000
2.837787e+003,1.159543e+000
2.838752e+003,1.923923e+000
2.839716e+003,2.097067e+000
2.840680e+003,1.669180e+000
2.841644e+003,1.170755e+000
2.842609e+003,7.709076e-001
2.843573e+003,8.511505e-001
2.844537e+003,1.318143e+000
2.845501e+003,1.514008e+000
2.846466e+003,1.296762e+000
2.847430e+003,1.018317e+000
2.848394e+003,6.486053e-001
2.849358e+003,1.095041e+000
2.850323e+003,2.475336e+000
2.851287e+003,2.680545e+000
2.852251e+003,1.796741e+000
2.853215e+003,5.056305e-001
2.854179e+003,-5.388702e-001
2.855144e+003,6.959717e-001
2.856108e+003,3.417718e+000
2.857072e+003,4.386054e+000
2.858036e+003,3.313019e+000
2.859000e+003,2.296258e+000
2.859965e+003,1.492047e+000
2.860929e+003,2.021610e+000
2.861893e+003,3.900934e+000
2.862857e+003,4.064984e+000
2.863822e+003,2.977875e+000
2.864786e+003,2.976056e+000
2.865750e+003,3.729831e+000
2.866714e+003,3.851169e+000
2.867679e+003,3.266162e+000
2.868643e+003,2.116196e+000
2.869607e+003,8.734955e-001
2.870571e+003,1.213559e+000
2.871536e+003,2.922113e+000
2.872500e+003,4.094385e+000
2.873464e+003,4.659894e+000
2.874428e+003,3.714429e+000
2.875393e+003,1.911346e+000
2.876357e+003,1.330093e+000
2.877321e+003,1.820688e+000
2.878285e+003,2.988120e+000
2.879250e+003,4.398749e+000
2.880214e+003,5.809851e+000
2.881178e+003,6.767889e+000
2.882142e+003,6.290362e+000
2.883106e+003,4.667865e+000
2.884071e+003,2.673508e+000
2.885035e+003,6.189636e-001
2.885999e+003,4.484223e-001
2.886963e+003,1.418561e+000
2.887927e+003,2.183832e+000
2.888892e+003,2.547143e+000
2.889856e+003,1.483429e+000
2.890820e+003,5.243713e-001
2.891784e+003,3.110187e+000
2.892749e+003,6.448651e+000
2.893713e+003,5.633850e+000
2.894677e+003,2.642313e+000
2.895641e+003,1.944171e+000
2.896606e+003,2.579797e+000
2.897570e+003,1.608341e+000
2.898534e+003,4.572449e-001
2.899498e+003,1.959128e+000
2.900463e+003,4.073102e+000
2.901427e+003,4.821387e+000
2.902391e+003,4.428290e+000
2.903355e+003,2.655371e+000
2.904320e+003,8.280457e-001
2.905284e+003,1.775024e-001
2.906248e+003,5.755951e-001
2.907212e+003,2.102341e+000
2.908177e+003,3.822452e+000
2.909141e+003,4.198083e+000
2.910105e+003,3.815588e+000
2.911069e+003,2.712128e+000
2.912033e+003,1.866360e+000
2.912998e+003,2.558426e+000
2.913962e+003,3.057803e+000
2.914926e+003,2.110959e+000
2.915890e+003,1.279486e+000
2.916854e+003,1.750204e+000
2.917819e+003,2.292194e+000
2.918783e+003,1.604956e+000
2.919747e+003,7.688324e-001
2.920711e+003,1.053629e+000
2.921676e+003,1.456055e+000
2.922640e+003,1.354980e+000
2.923604e+003,1.158212e+000
2.924568e+003,6.802704e-001
2.925533e+003,1.066183e+000
2.926497e+003,2.754477e+000
2.927461e+003,3.791019e+000
2.928425e+003,3.674329e+000
2.929390e+003,6.498169e+000
2.930354e+003,1.477079e+001
2.931318e+003,1.885461e+001
2.932282e+003,9.107855e+000
2.933247e+003,1.347742e+000
2.934211e+003,3.111758e+000
2.935175e+003,3.749991e+000
2.936139e+003,1.168506e+000
2.937104e+003,-6.289581e-001
2.938068e+003,-6.391724e-001
2.939032e+003,4.390564e-002
2.939996e+003,9.582062e-001
2.940960e+003,2.213467e+000
2.941925e+003,3.793964e+000
2.942889e+003,4.271158e+000
2.943853e+003,2.767163e+000
2.944817e+003,1.574121e+000
2.945781e+003,7.342224e-001
2.946746e+003,4.675140e-001
2.947710e+003,7.083588e-001
2.948674e+003,9.234833e-001
2.949638e+003,1.047229e+000
2.950603e+003,9.767669e-001
2.951567e+003,9.200287e-001
2.952531e+003,1.756558e+000
2.953495e+003,3.462121e+000
2.954460e+003,4.477228e+000
2.955424e+003,4.779269e+000
2.956388e+003,2.821762e+000
2.957352e+003,-8.855866e-001
2.958317e+003,-8.213867e-001
2.959281e+003,1.822354e+000
2.960245e+003,4.264154e+000
2.961209e+003,5.646814e+000
2.962174e+003,4.509286e+000
2.963138e+003,2.021765e+000
2.964102e+003,6.234619e-001
2.965066e+003,3.038116e-001
2.966031e+003,1.041180e+000
2.966995e+003,2.392911e+000
2.967959e+003,3.033667e+000
2.968923e+003,3.088068e+000
2.969887e+003,2.468811e+000
2.970852e+003,1.833990e+000
2.971816e+003,1.968649e+000
2.972780e+003,2.554318e+000
2.973744e+003,3.640036e+000
2.974708e+003,4.378027e+000
2.975673e+003,4.031253e+000
2.976637e+003,3.078821e+000
2.977601e+003,1.946042e+000
2.978565e+003,1.132849e+000
2.979530e+003,1.732251e+000
2.980494e+003,2.430026e+000
2.981458e+003,2.000266e+000
2.982422e+003,1.605090e+000
2.983387e+003,2.016953e+000
2.984351e+003,2.081271e+000
2.985315e+003,1.376813e+000
2.986279e+003,6.096771e-001
2.987244e+003,1.546875e-001
2.988208e+003,4.148132e-001
2.989172e+003,1.714633e+000
2.990136e+003,2.270020e+000
2.991101e+003,1.381653e-001
2.992065e+003,-7.942352e-001
2.993029e+003,9.210052e-001
2.993993e+003,1.813800e+000
2.994958e+003,1.455774e+000
2.995922e+003,1.148682e+000
2.996886e+003,1.162656e+000
2.997850e+003,1.117795e+000
2.998814e+003,9.524109e-001
2.999779e+003,8.844544e-001
3.000743e+003,9.712067e-001
3.001707e+003,1.684271e+000
3.002671e+003,3.267066e+000
3.003635e+003,3.524292e+000
3.004600e+003,2.563354e+000
3.005564e+003,2.702634e+000
3.006528e+003,3.486780e+000
3.007492e+003,3.009982e+000
3.008457e+003,1.753476e+000
3.009421e+003,9.725708e-001
3.010385e+003,8.508789e-001
3.011349e+003,1.646359e+000
3.012314e+003,2.635046e+000
3.013278e+003,1.688718e+000
3.014242e+003,-4.048157e-001
3.015206e+003,-1.356610e+000
3.016171e+003,-1.310196e+000
3.017135e+003,2.478271e-001
3.018099e+003,1.877469e+000
3.019063e+003,1.968448e+000
3.020028e+003,1.483508e+000
3.020992e+003,1.258374e+000
3.021956e+003,1.025882e+000
3.022920e+003,5.161530e-001
3.023885e+003,2.716370e-002
3.024849e+003,-4.794617e-002
3.025813e+003,-9.589843e-002
3.026777e+003,-5.584351e-001
3.027741e+003,-1.015070e+000
3.028706e+003,-1.819281e+000
3.029670e+003,-1.271686e+000
3.030634e+003,1.525440e+000
3.031598e+003,2.549463e+000
3.032563e+003,6.189545e-001
3.033527e+003,-4.931824e-001
3.034491e+003,7.165680e-001
3.035455e+003,1.404242e+000
3.036420e+003,2.042572e-001
3.037384e+003,-7.380371e-001
3.038348e+003,-1.122107e+000
3.039312e+003,-8.039306e-001
3.040277e+003,2.222351e-001
3.041241e+003,-6.499969e-001
3.042205e+003,-2.935944e+000
3.043169e+003,-3.727762e+000
3.044134e+003,-2.979855e+000
3.045098e+003,-2.032867e+000
3.046062e+003,-1.086087e+000
3.047026e+003,4.077820e-001
3.047990e+003,2.158685e+000
3.048955e+003,2.560046e+000
3.049919e+003,1.706741e+000
3.050883e+003,-8.212036e-001
3.051847e+003,-3.536645e+000
3.052812e+003,-3.618182e+000
3.053776e+003,-2.627985e+000
3.054740e+003,-2.656928e+000
3.055704e+003,-2.635080e+000
3.056668e+003,-1.283789e+000
3.057633e+003,1.977631e-001
3.058597e+003,4.684296e-001
3.059561e+003,1.541840e-001
3.060525e+003,-9.212951e-002
3.061490e+003,-3.647827e-001
3.062454e+003,-7.540131e-001
3.063418e+003,-1.120892e+000
3.064382e+003,-1.559659e+000
3.065347e+003,-1.661639e+000
3.066311e+003,-1.293262e+000
3.067275e+003,-5.933411e-001
3.068239e+003,2.983460e-001
3.069204e+003,5.223206e-001
3.070168e+003,-3.545166e-001
3.071132e+003,-8.768280e-001
3.072096e+003,-3.630493e-001
3.073061e+003,1.448029e-001
3.074025e+003,6.949005e-001
3.074989e+003,8.609802e-001
3.075953e+003,5.789673e-001
3.076917e+003,-4.108582e-001
3.077882e+003,-1.687811e+000
3.078846e+003,-2.009207e+000
3.079810e+003,-1.631671e+000
3.080774e+003,-2.117023e+000
3.081739e+003,-3.035882e+000
3.082703e+003,-2.924460e+000
3.083667e+003,-2.006650e+000
3.084631e+003,-5.324371e-001
3.085595e+003,8.393250e-001
3.086560e+003,1.062338e+000
3.087524e+003,6.465851e-001
3.088488e+003,-1.571747e-001
3.089452e+003,-1.107971e+000
3.090417e+003,-2.135971e+000
3.091381e+003,-2.905719e+000
3.092345e+003,-3.160397e+000
3.093309e+003,-3.013229e+000
3.094274e+003,-2.474310e+000
3.095238e+003,-1.940485e+000
3.096202e+003,-1.662845e+000
3.097166e+003,-1.330688e+000
3.098131e+003,-8.747894e-001
3.099095e+003,-4.350677e-001
3.100059e+003,-7.049866e-002
3.101023e+003,-2.230713e-001
3.101988e+003,-8.027039e-001
3.102952e+003,-8.331726e-001
3.103916e+003,-1.880798e-001
3.104880e+003,-2.618012e-001
3.105844e+003,-1.202863e+000
3.106809e+003,-1.212170e+000
3.107773e+003,-4.744903e-001
3.108737e+003,-1.603451e+000
3.109701e+003,-3.597434e+000
3.110666e+003,-3.961826e+000
3.111630e+003,-3.184283e+000
3.112594e+003,-1.765097e+000
3.113558e+003,-6.726288e-001
3.114522e+003,-1.068060e+000
3.115487e+003,-1.999664e+000
3.116451e+003,-2.059851e+000
3.117415e+003,-1.914526e+000
3.118379e+003,-2.830280e+000
3.119344e+003,-3.543866e+000
3.120308e+003,-3.019092e+000
3.121272e+003,-2.111728e+000
3.122236e+003,-8.900116e-001
3.123201e+003,-3.961365e-001
3.124165e+003,-9.278381e-001
3.125129e+003,-7.781677e-001
3.126093e+003,5.519470e-001
3.127058e+003,5.292481e-001
3.128022e+003,-2.251907e+000
3.128986e+003,-2.848657e+000
3.129950e+003,4.512909e-001
3.130915e+003,9.992523e-001
3.131879e+003,-8.815521e-001
3.132843e+003,-1.769489e+000
3.133807e+003,-1.759064e+000
3.134771e+003,-1.810483e+000
3.135736e+003,-2.007547e+000
3.136700e+003,-2.171640e+000
3.137664e+003,-2.295941e+000
3.138628e+003,-2.435236e+000
3.139593e+003,-2.606531e+000
3.140557e+003,-2.976013e+000
3.141521e+003,-3.214471e+000
3.142485e+003,-2.447534e+000
3.143449e+003,-1.772415e+000
3.144414e+003,-1.920282e+000
3.145378e+003,-2.906110e+000
3.146342e+003,-5.077719e+000
3.147306e+003,-5.427829e+000
3.148271e+003,-2.700876e+000
3.149235e+003,-8.899475e-001
3.150199e+003,-2.267181e+000
3.151163e+003,-4.190835e+000
3.152128e+003,-6.080267e+000
3.153092e+003,-6.688553e+000
3.154056e+003,-5.916464e+000
3.155020e+003,-5.013425e+000
3.155985e+003,-4.183215e+000
3.156949e+003,-3.984595e+000
3.157913e+003,-3.922040e+000
3.158877e+003,-1.799915e+000
3.159842e+003,7.122284e-001
3.160806e+003,-1.747357e+000
3.161770e+003,-6.474380e+000
3.162734e+003,-5.941428e+000
3.163698e+003,-2.655090e+000
3.164663e+003,-1.166321e+000
3.165627e+003,-1.101810e+000
3.166591e+003,-3.247479e+000
3.167555e+003,-4.887189e+000
3.168520e+003,-4.373755e+000
3.169484e+003,-3.816135e+000
3.170448e+003,-4.193719e+000
3.171412e+003,-4.122882e+000
3.172376e+003,-2.798181e+000
3.173341e+003,-1.900937e+000
3.174305e+003,-2.813074e+000
3.175269e+003,-2.388882e+000
3.176233e+003,1.288910e-001
3.177198e+003,7.329712e-001
3.178162e+003,-5.270203e-001
3.179126e+003,-1.986978e+000
3.180090e+003,-3.168094e+000
3.181055e+003,-3.509488e+000
3.182019e+003,-3.312552e+000
3.182983e+003,-3.532242e+000
3.183947e+003,-3.946927e+000
3.184912e+003,-4.040848e+000
3.185876e+003,-3.733517e+000
3.186840e+003,-2.159091e+000
3.187804e+003,-9.750458e-001
3.188769e+003,-2.749643e+000
3.189733e+003,-4.324640e+000
3.190697e+003,-3.911209e+000
3.191661e+003,-3.080081e+000
3.192625e+003,-2.483218e+000
3.193590e+003,-2.739090e+000
3.194554e+003,-4.081800e+000
3.195518e+003,-4.049957e+000
3.196482e+003,-6.968292e-001
3.197447e+003,5.633240e-001
3.198411e+003,-1.095755e+000
3.199375e+003,-1.604059e+000
3.200339e+003,-1.086679e+000
3.201303e+003,-9.459351e-001
3.202268e+003,-1.311746e+000
3.203232e+003,-2.575061e+000
3.204196e+003,-3.837067e+000
3.205160e+003,-3.261713e+000
3.206125e+003,-1.803314e+000
3.207089e+003,-1.070187e+000
3.208053e+003,-9.549438e-001
3.209017e+003,-1.645563e+000
3.209982e+003,-2.371112e+000
3.210946e+003,-2.769095e+000
3.211910e+003,-2.331793e+000
3.212874e+003,-6.471008e-001
3.213839e+003,2.875305e-001
3.214803e+003,-1.714325e-001
3.215767e+003,-1.368323e+000
3.216731e+003,-2.862741e+000
3.217696e+003,-3.352139e+000
3.218660e+003,-2.218970e+000
3.219624e+003,-1.504523e+000
3.220588e+003,-1.215555e+000
3.221552e+003,-1.264279e+000
3.222517e+003,-1.587808e+000
3.223481e+003,-2.241977e+000
3.224445e+003,-2.968512e+000
3.225409e+003,-3.239978e+000
3.226374e+003,-3.328839e+000
3.227338e+003,-3.715491e+000
3.228302e+003,-3.719037e+000
3.229266e+003,-2.315701e+000
3.230230e+003,-9.532806e-001
3.231195e+003,-1.476962e+000
3.232159e+003,-2.054745e+000
3.233123e+003,-1.754242e+000
3.234087e+003,-1.805975e+000
3.235052e+003,-2.398874e+000
3.236016e+003,-2.343869e+000
3.236980e+003,-1.578952e+000
3.237944e+003,-1.249466e+000
3.238909e+003,-1.589539e+000
3.239873e+003,-1.931842e+000
3.240837e+003,-2.267392e+000
3.241801e+003,-3.592328e+000
3.242766e+003,-5.157031e+000
3.243730e+003,-3.177737e+000
3.244694e+003,-1.222137e-001
3.245658e+003,9.690704e-001
3.246623e+003,4.621216e-001
3.247587e+003,-1.481052e+000
3.248551e+003,-3.264947e+000
3.249515e+003,-3.898450e+000
3.250479e+003,-4.041870e+000
3.251444e+003,-4.178250e+000
3.252408e+003,-4.079593e+000
3.253372e+003,-3.117383e+000
3.254336e+003,-3.266333e+000
3.255301e+003,-4.781595e+000
3.256265e+003,-3.998538e+000
3.257229e+003,-1.501950e+000
3.258193e+003,-1.220850e+000
3.259157e+003,-2.772076e+000
3.260122e+003,-3.942767e+000
3.261086e+003,-4.186530e+000
3.262050e+003,-2.872028e+000
3.263014e+003,-1.066220e+000
3.263979e+003,-1.372226e+000
3.264943e+003,-2.375339e+000
3.265907e+003,-2.743631e+000
3.266871e+003,-2.471848e+000
3.267836e+003,-1.199673e+000
3.268800e+003,-5.482270e-001
3.269764e+003,-9.349976e-001
3.270728e+003,-1.102859e+000
3.271693e+003,-6.857880e-001
3.272657e+003,-9.841980e-001
3.273621e+003,-2.515854e+000
3.274585e+003,-2.018075e+000
3.275550e+003,7.354553e-001
3.276514e+003,1.283759e+000
3.277478e+003,3.863403e-001
3.278442e+003,7.766724e-003
3.279406e+003,-1.594910e-001
3.280371e+003,-1.017569e+000
3.281335e+003,-1.664050e+000
3.282299e+003,-1.218008e+000
3.283263e+003,-6.824371e-001
3.284228e+003,-1.032291e+000
3.285192e+003,-1.327512e+000
3.286156e+003,-7.205292e-001
3.287120e+003,4.837036e-002
3.288084e+003,8.381958e-001
3.289049e+003,1.572562e+000
3.290013e+003,2.240512e+000
3.290977e+003,2.780270e+000
3.291941e+003,3.191711e+000
3.292906e+003,3.901044e+000
3.293870e+003,4.243048e+000
3.294834e+003,2.105780e+000
3.295798e+003,-1.017267e+000
3.296763e+003,-7.713196e-001
3.297727e+003,5.501465e-001
3.298691e+003,-1.576353e+000
3.299655e+003,-3.311673e+000
3.300620e+003,-8.997162e-001
3.301584e+003,1.000305e+000
3.302548e+003,1.059811e+000
3.303512e+003,1.767227e+000
3.304477e+003,3.819339e+000
3.305441e+003,4.442276e+000
3.306405e+003,2.583475e+000
3.307369e+003,1.771845e+000
3.308333e+003,2.250119e+000
3.309298e+003,2.885858e+000
3.310262e+003,3.534930e+000
3.311226e+003,3.805429e+000
3.312190e+003,3.688840e+000
3.313155e+003,2.944965e+000
3.314119e+003,2.085815e+000
3.315083e+003,1.418314e+000
3.316047e+003,1.432523e+000
3.317011e+003,2.579193e+000
3.317976e+003,3.904498e+000
3.318940e+003,4.950437e+000
3.319904e+003,5.251248e+000
3.320868e+003,4.604159e+000
3.321833e+003,4.485944e+000
3.322797e+003,4.862857e+000
3.323761e+003,4.915326e+000
3.324725e+003,4.548163e+000
3.325690e+003,3.593930e+000
3.326654e+003,2.598410e+000
3.327618e+003,2.506506e+000
3.328582e+003,3.223853e+000
3.329547e+003,5.230560e+000
3.330511e+003,6.739517e+000
3.331475e+003,4.589410e+000
3.332439e+003,3.070105e+000
3.333404e+003,4.251395e+000
3.334368e+003,5.115219e+000
3.335332e+003,5.023340e+000
3.336296e+003,4.173148e+000
3.337260e+003,3.014184e+000
3.338225e+003,3.808713e+000
3.339189e+003,6.614347e+000
3.340153e+003,6.567328e+000
3.341117e+003,4.386841e+000
3.342082e+003,3.662912e+000
3.343046e+003,4.011411e+000
3.344010e+003,5.902890e+000
3.344974e+003,7.079889e+000
3.345938e+003,5.320376e+000
3.346903e+003,4.314056e+000
3.347867e+003,5.777255e+000
3.348831e+003,7.331885e+000
3.349795e+003,7.685532e+000
3.350760e+003,7.010175e+000
3.351724e+003,4.569156e+000
3.352688e+003,4.746249e+000
3.353652e+003,7.179925e+000
3.354617e+003,7.950021e+000
3.355581e+003,7.620242e+000
3.356545e+003,7.738208e+000
3.357509e+003,8.062793e+000
3.358474e+003,8.314743e+000
3.359438e+003,7.663928e+000
3.360402e+003,5.112813e+000
3.361366e+003,3.578615e+000
3.362331e+003,6.948395e+000
3.363295e+003,9.232733e+000
3.364259e+003,7.431488e+000
3.365223e+003,6.972296e+000
3.366188e+003,8.066401e+000
3.367152e+003,8.028488e+000
3.368116e+003,7.126227e+000
3.369080e+003,7.582807e+000
3.370044e+003,8.811856e+000
3.371009e+003,8.645111e+000
3.371973e+003,7.793359e+000
3.372937e+003,7.420363e+000
3.373901e+003,7.496576e+000
3.374865e+003,8.623919e+000
3.375830e+003,9.026499e+000
3.376794e+003,7.737692e+000
3.377758e+003,6.621399e+000
3.378722e+003,6.182742e+000
3.379687e+003,7.720630e+000
3.380651e+003,1.087015e+001
3.381615e+003,1.225569e+001
3.382579e+003,1.172545e+001
3.383544e+003,1.224687e+001
3.384508e+003,1.310092e+001
3.385472e+003,1.108888e+001
3.386436e+003,8.593257e+000
3.387401e+003,8.363131e+000
3.388365e+003,9.195274e+000
3.389329e+003,1.055851e+001
3.390293e+003,1.118590e+001
3.391258e+003,1.070864e+001
3.392222e+003,1.110917e+001
3.393186e+003,1.321168e+001
3.394150e+003,1.403447e+001
3.395115e+003,1.320356e+001
3.396079e+003,1.353434e+001
3.397043e+003,1.445525e+001
3.398007e+003,1.381087e+001
3.398971e+003,1.298085e+001
3.399936e+003,1.461382e+001
3.400900e+003,1.567850e+001
3.401864e+003,1.421572e+001
3.402828e+003,1.251428e+001
3.403792e+003,1.213694e+001
3.404757e+003,1.247878e+001
3.405721e+003,1.370897e+001
3.406685e+003,1.375969e+001
3.407649e+003,1.258741e+001
3.408614e+003,1.358520e+001
3.409578e+003,1.598707e+001
3.410542e+003,1.799210e+001
3.411506e+003,1.881154e+001
3.412471e+003,1.735739e+001
3.413435e+003,1.559639e+001
3.414399e+003,1.538083e+001
3.415363e+003,1.594119e+001
3.416328e+003,1.690038e+001
3.417292e+003,1.744812e+001
3.418256e+003,1.725687e+001
3.419220e+003,1.672152e+001
3.420185e+003,1.600663e+001
3.421149e+003,1.609134e+001
3.422113e+003,1.664054e+001
3.423077e+003,1.622751e+001
3.424042e+003,1.560153e+001
3.425006e+003,1.631503e+001
3.425970e+003,1.777249e+001
3.426934e+003,1.937933e+001
