7.140112e+001,9.401099e+001
7.236536e+001,9.163664e+001
7.332959e+001,9.099760e+001
7.429382e+001,9.148186e+001
7.525806e+001,9.364323e+001
7.622229e+001,9.311258e+001
7.718652e+001,8.627560e+001
7.815076e+001,6.902119e+001
7.911499e+001,5.882417e+001
8.007922e+001,5.413245e+001
8.104346e+001,5.479749e+001
8.200769e+001,6.170128e+001
8.297192e+001,8.101942e+001
8.393616e+001,9.773628e+001
8.490039e+001,1.093572e+002
8.586462e+001,1.156405e+002
8.682886e+001,1.169503e+002
8.779310e+001,1.107626e+002
8.875733e+001,1.010568e+002
8.972157e+001,8.851521e+001
9.068580e+001,7.414568e+001
9.165003e+001,5.938285e+001
9.261427e+001,5.205699e+001
9.357850e+001,4.986995e+001
9.454273e+001,5.032645e+001
9.550697e+001,5.205363e+001
9.647120e+001,5.618449e+001
9.743543e+001,5.750440e+001
9.839967e+001,5.535496e+001
9.936390e+001,5.129992e+001
1.003281e+002,4.698958e+001
1.012924e+002,4.136975e+001
1.022566e+002,3.717643e+001
1.032208e+002,3.526781e+001
1.041851e+002,3.518908e+001
1.051493e+002,3.576305e+001
1.061135e+002,3.666042e+001
1.070778e+002,3.729013e+001
1.080420e+002,3.758949e+001
1.090062e+002,3.741619e+001
1.099705e+002,3.648759e+001
1.109347e+002,3.255067e+001
1.118989e+002,2.733808e+001
1.128632e+002,2.360946e+001
1.138274e+002,2.339606e+001
1.147916e+002,2.743312e+001
1.157559e+002,3.083178e+001
1.167201e+002,3.429050e+001
1.176843e+002,3.695792e+001
1.186486e+002,3.759661e+001
1.196128e+002,3.356086e+001
1.205770e+002,3.092210e+001
1.215413e+002,3.127835e+001
1.225055e+002,3.334498e+001
1.234697e+002,3.424293e+001
1.244340e+002,3.073219e+001
1.253982e+002,2.655313e+001
1.263624e+002,2.143854e+001
1.273267e+002,1.618483e+001
1.282909e+002,1.296023e+001
1.292551e+002,1.978380e+001
1.302194e+002,2.987766e+001
1.311836e+002,3.746355e+001
1.321478e+002,3.883279e+001
1.331121e+002,3.377213e+001
1.340763e+002,2.790495e+001
1.350405e+002,2.084875e+001
1.360048e+002,1.483214e+001
1.369690e+002,1.232767e+001
1.379332e+002,1.604998e+001
1.388975e+002,1.961713e+001
1.398617e+002,2.350126e+001
1.408259e+002,2.695954e+001
1.417902e+002,2.888895e+001
1.427544e+002,2.832159e+001
1.437186e+002,2.646217e+001
1.446829e+002,2.244419e+001
1.456471e+002,1.710125e+001
1.466113e+002,1.244875e+001
1.475756e+002,1.158286e+001
1.485398e+002,1.281606e+001
1.495040e+002,1.660953e+001
1.504683e+002,2.265295e+001
1.514325e+002,2.975721e+001
1.523967e+002,3.016471e+001
1.533610e+002,2.544501e+001
1.543252e+002,1.996198e+001
1.552894e+002,1.683794e+001
1.562537e+002,1.708815e+001
1.572179e+002,1.677487e+001
1.581821e+002,1.422342e+001
1.591464e+002,1.218960e+001
1.601106e+002,1.410254e+001
1.610748e+002,2.523878e+001
1.620391e+002,3.236126e+001
1.630033e+002,3.116110e+001
1.639676e+002,2.473034e+001
1.649318e+002,1.785773e+001
1.658960e+002,1.450551e+001
1.668603e+002,1.310505e+001
1.678245e+002,1.317759e+001
1.687887e+002,1.428383e+001
1.697530e+002,1.582297e+001
1.707172e+002,1.606458e+001
1.716814e+002,1.547391e+001
1.726457e+002,1.530839e+001
1.736099e+002,1.610878e+001
1.745741e+002,1.795127e+001
1.755384e+002,1.783901e+001
1.765026e+002,1.438380e+001
1.774668e+002,1.112267e+001
1.784311e+002,1.037436e+001
1.793953e+002,1.364996e+001
1.803595e+002,1.479906e+001
1.813238e+002,1.129666e+001
1.822880e+002,6.759631e+000
1.832522e+002,4.261243e+000
1.842165e+002,6.530902e+000
1.851807e+002,8.950903e+000
1.861449e+002,7.628797e+000
1.871092e+002,4.278809e+000
1.880734e+002,1.193286e+000
1.890376e+002,1.637567e+000
1.900019e+002,4.522272e+000
1.909661e+002,6.241351e+000
1.919303e+002,6.583612e+000
1.928946e+002,6.185083e+000
1.938588e+002,7.098999e+000
1.948230e+002,9.866986e+000
1.957873e+002,1.278865e+001
1.967515e+002,1.516141e+001
1.977157e+002,1.710939e+001
1.986800e+002,2.122107e+001
1.996442e+002,2.732824e+001
2.006084e+002,3.551149e+001
2.015727e+002,4.918959e+001
2.025369e+002,6.905070e+001
2.035011e+002,8.243469e+001
2.044654e+002,7.695324e+001
2.054296e+002,6.478387e+001
2.063938e+002,5.122753e+001
2.073581e+002,3.996611e+001
2.083223e+002,3.237008e+001
2.092865e+002,3.070716e+001
2.102508e+002,3.363178e+001
2.112150e+002,4.028082e+001
2.121792e+002,4.994588e+001
2.131435e+002,6.407575e+001
2.141077e+002,7.059727e+001
2.150719e+002,6.659438e+001
2.160362e+002,5.780894e+001
2.170004e+002,5.271989e+001
2.179646e+002,5.449398e+001
2.189289e+002,5.613034e+001
2.198931e+002,5.426714e+001
2.208573e+002,5.186295e+001
2.218216e+002,5.484764e+001
2.227858e+002,7.350811e+001
2.237500e+002,9.206944e+001
2.247143e+002,1.070436e+002
2.256785e+002,1.164461e+002
2.266427e+002,1.184660e+002
2.276070e+002,1.039060e+002
2.285712e+002,8.114535e+001
2.295354e+002,6.046513e+001
2.304997e+002,4.495401e+001
2.314639e+002,3.408729e+001
2.324281e+002,2.500394e+001
2.333924e+002,1.732014e+001
2.343566e+002,1.169156e+001
2.353208e+002,9.070294e+000
2.362851e+002,1.008467e+001
2.372493e+002,1.009760e+001
2.382135e+002,8.323853e+000
2.391778e+002,6.207855e+000
2.401420e+002,4.349945e+000
2.411062e+002,2.947559e+000
2.420705e+002,1.798071e+000
2.430347e+002,3.566101e-001
2.439989e+002,-8.297302e-001
2.449632e+002,-1.099530e+000
2.459274e+002,1.238098e-001
2.468916e+002,1.965631e+000
2.478559e+002,2.684875e+000
2.488201e+002,2.487231e+000
2.497843e+002,1.457214e+000
2.507486e+002,-3.515320e-001
2.517128e+002,-3.256262e+000
2.526770e+002,-3.749915e+000
2.536413e+002,-9.668518e-001
2.546055e+002,3.265674e+000
2.555697e+002,6.145441e+000
2.565340e+002,6.982709e+000
2.574982e+002,7.101477e+000
2.584625e+002,6.032654e+000
2.594267e+002,4.567963e+000
2.603909e+002,4.049622e+000
2.613552e+002,6.416162e+000
2.623194e+002,8.304346e+000
2.632836e+002,7.933136e+000
2.642479e+002,5.779737e+000
2.652121e+002,3.191303e+000
2.661763e+002,2.167938e+000
2.671406e+002,2.073767e+000
2.681048e+002,1.930896e+000
2.690690e+002,1.561639e+000
2.700333e+002,1.053931e+000
2.709975e+002,8.159973e-001
2.719617e+002,9.567078e-001
2.729260e+002,1.105975e+000
2.738902e+002,1.230572e+000
2.748544e+002,1.326868e+000
2.758187e+002,1.256958e+000
2.767829e+002,8.273987e-001
2.777471e+002,3.101135e-001
2.787114e+002,-2.961243e-001
2.796756e+002,-9.252747e-001
2.806398e+002,-1.216412e+000
2.816041e+002,-7.613159e-001
2.825683e+002,-1.167419e-001
2.835325e+002,5.879028e-001
2.844968e+002,1.236566e+000
2.854610e+002,1.645831e+000
2.864252e+002,9.849671e-001
2.873895e+002,-1.875305e-001
2.883537e+002,-9.273926e-001
2.893179e+002,-6.181946e-001
2.902822e+002,8.575073e-001
2.912464e+002,1.633197e+000
2.922106e+002,1.808099e+000
2.931749e+002,1.501587e+000
2.941391e+002,5.218384e-001
2.951033e+002,-1.677374e+000
2.960676e+002,-2.927905e+000
2.970318e+002,-2.669989e+000
2.979960e+002,-1.798785e+000
2.989603e+002,-8.122803e-001
2.999245e+002,1.294373e-001
3.008887e+002,7.260010e-001
3.018530e+002,8.433594e-001
3.028172e+002,6.265442e-001
3.037814e+002,3.182983e-002
3.047457e+002,-1.007867e+000
3.057099e+002,-1.965302e+000
3.066741e+002,-9.975830e-001
3.076384e+002,1.363055e+000
3.086026e+002,3.172253e+000
3.095668e+002,2.185901e+000
3.105311e+002,-3.002710e+000
3.114953e+002,-5.785730e+000
3.124595e+002,-5.001007e+000
3.134238e+002,-2.902386e+000
3.143880e+002,-2.260913e+000
3.153522e+002,-4.748724e+000
3.163165e+002,-5.958117e+000
3.172807e+002,-4.937055e+000
3.182449e+002,-2.439954e+000
3.192092e+002,9.904358e-001
3.201734e+002,5.857849e+000
3.211376e+002,9.511218e+000
3.221019e+002,9.814306e+000
3.230661e+002,7.863946e+000
3.240303e+002,5.210150e+000
3.249946e+002,3.613623e+000
3.259588e+002,3.051953e+000
3.269230e+002,2.388299e+000
3.278873e+002,1.598639e+000
3.288515e+002,1.007410e+000
3.298157e+002,1.191260e+000
3.307800e+002,2.607355e+000
3.317442e+002,4.487939e+000
3.327084e+002,7.230390e+000
3.336727e+002,1.022932e+001
3.346369e+002,1.245766e+001
3.356011e+002,1.307985e+001
3.365654e+002,1.380424e+001
3.375296e+002,1.532807e+001
3.384938e+002,1.722835e+001
3.394581e+002,1.868908e+001
3.404223e+002,1.855286e+001
3.413865e+002,1.823859e+001
3.423508e+002,1.883219e+001
3.433150e+002,2.044924e+001
3.442792e+002,2.301342e+001
3.452435e+002,2.640984e+001
3.462077e+002,3.089061e+001
3.471719e+002,3.660563e+001
3.481362e+002,4.331397e+001
3.491004e+002,5.153852e+001
3.500646e+002,6.241979e+001
3.510289e+002,7.292487e+001
3.519931e+002,9.211703e+001
3.529573e+002,1.214819e+002
3.539216e+002,1.590518e+002
3.548858e+002,2.037022e+002
3.558500e+002,2.729919e+002
3.568143e+002,3.226596e+002
3.577785e+002,3.365221e+002
3.587427e+002,3.211956e+002
3.597070e+002,2.881914e+002
3.606712e+002,2.420776e+002
3.616354e+002,1.921736e+002
3.625997e+002,1.488701e+002
3.635639e+002,1.132775e+002
3.645281e+002,8.580001e+001
3.654924e+002,6.696129e+001
3.664566e+002,5.953857e+001
3.674208e+002,5.165357e+001
3.683851e+002,4.222478e+001
3.693493e+002,3.269086e+001
3.703135e+002,2.629812e+001
3.712778e+002,2.594684e+001
3.722420e+002,2.557250e+001
3.732062e+002,2.474924e+001
3.741705e+002,2.359761e+001
3.751347e+002,2.238601e+001
3.760989e+002,2.119290e+001
3.770632e+002,2.001747e+001
3.780274e+002,1.859806e+001
3.789916e+002,1.710696e+001
3.799559e+002,1.583189e+001
3.809201e+002,1.512874e+001
3.818844e+002,1.504028e+001
3.828486e+002,1.527404e+001
3.838128e+002,1.581321e+001
3.847771e+002,1.653556e+001
3.857413e+002,1.725859e+001
3.867055e+002,1.800978e+001
3.876698e+002,1.881296e+001
3.886340e+002,1.914116e+001
3.895982e+002,1.962170e+001
3.905625e+002,2.149076e+001
3.915267e+002,2.693126e+001
3.924909e+002,2.982898e+001
3.934552e+002,2.792320e+001
3.944194e+002,2.388803e+001
3.953836e+002,2.050472e+001
3.963479e+002,1.940760e+001
3.973121e+002,1.946653e+001
3.982763e+002,1.953333e+001
3.992406e+002,1.968357e+001
4.002048e+002,1.993987e+001
4.011690e+002,2.029490e+001
4.021333e+002,2.084055e+001
4.030975e+002,2.213139e+001
4.040617e+002,2.416802e+001
4.050260e+002,2.657951e+001
4.059902e+002,2.907879e+001
4.069544e+002,3.190116e+001
4.079187e+002,3.389263e+001
4.088829e+002,3.327522e+001
4.098471e+002,3.326555e+001
4.108114e+002,3.639506e+001
4.117756e+002,4.363339e+001
4.127398e+002,5.234730e+001
4.137041e+002,6.453009e+001
4.146683e+002,7.551341e+001
4.156325e+002,8.147549e+001
4.165968e+002,8.042538e+001
4.175610e+002,7.520186e+001
4.185252e+002,6.949815e+001
4.194895e+002,6.382222e+001
4.204537e+002,5.874826e+001
4.214179e+002,5.467693e+001
4.223822e+002,5.163432e+001
4.233464e+002,5.011596e+001
4.243106e+002,4.979769e+001
4.252749e+002,5.027060e+001
4.262391e+002,5.069475e+001
4.272033e+002,5.081062e+001
4.281676e+002,5.510419e+001
4.291318e+002,6.477138e+001
4.300960e+002,7.725395e+001
4.310603e+002,9.171744e+001
4.320245e+002,1.079271e+002
4.329887e+002,1.266563e+002
4.339530e+002,1.494189e+002
4.349172e+002,1.746458e+002
4.358814e+002,2.057025e+002
4.368457e+002,2.406305e+002
4.378099e+002,2.729014e+002
4.387741e+002,2.891721e+002
4.397384e+002,2.910604e+002
4.407026e+002,2.821371e+002
4.416668e+002,2.620708e+002
4.426311e+002,2.341901e+002
4.435953e+002,2.096714e+002
4.445595e+002,1.892518e+002
4.455238e+002,1.721150e+002
4.464880e+002,1.590393e+002
4.474522e+002,1.491910e+002
4.484165e+002,1.411449e+002
4.493807e+002,1.362647e+002
4.503449e+002,1.313417e+002
4.513092e+002,1.261769e+002
4.522734e+002,1.200130e+002
4.532376e+002,1.115674e+002
4.542019e+002,9.897163e+001
4.551661e+002,8.544384e+001
4.561303e+002,7.492983e+001
4.570946e+002,6.708923e+001
4.580588e+002,6.105937e+001
4.590230e+002,5.589121e+001
4.599873e+002,5.176298e+001
4.609515e+002,4.905558e+001
4.619157e+002,4.744925e+001
4.628800e+002,4.718620e+001
4.638442e+002,4.897205e+001
4.648084e+002,5.407673e+001
4.657727e+002,5.725042e+001
4.667369e+002,5.649766e+001
4.677011e+002,5.587019e+001
4.686654e+002,5.857722e+001
4.696296e+002,6.567949e+001
4.705938e+002,7.169648e+001
4.715581e+002,7.209950e+001
4.725223e+002,7.005305e+001
4.734865e+002,6.725764e+001
4.744508e+002,6.450850e+001
4.754150e+002,6.150273e+001
4.763792e+002,5.688331e+001
4.773435e+002,5.124922e+001
4.783077e+002,4.621607e+001
4.792719e+002,4.232306e+001
4.802362e+002,3.948344e+001
4.812004e+002,3.714221e+001
4.821646e+002,3.558551e+001
4.831289e+002,3.407528e+001
4.840931e+002,3.228045e+001
4.850573e+002,3.037857e+001
4.860216e+002,2.894854e+001
4.869858e+002,2.885814e+001
4.879500e+002,2.880791e+001
4.889143e+002,2.877020e+001
4.898785e+002,2.836956e+001
4.908427e+002,2.686608e+001
4.918070e+002,2.311089e+001
4.927712e+002,1.899556e+001
4.937354e+002,1.757927e+001
4.946997e+002,1.827286e+001
4.956639e+002,1.966920e+001
4.966281e+002,2.035704e+001
4.975924e+002,2.025502e+001
4.985566e+002,2.004618e+001
4.995208e+002,1.864530e+001
5.004851e+002,1.857482e+001
5.014493e+002,2.237982e+001
5.024135e+002,3.127477e+001
5.033778e+002,3.825615e+001
5.043420e+002,4.292651e+001
5.053063e+002,4.583861e+001
5.062705e+002,4.638441e+001
5.072347e+002,4.464161e+001
5.081990e+002,4.246220e+001
5.091632e+002,4.256024e+001
5.101274e+002,4.247392e+001
5.110917e+002,4.037560e+001
5.120559e+002,3.612905e+001
5.130201e+002,3.088458e+001
5.139844e+002,2.675875e+001
5.149486e+002,2.362358e+001
5.159128e+002,2.014078e+001
5.168771e+002,1.607186e+001
5.178413e+002,1.179016e+001
5.188055e+002,8.070508e+000
5.197698e+002,4.701416e+000
5.207340e+002,2.424872e+000
5.216982e+002,1.655316e+000
5.226625e+002,1.660480e+000
5.236267e+002,1.708130e+000
5.245909e+002,1.623468e+000
5.255552e+002,1.437720e+000
5.265194e+002,1.045099e+000
5.274836e+002,6.777344e-001
5.284479e+002,5.074402e-001
5.294121e+002,6.507568e-001
5.303763e+002,1.160156e+000
5.313406e+002,2.467096e+000
5.323048e+002,4.110956e+000
5.332690e+002,5.193420e+000
5.342333e+002,5.267596e+000
5.351975e+002,4.481177e+000
5.361617e+002,3.947296e+000
5.371260e+002,3.920093e+000
5.380902e+002,3.831885e+000
5.390544e+002,3.654926e+000
5.400187e+002,3.285815e+000
5.409829e+002,2.412940e+000
5.419471e+002,-5.708008e-002
5.429114e+002,-1.500238e+000
5.438756e+002,-3.223816e-001
5.448398e+002,2.057294e+000
5.458041e+002,3.336585e+000
5.467683e+002,1.503302e+000
5.477325e+002,-1.068707e+000
5.486968e+002,-4.942200e-001
5.496610e+002,1.994135e+000
5.506252e+002,4.013709e+000
5.515895e+002,3.596936e+000
5.525537e+002,7.871399e-001
5.535179e+002,-6.110718e-001
5.544822e+002,-5.311035e-001
5.554464e+002,6.890869e-002
5.564106e+002,1.035590e+000
5.573749e+002,2.345166e+000
5.583391e+002,2.738239e+000
5.593033e+002,1.236835e+000
5.602676e+002,-2.490173e-001
5.612318e+002,-1.468207e+000
5.621960e+002,-2.273261e+000
5.631603e+002,-2.429706e+000
5.641245e+002,-1.221350e+000
5.650887e+002,9.771729e-002
5.660530e+002,3.076843e-001
5.670172e+002,-2.658874e-001
5.679814e+002,-7.548767e-001
5.689457e+002,-2.021118e-001
5.699099e+002,1.248962e+000
5.708741e+002,1.754608e+000
5.718384e+002,1.364294e+000
5.728026e+002,4.536560e-001
5.737668e+002,-9.980774e-001
5.747311e+002,-3.358252e+000
5.756953e+002,-4.410132e+000
5.766595e+002,-3.111212e+000
5.776238e+002,-1.800970e+000
5.785880e+002,-1.553229e+000
5.795522e+002,-2.300629e+000
5.805165e+002,-2.778790e+000
5.814807e+002,-1.581494e+000
5.824449e+002,-3.185852e-001
5.834092e+002,1.351318e-002
5.843734e+002,-4.521301e-001
5.853376e+002,-1.073010e+000
5.863019e+002,-1.092389e+000
5.872661e+002,-5.825318e-001
5.882303e+002,-2.495300e-001
5.891946e+002,-9.202881e-002
5.901588e+002,1.123108e-001
5.911230e+002,6.237732e-001
5.920873e+002,1.583618e+000
5.930515e+002,2.201373e+000
5.940157e+002,2.893323e+000
5.949800e+002,3.027136e+000
5.959442e+002,1.850378e+000
5.969084e+002,-5.869629e-001
5.978727e+002,-2.460687e+000
5.988369e+002,-1.955426e+000
5.998011e+002,-1.262683e+000
6.007654e+002,-1.308624e+000
6.017296e+002,-2.026794e+000
6.026938e+002,-2.815906e+000
6.036581e+002,-3.032758e+000
6.046223e+002,-2.780225e+000
6.055865e+002,-2.436774e+000
6.065508e+002,-1.996503e+000
6.075150e+002,-1.593341e+000
6.084792e+002,-1.410761e+000
6.094435e+002,-1.575281e+000
6.104077e+002,-1.148926e+000
6.113719e+002,3.024719e-001
6.123362e+002,1.629932e+000
6.133004e+002,2.169928e+000
6.142646e+002,1.907593e+000
6.152289e+002,1.660956e+000
6.161931e+002,1.698462e+000
6.171573e+002,1.844360e+000
6.181216e+002,1.893658e+000
6.190858e+002,2.055524e+000
6.200500e+002,2.808032e+000
6.210143e+002,4.728333e+000
6.219785e+002,7.303467e+000
6.229427e+002,9.540314e+000
6.239070e+002,1.140196e+001
6.248712e+002,1.284692e+001
6.258354e+002,1.383256e+001
6.267997e+002,1.434163e+001
6.277639e+002,1.540552e+001
6.287281e+002,1.761645e+001
6.296924e+002,1.933157e+001
6.306566e+002,1.960773e+001
6.316208e+002,1.857447e+001
6.325851e+002,1.771716e+001
6.335493e+002,1.775190e+001
6.345135e+002,1.789178e+001
6.354778e+002,1.797745e+001
6.364420e+002,1.793910e+001
6.374063e+002,1.773728e+001
6.383705e+002,1.731924e+001
6.393347e+002,1.675565e+001
6.402990e+002,1.616127e+001
6.412632e+002,1.560402e+001
6.422274e+002,1.528290e+001
6.431917e+002,1.535234e+001
6.441559e+002,1.573444e+001
6.451201e+002,1.488774e+001
6.460844e+002,1.202772e+001
6.470486e+002,9.656299e+000
6.480128e+002,8.940948e+000
6.489771e+002,9.438379e+000
6.499413e+002,9.184027e+000
6.509055e+002,6.911304e+000
6.518698e+002,5.008484e+000
6.528340e+002,4.105969e+000
6.537982e+002,3.943750e+000
6.547625e+002,4.296899e+000
6.557267e+002,5.132715e+000
6.566909e+002,5.769458e+000
6.576552e+002,4.661072e+000
6.586194e+002,2.837561e+000
6.595836e+002,1.873334e+000
6.605479e+002,2.567999e+000
6.615121e+002,4.676538e+000
6.624763e+002,7.147235e+000
6.634406e+002,1.064733e+001
6.644048e+002,1.269392e+001
6.653690e+002,1.217411e+001
6.663333e+002,1.009434e+001
6.672975e+002,8.331854e+000
6.682617e+002,7.008044e+000
6.692260e+002,6.411420e+000
6.701902e+002,6.752179e+000
6.711544e+002,7.542609e+000
6.721187e+002,8.612335e+000
6.730829e+002,9.812494e+000
6.740471e+002,1.060054e+001
6.750114e+002,9.722333e+000
6.759756e+002,8.295062e+000
6.769398e+002,7.373633e+000
6.779041e+002,7.189752e+000
6.788683e+002,7.449206e+000
6.798325e+002,7.623981e+000
6.807968e+002,7.656067e+000
6.817610e+002,7.920959e+000
6.827252e+002,8.590045e+000
6.836895e+002,9.342779e+000
6.846537e+002,9.815442e+000
6.856179e+002,9.887897e+000
6.865822e+002,1.023819e+001
6.875464e+002,1.175727e+001
6.885106e+002,1.289453e+001
6.894749e+002,1.273202e+001
6.904391e+002,1.146902e+001
6.914034e+002,1.001620e+001
6.923676e+002,8.849444e+000
6.933318e+002,8.524829e+000
6.942961e+002,1.006469e+001
6.952603e+002,1.297005e+001
6.962245e+002,1.565026e+001
6.971888e+002,1.662731e+001
6.981530e+002,1.583174e+001
6.991172e+002,1.557879e+001
7.000815e+002,1.557764e+001
7.010457e+002,1.628934e+001
7.020099e+002,1.831097e+001
7.029742e+002,2.137906e+001
7.039384e+002,2.415204e+001
7.049026e+002,2.686402e+001
7.058669e+002,2.831232e+001
7.068311e+002,2.729606e+001
7.077953e+002,2.525459e+001
7.087596e+002,2.409752e+001
7.097238e+002,2.491309e+001
7.106880e+002,2.618046e+001
7.116523e+002,2.470619e+001
7.126165e+002,2.207851e+001
7.135807e+002,2.083825e+001
7.145450e+002,2.195334e+001
7.155092e+002,2.452375e+001
7.164734e+002,2.605396e+001
7.174377e+002,2.620032e+001
7.184019e+002,2.564263e+001
7.193661e+002,2.384498e+001
7.203304e+002,2.160978e+001
7.212946e+002,1.966319e+001
7.222589e+002,1.801686e+001
7.232231e+002,1.715651e+001
7.241873e+002,1.798105e+001
7.251516e+002,1.886852e+001
7.261158e+002,1.872173e+001
7.270800e+002,1.761105e+001
7.280443e+002,1.662574e+001
7.290085e+002,1.720778e+001
7.299727e+002,1.837097e+001
7.309370e+002,1.793657e+001
7.319012e+002,1.607676e+001
7.328654e+002,1.388062e+001
7.338297e+002,1.226675e+001
7.347939e+002,1.121556e+001
7.357581e+002,1.103533e+001
7.367224e+002,1.211379e+001
7.376866e+002,1.338511e+001
7.386508e+002,1.481979e+001
7.396151e+002,1.625106e+001
7.405793e+002,1.723398e+001
7.415435e+002,1.759452e+001
7.425078e+002,1.760391e+001
7.434720e+002,1.713216e+001
7.444362e+002,1.648997e+001
7.454005e+002,1.591156e+001
7.463647e+002,1.553851e+001
7.473289e+002,1.549279e+001
7.482932e+002,1.637896e+001
7.492574e+002,1.782379e+001
7.502216e+002,1.872272e+001
7.511859e+002,1.875274e+001
7.521501e+002,1.832359e+001
7.531143e+002,1.822503e+001
7.540786e+002,1.867048e+001
7.550428e+002,1.912057e+001
7.560070e+002,1.945974e+001
7.569713e+002,1.988614e+001
7.579355e+002,2.078768e+001
7.588997e+002,2.206281e+001
7.598640e+002,2.261912e+001
7.608282e+002,2.111483e+001
7.617924e+002,1.949638e+001
7.627567e+002,1.847776e+001
7.637209e+002,1.816545e+001
7.646851e+002,1.861196e+001
7.656494e+002,1.987410e+001
7.666136e+002,2.173829e+001
7.675778e+002,2.372800e+001
7.685421e+002,2.583400e+001
7.695063e+002,2.688927e+001
7.704705e+002,2.601176e+001
7.714348e+002,2.378888e+001
7.723990e+002,2.261395e+001
7.733632e+002,2.344464e+001
7.743275e+002,2.384778e+001
7.752917e+002,2.296137e+001
7.762559e+002,2.212292e+001
7.772202e+002,2.278718e+001
7.781844e+002,2.531482e+001
7.791486e+002,2.782955e+001
7.801129e+002,2.850062e+001
7.810771e+002,2.855391e+001
7.820413e+002,2.838247e+001
7.830056e+002,2.833627e+001
7.839698e+002,2.907479e+001
7.849340e+002,3.144061e+001
7.858983e+002,3.526935e+001
7.868625e+002,3.693224e+001
7.878267e+002,3.599868e+001
7.887910e+002,3.488988e+001
7.897552e+002,3.489599e+001
7.907194e+002,3.592202e+001
7.916837e+002,3.704824e+001
7.926479e+002,3.860325e+001
7.936121e+002,3.960989e+001
7.945764e+002,3.924871e+001
7.955406e+002,3.854813e+001
7.965048e+002,3.872631e+001
7.974691e+002,4.030866e+001
7.984333e+002,4.254063e+001
7.993975e+002,4.451396e+001
8.003618e+002,4.636052e+001
8.013260e+002,4.832720e+001
8.022902e+002,5.041987e+001
8.032545e+002,5.229530e+001
8.042187e+002,5.342348e+001
8.051829e+002,5.355498e+001
8.061472e+002,5.473986e+001
8.071114e+002,5.713536e+001
8.080756e+002,6.003213e+001
8.090399e+002,6.318035e+001
8.100041e+002,6.661206e+001
8.109683e+002,7.034524e+001
8.119326e+002,7.400743e+001
8.128968e+002,7.852438e+001
8.138610e+002,8.437095e+001
8.148253e+002,9.110812e+001
8.157895e+002,9.834544e+001
8.167537e+002,1.058940e+002
8.177180e+002,1.133241e+002
8.186822e+002,1.200129e+002
8.196464e+002,1.260138e+002
8.206107e+002,1.313126e+002
8.215749e+002,1.358372e+002
8.225391e+002,1.394358e+002
8.235034e+002,1.419346e+002
8.244676e+002,1.433972e+002
8.254318e+002,1.431091e+002
8.263961e+002,1.416881e+002
8.273603e+002,1.388450e+002
8.283245e+002,1.336677e+002
8.292888e+002,1.266713e+002
8.302530e+002,1.197858e+002
8.312172e+002,1.135553e+002
8.321815e+002,1.083761e+002
8.331457e+002,1.050693e+002
8.341099e+002,1.026838e+002
8.350742e+002,9.989583e+001
8.360384e+002,9.605498e+001
8.370026e+002,9.160995e+001
8.379669e+002,8.739835e+001
8.389311e+002,8.342127e+001
8.398953e+002,8.064169e+001
8.408596e+002,7.989886e+001
8.418238e+002,7.941319e+001
8.427880e+002,7.679386e+001
8.437523e+002,7.140531e+001
8.447165e+002,6.729662e+001
8.456807e+002,6.636405e+001
8.466450e+002,6.524126e+001
8.476092e+002,6.238707e+001
8.485734e+002,5.837922e+001
8.495377e+002,5.459877e+001
8.505019e+002,5.174182e+001
8.514661e+002,5.001896e+001
8.524304e+002,5.024208e+001
8.533946e+002,5.142489e+001
8.543588e+002,5.207777e+001
8.553231e+002,5.162342e+001
8.562873e+002,5.044490e+001
8.572515e+002,4.937136e+001
8.582158e+002,4.835119e+001
8.591800e+002,4.766949e+001
8.601442e+002,4.735900e+001
8.611085e+002,4.720486e+001
8.620727e+002,4.718224e+001
8.630369e+002,4.731794e+001
8.640012e+002,4.744615e+001
8.649654e+002,4.746138e+001
8.659296e+002,4.742757e+001
8.668939e+002,4.713548e+001
8.678581e+002,4.690588e+001
8.688223e+002,4.745982e+001
8.697866e+002,4.905915e+001
8.707508e+002,5.065520e+001
8.717150e+002,4.956820e+001
8.726793e+002,4.644864e+001
8.736435e+002,4.454338e+001
8.746077e+002,4.459207e+001
8.755720e+002,4.530130e+001
8.765362e+002,4.494491e+001
8.775004e+002,4.319406e+001
8.784647e+002,4.184037e+001
8.794289e+002,4.101536e+001
8.803931e+002,4.037785e+001
8.813574e+002,4.016614e+001
8.823216e+002,3.998762e+001
8.832858e+002,3.907593e+001
8.842501e+002,3.699759e+001
8.852143e+002,3.468762e+001
8.861785e+002,3.260966e+001
8.871428e+002,3.096343e+001
8.881070e+002,3.042686e+001
8.890712e+002,3.099934e+001
8.900355e+002,3.165552e+001
8.909997e+002,3.071474e+001
8.919639e+002,2.785297e+001
8.929282e+002,2.604482e+001
8.938924e+002,2.555528e+001
8.948566e+002,2.553106e+001
8.958209e+002,2.564967e+001
8.967851e+002,2.591485e+001
8.977493e+002,2.641512e+001
8.987136e+002,2.772094e+001
8.996778e+002,2.813431e+001
9.006420e+002,2.642289e+001
9.016063e+002,2.412001e+001
9.025705e+002,2.288042e+001
9.035347e+002,2.303139e+001
9.044990e+002,2.320693e+001
9.054632e+002,2.137335e+001
9.064274e+002,1.812635e+001
9.073917e+002,1.633800e+001
9.083559e+002,1.612863e+001
9.093201e+002,1.657324e+001
9.102844e+002,1.723090e+001
9.112486e+002,1.802987e+001
9.122128e+002,1.778320e+001
9.131771e+002,1.512177e+001
9.141413e+002,1.316932e+001
9.151055e+002,1.249006e+001
9.160698e+002,1.247358e+001
9.170340e+002,1.264995e+001
9.179982e+002,1.285135e+001
9.189625e+002,1.280002e+001
9.199267e+002,1.203563e+001
9.208909e+002,1.113198e+001
9.218552e+002,1.075313e+001
9.228194e+002,1.077991e+001
9.237836e+002,1.065122e+001
9.247479e+002,9.916779e+000
9.257121e+002,8.766726e+000
9.266763e+002,8.354059e+000
9.276406e+002,9.186136e+000
9.286048e+002,9.590375e+000
9.295690e+002,8.774106e+000
9.305333e+002,7.875257e+000
9.314975e+002,8.687368e+000
9.324617e+002,1.163007e+001
9.334260e+002,1.313392e+001
9.343902e+002,9.435266e+000
9.353545e+002,5.912097e+000
9.363187e+002,5.100589e+000
9.372830e+002,6.190573e+000
9.382472e+002,7.369629e+000
9.392114e+002,7.521530e+000
9.401757e+002,7.191260e+000
9.411399e+002,7.692694e+000
9.421041e+002,8.826413e+000
9.430684e+002,9.353500e+000
9.440326e+002,8.782697e+000
9.449968e+002,7.998300e+000
9.459611e+002,8.355548e+000
9.469253e+002,1.021678e+001
9.478895e+002,1.128136e+001
9.488538e+002,1.051349e+001
9.498180e+002,9.861929e+000
9.507822e+002,1.018528e+001
9.517465e+002,1.078809e+001
9.527107e+002,1.031111e+001
9.536749e+002,8.184387e+000
9.546392e+002,6.282074e+000
9.556034e+002,7.249124e+000
9.565676e+002,9.703985e+000
9.575319e+002,1.245881e+001
9.584961e+002,1.521980e+001
9.594603e+002,1.735509e+001
9.604246e+002,1.807139e+001
9.613888e+002,1.733297e+001
9.623530e+002,1.744929e+001
9.633173e+002,1.838637e+001
9.642815e+002,2.017802e+001
9.652457e+002,2.288537e+001
9.662100e+002,2.654521e+001
9.671742e+002,3.076838e+001
9.681384e+002,3.536535e+001
9.691027e+002,4.209689e+001
9.700669e+002,5.267905e+001
9.710311e+002,6.560738e+001
9.719954e+002,8.400702e+001
9.729596e+002,1.038981e+002
9.739238e+002,1.170731e+002
9.748881e+002,1.179814e+002
9.758523e+002,1.090574e+002
9.768165e+002,9.756248e+001
9.777808e+002,8.272801e+001
9.787450e+002,6.968671e+001
9.797092e+002,5.884295e+001
9.806735e+002,5.006739e+001
9.816377e+002,4.334510e+001
9.826019e+002,3.870806e+001
9.835662e+002,3.585018e+001
9.845304e+002,3.635358e+001
9.854946e+002,3.687620e+001
9.864589e+002,3.633995e+001
9.874231e+002,3.515924e+001
9.883873e+002,3.356451e+001
9.893516e+002,3.178234e+001
9.903158e+002,3.059440e+001
9.912800e+002,3.135472e+001
9.922443e+002,3.384796e+001
9.932085e+002,3.584798e+001
9.941727e+002,3.715707e+001
9.951370e+002,3.981837e+001
9.961012e+002,4.546246e+001
9.970654e+002,5.364795e+001
9.980297e+002,6.157603e+001
9.989939e+002,6.361459e+001
9.999581e+002,7.596879e+001
1.000922e+003,9.683385e+001
1.001887e+003,1.304086e+002
1.002851e+003,1.854475e+002
1.003815e+003,2.581239e+002
1.004779e+003,3.349034e+002
1.005744e+003,4.170316e+002
1.006708e+003,4.771190e+002
1.007672e+003,4.721487e+002
1.008636e+003,4.198957e+002
1.009600e+003,3.538640e+002
1.010565e+003,2.879243e+002
1.011529e+003,2.257090e+002
1.012493e+003,1.754913e+002
1.013457e+003,1.392491e+002
1.014422e+003,1.114540e+002
1.015386e+003,9.348153e+001
1.016350e+003,7.983047e+001
1.017314e+003,6.952831e+001
1.018279e+003,6.164662e+001
1.019243e+003,5.499251e+001
1.020207e+003,4.932169e+001
1.021171e+003,4.441951e+001
1.022135e+003,4.025557e+001
1.023100e+003,3.668984e+001
1.024064e+003,3.375714e+001
1.025028e+003,3.131479e+001
1.025992e+003,2.900785e+001
1.026957e+003,2.650232e+001
1.027921e+003,2.405805e+001
1.028885e+003,2.319571e+001
1.029849e+003,2.516442e+001
1.030814e+003,2.583556e+001
1.031778e+003,2.368279e+001
1.032742e+003,2.077652e+001
1.033706e+003,1.897836e+001
1.034671e+003,1.846361e+001
1.035635e+003,1.883171e+001
1.036599e+003,2.084136e+001
1.037563e+003,2.254944e+001
1.038527e+003,2.277584e+001
1.039492e+003,2.213148e+001
1.040456e+003,2.136388e+001
1.041420e+003,2.081270e+001
1.042384e+003,2.032065e+001
1.043349e+003,1.957073e+001
1.044313e+003,1.862726e+001
1.045277e+003,1.914482e+001
1.046241e+003,2.188064e+001
1.047206e+003,2.373354e+001
1.048170e+003,2.242211e+001
1.049134e+003,1.934481e+001
1.050098e+003,1.810404e+001
1.051063e+003,1.969186e+001
1.052027e+003,2.097564e+001
1.052991e+003,2.037040e+001
1.053955e+003,1.959392e+001
1.054919e+003,1.993805e+001
1.055884e+003,2.087152e+001
1.056848e+003,2.087902e+001
1.057812e+003,1.908114e+001
1.058776e+003,1.667768e+001
1.059741e+003,1.616047e+001
1.060705e+003,1.726032e+001
1.061669e+003,1.831306e+001
1.062633e+003,1.927388e+001
1.063598e+003,1.968894e+001
1.064562e+003,1.886929e+001
1.065526e+003,1.698114e+001
1.066490e+003,1.583066e+001
1.067454e+003,1.581037e+001
1.068419e+003,1.613589e+001
1.069383e+003,1.668741e+001
1.070347e+003,1.731671e+001
1.071311e+003,1.801381e+001
1.072276e+003,1.874349e+001
1.073240e+003,1.937609e+001
1.074204e+003,1.978354e+001
1.075168e+003,2.010749e+001
1.076133e+003,2.094902e+001
1.077097e+003,2.205439e+001
1.078061e+003,2.223058e+001
1.079025e+003,2.092917e+001
1.079990e+003,1.910969e+001
1.080954e+003,1.802894e+001
1.081918e+003,1.770988e+001
1.082882e+003,1.804212e+001
1.083846e+003,2.042272e+001
1.084811e+003,2.173407e+001
1.085775e+003,2.032773e+001
1.086739e+003,1.816733e+001
1.087703e+003,1.754596e+001
1.088668e+003,1.886833e+001
1.089632e+003,2.039553e+001
1.090596e+003,2.059649e+001
1.091560e+003,2.001239e+001
1.092525e+003,1.960386e+001
1.093489e+003,1.941595e+001
1.094453e+003,1.991995e+001
1.095417e+003,2.149754e+001
1.096381e+003,2.337429e+001
1.097346e+003,2.377649e+001
1.098310e+003,2.197989e+001
1.099274e+003,2.128682e+001
1.100238e+003,2.330941e+001
1.101203e+003,2.447616e+001
1.102167e+003,2.282783e+001
1.103131e+003,2.008854e+001
1.104095e+003,1.877054e+001
1.105060e+003,1.949072e+001
1.106024e+003,2.032076e+001
1.106988e+003,1.904888e+001
1.107952e+003,1.756354e+001
1.108917e+003,1.951101e+001
1.109881e+003,2.393129e+001
1.110845e+003,2.664913e+001
1.111809e+003,2.525721e+001
1.112773e+003,2.160902e+001
1.113738e+003,2.017108e+001
1.114702e+003,2.197151e+001
1.115666e+003,2.324974e+001
1.116630e+003,2.368168e+001
1.117595e+003,2.399653e+001
1.118559e+003,2.447940e+001
1.119523e+003,2.499252e+001
1.120487e+003,2.527412e+001
1.121452e+003,2.527158e+001
1.122416e+003,2.527761e+001
1.123380e+003,2.554795e+001
1.124344e+003,2.587261e+001
1.125308e+003,2.600202e+001
1.126273e+003,2.601038e+001
1.127237e+003,2.612451e+001
1.128201e+003,2.647660e+001
1.129165e+003,2.687793e+001
1.130130e+003,2.678636e+001
1.131094e+003,2.568979e+001
1.132058e+003,2.556462e+001
1.133022e+003,2.744755e+001
1.133987e+003,2.888803e+001
1.134951e+003,2.891953e+001
1.135915e+003,2.818499e+001
1.136879e+003,2.760319e+001
1.137844e+003,2.740801e+001
1.138808e+003,2.720862e+001
1.139772e+003,2.637464e+001
1.140736e+003,2.557559e+001
1.141700e+003,2.597256e+001
1.142665e+003,2.728271e+001
1.143629e+003,2.852252e+001
1.144593e+003,2.923355e+001
1.145557e+003,2.960605e+001
1.146522e+003,2.998603e+001
1.147486e+003,3.040476e+001
1.148450e+003,3.023438e+001
1.149414e+003,2.855077e+001
1.150379e+003,2.768792e+001
1.151343e+003,2.871166e+001
1.152307e+003,3.062154e+001
1.153271e+003,3.232212e+001
1.154235e+003,3.349042e+001
1.155200e+003,3.416965e+001
1.156164e+003,3.431960e+001
1.157128e+003,3.424934e+001
1.158092e+003,3.421387e+001
1.159057e+003,3.428087e+001
1.160021e+003,3.462527e+001
1.160985e+003,3.529357e+001
1.161949e+003,3.631810e+001
1.162914e+003,3.797321e+001
1.163878e+003,4.050017e+001
1.164842e+003,4.171972e+001
1.165806e+003,3.932587e+001
1.166771e+003,3.849538e+001
1.167735e+003,4.157322e+001
1.168699e+003,4.519670e+001
1.169663e+003,4.577171e+001
1.170627e+003,4.357529e+001
1.171592e+003,4.227271e+001
1.172556e+003,4.430981e+001
1.173520e+003,4.765960e+001
1.174484e+003,4.951203e+001
1.175449e+003,5.030898e+001
1.176413e+003,5.069747e+001
1.177377e+003,5.080163e+001
1.178341e+003,5.077378e+001
1.179306e+003,5.071365e+001
1.180270e+003,5.069265e+001
1.181234e+003,5.118084e+001
1.182198e+003,5.253033e+001
1.183162e+003,5.367899e+001
1.184127e+003,5.451483e+001
1.185091e+003,5.513084e+001
1.186055e+003,5.583299e+001
1.187019e+003,5.642866e+001
1.187984e+003,5.627604e+001
1.188948e+003,5.502969e+001
1.189912e+003,5.339198e+001
1.190876e+003,5.216475e+001
1.191841e+003,5.133207e+001
1.192805e+003,5.092493e+001
1.193769e+003,5.094718e+001
1.194733e+003,5.068658e+001
1.195698e+003,4.953668e+001
1.196662e+003,4.789402e+001
1.197626e+003,4.685558e+001
1.198590e+003,4.655640e+001
1.199554e+003,4.628343e+001
1.200519e+003,4.574816e+001
1.201483e+003,4.560472e+001
1.202447e+003,4.667843e+001
1.203411e+003,4.793530e+001
1.204376e+003,4.788345e+001
1.205340e+003,4.626216e+001
1.206304e+003,4.430085e+001
1.207268e+003,4.320230e+001
1.208233e+003,4.277730e+001
1.209197e+003,4.204164e+001
1.210161e+003,4.099434e+001
1.211125e+003,4.041210e+001
1.212089e+003,4.066374e+001
1.213054e+003,4.101053e+001
1.214018e+003,4.034945e+001
1.214982e+003,3.892857e+001
1.215946e+003,3.923291e+001
1.216911e+003,4.280308e+001
1.217875e+003,4.551817e+001
1.218839e+003,4.556519e+001
1.219803e+003,4.490495e+001
1.220768e+003,4.474001e+001
1.221732e+003,4.531356e+001
1.222696e+003,4.679852e+001
1.223660e+003,4.917336e+001
1.224625e+003,5.129991e+001
1.225589e+003,5.096366e+001
1.226553e+003,4.802336e+001
1.227517e+003,4.604055e+001
1.228481e+003,4.525745e+001
1.229446e+003,4.489259e+001
1.230410e+003,4.475286e+001
1.231374e+003,4.473191e+001
1.232338e+003,4.470918e+001
1.233303e+003,4.471595e+001
1.234267e+003,4.469602e+001
1.235231e+003,4.434272e+001
1.236195e+003,4.427483e+001
1.237160e+003,4.511709e+001
1.238124e+003,4.619436e+001
1.239088e+003,4.663186e+001
1.240052e+003,4.635876e+001
1.241016e+003,4.599537e+001
1.241981e+003,4.611374e+001
1.242945e+003,4.667994e+001
1.243909e+003,4.759588e+001
1.244873e+003,4.929279e+001
1.245838e+003,5.032224e+001
1.246802e+003,5.027944e+001
1.247766e+003,4.996280e+001
1.248730e+003,4.964360e+001
1.249695e+003,4.941302e+001
1.250659e+003,4.955202e+001
1.251623e+003,5.018034e+001
1.252587e+003,5.056201e+001
1.253552e+003,5.007867e+001
1.254516e+003,4.917979e+001
1.255480e+003,4.795583e+001
1.256444e+003,4.675948e+001
1.257408e+003,4.644169e+001
1.258373e+003,4.732299e+001
1.259337e+003,4.887572e+001
1.260301e+003,5.052547e+001
1.261265e+003,5.232473e+001
1.262230e+003,5.276740e+001
1.263194e+003,4.979610e+001
1.264158e+003,4.813287e+001
1.265122e+003,4.915759e+001
1.266087e+003,5.053249e+001
1.267051e+003,5.045661e+001
1.268015e+003,4.949876e+001
1.268979e+003,4.948718e+001
1.269943e+003,5.115986e+001
1.270908e+003,5.314759e+001
1.271872e+003,5.410723e+001
1.272836e+003,5.423997e+001
1.273800e+003,5.394529e+001
1.274765e+003,5.330074e+001
1.275729e+003,5.309999e+001
1.276693e+003,5.389787e+001
1.277657e+003,5.495589e+001
1.278622e+003,5.485597e+001
1.279586e+003,5.344629e+001
1.280550e+003,5.320186e+001
1.281514e+003,5.568305e+001
1.282479e+003,5.744551e+001
1.283443e+003,5.701509e+001
1.284407e+003,5.606056e+001
1.285371e+003,5.558650e+001
1.286335e+003,5.572041e+001
1.287300e+003,5.652894e+001
1.288264e+003,5.802371e+001
1.289228e+003,5.938800e+001
1.290192e+003,5.920162e+001
1.291157e+003,5.750700e+001
1.292121e+003,5.601556e+001
1.293085e+003,5.426805e+001
1.294049e+003,5.364177e+001
1.295014e+003,5.561105e+001
1.295978e+003,5.834407e+001
1.296942e+003,5.948149e+001
1.297906e+003,5.916030e+001
1.298870e+003,5.942922e+001
1.299835e+003,6.114780e+001
1.300799e+003,6.262539e+001
1.301763e+003,6.288954e+001
1.302727e+003,6.233314e+001
1.303692e+003,6.056752e+001
1.304656e+003,5.839202e+001
1.305620e+003,5.798840e+001
1.306584e+003,6.053674e+001
1.307549e+003,6.434129e+001
1.308513e+003,6.617689e+001
1.309477e+003,6.575811e+001
1.310441e+003,6.516196e+001
1.311406e+003,6.376332e+001
1.312370e+003,6.321492e+001
1.313334e+003,6.455927e+001
1.314298e+003,6.617432e+001
1.315263e+003,6.647029e+001
1.316227e+003,6.578825e+001
1.317191e+003,6.578251e+001
1.318155e+003,6.721163e+001
1.319120e+003,6.862511e+001
1.320084e+003,6.816478e+001
1.321048e+003,6.669793e+001
1.322012e+003,6.622033e+001
1.322976e+003,6.671388e+001
1.323941e+003,6.744602e+001
1.324905e+003,6.830103e+001
1.325869e+003,6.899884e+001
1.326833e+003,6.885838e+001
1.327798e+003,6.786541e+001
1.328762e+003,6.750054e+001
1.329726e+003,6.802229e+001
1.330690e+003,6.887060e+001
1.331655e+003,7.054626e+001
1.332619e+003,7.185386e+001
1.333583e+003,7.179762e+001
1.334547e+003,7.076717e+001
1.335511e+003,6.935210e+001
1.336476e+003,6.797350e+001
1.337440e+003,6.735599e+001
1.338404e+003,6.854333e+001
1.339368e+003,7.121800e+001
1.340333e+003,7.226717e+001
1.341297e+003,7.091780e+001
1.342261e+003,7.024690e+001
1.343225e+003,7.133409e+001
1.344190e+003,7.246765e+001
1.345154e+003,7.232233e+001
1.346118e+003,7.136436e+001
1.347082e+003,7.084357e+001
1.348047e+003,7.104290e+001
1.349011e+003,7.093891e+001
1.349975e+003,6.949121e+001
1.350939e+003,6.804946e+001
1.351903e+003,6.816943e+001
1.352868e+003,6.927123e+001
1.353832e+003,7.012473e+001
1.354796e+003,7.042067e+001
1.355760e+003,7.082285e+001
1.356725e+003,7.201947e+001
1.357689e+003,7.381136e+001
1.358653e+003,7.533154e+001
1.359617e+003,7.675303e+001
1.360582e+003,7.737180e+001
1.361546e+003,7.676222e+001
1.362510e+003,7.575790e+001
1.363474e+003,7.431179e+001
1.364438e+003,7.296220e+001
1.365403e+003,7.222403e+001
1.366367e+003,7.200203e+001
1.367331e+003,7.168453e+001
1.368295e+003,7.089260e+001
1.369260e+003,7.017588e+001
1.370224e+003,7.066747e+001
1.371188e+003,7.244984e+001
1.372152e+003,7.353046e+001
1.373117e+003,7.360936e+001
1.374081e+003,7.343819e+001
1.375045e+003,7.287566e+001
1.376009e+003,7.254146e+001
1.376974e+003,7.337047e+001
1.377938e+003,7.520409e+001
1.378902e+003,7.688656e+001
1.379866e+003,7.814621e+001
1.380830e+003,7.885663e+001
1.381795e+003,7.862275e+001
1.382759e+003,7.803096e+001
1.383723e+003,7.715174e+001
1.384687e+003,7.646675e+001
1.385652e+003,7.734795e+001
1.386616e+003,8.025220e+001
1.387580e+003,8.332391e+001
1.388544e+003,8.424429e+001
1.389509e+003,8.318401e+001
1.390473e+003,8.223015e+001
1.391437e+003,8.136056e+001
1.392401e+003,8.094544e+001
1.393365e+003,8.102538e+001
1.394330e+003,8.134015e+001
1.395294e+003,8.206746e+001
1.396258e+003,8.270634e+001
1.397222e+003,8.247450e+001
1.398187e+003,8.164870e+001
1.399151e+003,8.164889e+001
1.400115e+003,8.340633e+001
1.401079e+003,8.567785e+001
1.402044e+003,8.615593e+001
1.403008e+003,8.480663e+001
1.403972e+003,8.409859e+001
1.404936e+003,8.435622e+001
1.405901e+003,8.460915e+001
1.406865e+003,8.413286e+001
1.407829e+003,8.377434e+001
1.408793e+003,8.487924e+001
1.409757e+003,8.703799e+001
1.410722e+003,8.805630e+001
1.411686e+003,8.709465e+001
1.412650e+003,8.586201e+001
1.413614e+003,8.546234e+001
1.414579e+003,8.566559e+001
1.415543e+003,8.622316e+001
1.416507e+003,8.715064e+001
1.417471e+003,8.870917e+001
1.418436e+003,9.090974e+001
1.419400e+003,9.238464e+001
1.420364e+003,9.158859e+001
1.421328e+003,8.920325e+001
1.422292e+003,8.778507e+001
1.423257e+003,8.736760e+001
1.424221e+003,8.745607e+001
1.425185e+003,8.838858e+001
1.426149e+003,8.924834e+001
1.427114e+003,8.980830e+001
1.428078e+003,9.045872e+001
1.429042e+003,9.138879e+001
1.430006e+003,9.259563e+001
1.430971e+003,9.411912e+001
1.431935e+003,9.596721e+001
1.432899e+003,9.794418e+001
1.433863e+003,9.991731e+001
1.434828e+003,1.017983e+002
1.435792e+003,1.013507e+002
1.436756e+003,9.589008e+001
1.437720e+003,9.337035e+001
1.438684e+003,9.688546e+001
1.439649e+003,1.007524e+002
1.440613e+003,1.015111e+002
1.441577e+003,1.005945e+002
1.442541e+003,1.005853e+002
1.443506e+003,1.017772e+002
1.444470e+003,1.027782e+002
1.445434e+003,1.029022e+002
1.446398e+003,1.025439e+002
1.447363e+003,1.015854e+002
1.448327e+003,1.005725e+002
1.449291e+003,1.013517e+002
1.450255e+003,1.041345e+002
1.451219e+003,1.067964e+002
1.452184e+003,1.084324e+002
1.453148e+003,1.092281e+002
1.454112e+003,1.091705e+002
1.455076e+003,1.084002e+002
1.456041e+003,1.078789e+002
1.457005e+003,1.078009e+002
1.457969e+003,1.079976e+002
1.458933e+003,1.086338e+002
1.459898e+003,1.092329e+002
1.460862e+003,1.095099e+002
1.461826e+003,1.094624e+002
1.462790e+003,1.086780e+002
1.463755e+003,1.074575e+002
1.464719e+003,1.075926e+002
1.465683e+003,1.105303e+002
1.466647e+003,1.147198e+002
1.467611e+003,1.165885e+002
1.468576e+003,1.159066e+002
1.469540e+003,1.141736e+002
1.470504e+003,1.095496e+002
1.471468e+003,1.069360e+002
1.472433e+003,1.085243e+002
1.473397e+003,1.105831e+002
1.474361e+003,1.107719e+002
1.475325e+003,1.098897e+002
1.476290e+003,1.092268e+002
1.477254e+003,1.092827e+002
1.478218e+003,1.104777e+002
1.479182e+003,1.132557e+002
1.480146e+003,1.163207e+002
1.481111e+003,1.164002e+002
1.482075e+003,1.129786e+002
1.483039e+003,1.114873e+002
1.484003e+003,1.133447e+002
1.484968e+003,1.145229e+002
1.485932e+003,1.135634e+002
1.486896e+003,1.123905e+002
1.487860e+003,1.128675e+002
1.488825e+003,1.141876e+002
1.489789e+003,1.141962e+002
1.490753e+003,1.124581e+002
1.491717e+003,1.107041e+002
1.492682e+003,1.099924e+002
1.493646e+003,1.100038e+002
1.494610e+003,1.106611e+002
1.495574e+003,1.115943e+002
1.496538e+003,1.115699e+002
1.497503e+003,1.104162e+002
1.498467e+003,1.089431e+002
1.499431e+003,1.069393e+002
1.500395e+003,1.052164e+002
1.501360e+003,1.052369e+002
1.502324e+003,1.066675e+002
1.503288e+003,1.074762e+002
1.504252e+003,1.071427e+002
1.505217e+003,1.067580e+002
1.506181e+003,1.070092e+002
1.507145e+003,1.072512e+002
1.508109e+003,1.068359e+002
1.509073e+003,1.061558e+002
1.510038e+003,1.058163e+002
1.511002e+003,1.058929e+002
1.511966e+003,1.060698e+002
1.512930e+003,1.061407e+002
1.513895e+003,1.064205e+002
1.514859e+003,1.075783e+002
1.515823e+003,1.095042e+002
1.516787e+003,1.106270e+002
1.517752e+003,1.111564e+002
1.518716e+003,1.106433e+002
1.519680e+003,1.069336e+002
1.520644e+003,1.041936e+002
1.521609e+003,1.053265e+002
1.522573e+003,1.078296e+002
1.523537e+003,1.089766e+002
1.524501e+003,1.084573e+002
1.525465e+003,1.069781e+002
1.526430e+003,1.049748e+002
1.527394e+003,1.033613e+002
1.528358e+003,1.038205e+002
1.529322e+003,1.061818e+002
1.530287e+003,1.066443e+002
1.531251e+003,1.040035e+002
1.532215e+003,1.019304e+002
1.533179e+003,9.967874e+001
1.534144e+003,9.886668e+001
1.535108e+003,1.017045e+002
1.536072e+003,1.050892e+002
1.537036e+003,1.055851e+002
1.538000e+003,1.035651e+002
1.538965e+003,1.013519e+002
1.539929e+003,1.000210e+002
1.540893e+003,9.916691e+001
1.541857e+003,9.840466e+001
1.542822e+003,9.777875e+001
1.543786e+003,9.702272e+001
1.544750e+003,9.564989e+001
1.545714e+003,9.569221e+001
1.546679e+003,9.890150e+001
1.547643e+003,1.009976e+002
1.548607e+003,1.000199e+002
1.549571e+003,9.798639e+001
1.550536e+003,9.640291e+001
1.551500e+003,9.538028e+001
1.552464e+003,9.489384e+001
1.553428e+003,9.497781e+001
1.554392e+003,9.541936e+001
1.555357e+003,9.614204e+001
1.556321e+003,9.646268e+001
1.557285e+003,9.469891e+001
1.558249e+003,9.110693e+001
1.559214e+003,8.943376e+001
1.560178e+003,9.044975e+001
1.561142e+003,9.145426e+001
1.562106e+003,9.150636e+001
1.563071e+003,9.105032e+001
1.564035e+003,9.069693e+001
1.564999e+003,9.026091e+001
1.565963e+003,8.856697e+001
1.566927e+003,8.558281e+001
1.567892e+003,8.443340e+001
1.568856e+003,8.725132e+001
1.569820e+003,9.064299e+001
1.570784e+003,9.071342e+001
1.571749e+003,8.842352e+001
1.572713e+003,8.570502e+001
1.573677e+003,8.273076e+001
1.574641e+003,8.151801e+001
1.575606e+003,8.343407e+001
1.576570e+003,8.561113e+001
1.577534e+003,8.599218e+001
1.578498e+003,8.509843e+001
1.579463e+003,8.358217e+001
1.580427e+003,8.153609e+001
1.581391e+003,7.965363e+001
1.582355e+003,7.792532e+001
1.583319e+003,7.736810e+001
1.584284e+003,8.017787e+001
1.585248e+003,8.312538e+001
1.586212e+003,8.130428e+001
1.587176e+003,7.634074e+001
1.588141e+003,7.307506e+001
1.589105e+003,7.255705e+001
1.590069e+003,7.228639e+001
1.591033e+003,7.038899e+001
1.591998e+003,6.815820e+001
1.592962e+003,6.772340e+001
1.593926e+003,6.871085e+001
1.594890e+003,6.904070e+001
1.595854e+003,6.843506e+001
1.596819e+003,6.806697e+001
1.597783e+003,6.874255e+001
1.598747e+003,6.901512e+001
1.599711e+003,6.741512e+001
1.600676e+003,6.507648e+001
1.601640e+003,6.316778e+001
1.602604e+003,6.190838e+001
1.603568e+003,6.157999e+001
1.604533e+003,6.233359e+001
1.605497e+003,6.290188e+001
1.606461e+003,6.171093e+001
1.607425e+003,5.957459e+001
1.608390e+003,5.899308e+001
1.609354e+003,6.008252e+001
1.610318e+003,6.025513e+001
1.611282e+003,5.852525e+001
1.612246e+003,5.703049e+001
1.613211e+003,5.704034e+001
1.614175e+003,5.736143e+001
1.615139e+003,5.776611e+001
1.616103e+003,5.777591e+001
1.617068e+003,5.613935e+001
1.618032e+003,5.304580e+001
1.618996e+003,5.072495e+001
1.619960e+003,5.045255e+001
1.620925e+003,5.112772e+001
1.621889e+003,5.177818e+001
1.622853e+003,5.219624e+001
1.623817e+003,5.041363e+001
1.624781e+003,4.578646e+001
1.625746e+003,4.338204e+001
1.626710e+003,4.582166e+001
1.627674e+003,4.778443e+001
1.628638e+003,4.594355e+001
1.629603e+003,4.319492e+001
1.630567e+003,4.176907e+001
1.631531e+003,4.145273e+001
1.632495e+003,4.173312e+001
1.633460e+003,4.229087e+001
1.634424e+003,4.183058e+001
1.635388e+003,3.912266e+001
1.636352e+003,3.569987e+001
1.637317e+003,3.442068e+001
1.638281e+003,3.514987e+001
1.639245e+003,3.591933e+001
1.640209e+003,3.662862e+001
1.641173e+003,3.762034e+001
1.642138e+003,4.011552e+001
1.643102e+003,4.132621e+001
1.644066e+003,3.914134e+001
1.645030e+003,3.573537e+001
1.645995e+003,3.255248e+001
1.646959e+003,3.010077e+001
1.647923e+003,2.922523e+001
1.648887e+003,3.007579e+001
1.649852e+003,3.120895e+001
1.650816e+003,3.149212e+001
1.651780e+003,3.118244e+001
1.652744e+003,3.079667e+001
1.653708e+003,3.032363e+001
1.654673e+003,2.950264e+001
1.655637e+003,2.815413e+001
1.656601e+003,2.703678e+001
1.657565e+003,2.624282e+001
1.658530e+003,2.596839e+001
1.659494e+003,2.687405e+001
1.660458e+003,2.786510e+001
1.661422e+003,2.753134e+001
1.662387e+003,2.623705e+001
1.663351e+003,2.537249e+001
1.664315e+003,2.541094e+001
1.665279e+003,2.578411e+001
1.666244e+003,2.615743e+001
1.667208e+003,2.637241e+001
1.668172e+003,2.611196e+001
1.669136e+003,2.535016e+001
1.670100e+003,2.382487e+001
1.671065e+003,2.117499e+001
1.672029e+003,1.923249e+001
1.672993e+003,1.892927e+001
1.673957e+003,1.910005e+001
1.674922e+003,1.921665e+001
1.675886e+003,1.915121e+001
1.676850e+003,1.870299e+001
1.677814e+003,1.794809e+001
1.678779e+003,1.709734e+001
1.679743e+003,1.621542e+001
1.680707e+003,1.557145e+001
1.681671e+003,1.539120e+001
1.682635e+003,1.553313e+001
1.683600e+003,1.586209e+001
1.684564e+003,1.634849e+001
1.685528e+003,1.679787e+001
1.686492e+003,1.723379e+001
1.687457e+003,1.678429e+001
1.688421e+003,1.466370e+001
1.689385e+003,1.260702e+001
1.690349e+003,1.219233e+001
1.691314e+003,1.247035e+001
1.692278e+003,1.253362e+001
1.693242e+003,1.227278e+001
1.694206e+003,1.138433e+001
1.695171e+003,9.700766e+000
1.696135e+003,8.546387e+000
1.697099e+003,9.050406e+000
1.698063e+003,1.021460e+001
1.699027e+003,1.100872e+001
1.699992e+003,1.140329e+001
1.700956e+003,1.098600e+001
1.701920e+003,9.749430e+000
1.702884e+003,9.396423e+000
1.703849e+003,1.083382e+001
1.704813e+003,1.197177e+001
1.705777e+003,1.084947e+001
1.706741e+003,8.840198e+000
1.707706e+003,8.185788e+000
1.708670e+003,8.617984e+000
1.709634e+003,9.242121e+000
1.710598e+003,1.008931e+001
1.711563e+003,1.023907e+001
1.712527e+003,8.693323e+000
1.713491e+003,6.957950e+000
1.714455e+003,6.252963e+000
1.715419e+003,6.203952e+000
1.716384e+003,6.152768e+000
1.717348e+003,6.083606e+000
1.718312e+003,6.419950e+000
1.719276e+003,7.289893e+000
1.720241e+003,7.895181e+000
1.721205e+003,7.620465e+000
1.722169e+003,6.937997e+000
1.723133e+003,6.594119e+000
1.724098e+003,6.574277e+000
1.725062e+003,6.470380e+000
1.726026e+003,6.155292e+000
1.726990e+003,6.126434e+000
1.727954e+003,7.096139e+000
1.728919e+003,7.530475e+000
1.729883e+003,6.194287e+000
1.730847e+003,4.484179e+000
1.731811e+003,3.758884e+000
1.732776e+003,3.826282e+000
1.733740e+003,4.118213e+000
1.734704e+003,4.412027e+000
1.735668e+003,4.524048e+000
1.736633e+003,4.341605e+000
1.737597e+003,3.790674e+000
1.738561e+003,2.654321e+000
1.739525e+003,1.359872e+000
1.740490e+003,1.978763e+000
1.741454e+003,5.535425e+000
1.742418e+003,7.073615e+000
1.743382e+003,5.207160e+000
1.744346e+003,3.517261e+000
1.745311e+003,2.738885e+000
1.746275e+003,2.084262e+000
1.747239e+003,9.418122e-001
1.748203e+003,-2.237488e-001
1.749168e+003,-8.955139e-001
1.750132e+003,-9.972259e-001
1.751096e+003,-4.000549e-001
1.752060e+003,7.698914e-001
1.753025e+003,1.554773e+000
1.753989e+003,1.049103e+000
1.754953e+003,-1.699219e-001
1.755917e+003,-8.116089e-001
1.756881e+003,-8.722534e-001
1.757846e+003,-8.540161e-001
1.758810e+003,-7.939056e-001
1.759774e+003,-4.644562e-001
1.760738e+003,3.257690e-001
1.761703e+003,1.096356e+000
1.762667e+003,1.807809e+000
1.763631e+003,2.316806e+000
1.764595e+003,2.620480e+000
1.765560e+003,2.632404e+000
1.766524e+003,2.011585e+000
1.767488e+003,8.425354e-001
1.768452e+003,-1.315949e-001
1.769417e+003,-5.170105e-001
1.770381e+003,-4.553284e-001
1.771345e+003,1.356232e-001
1.772309e+003,9.180816e-001
1.773273e+003,9.623749e-001
1.774238e+003,3.221771e-001
1.775202e+003,-1.924866e-001
1.776166e+003,-4.341339e-001
1.777130e+003,-7.757629e-001
1.778095e+003,-1.482513e+000
1.779059e+003,-2.043893e+000
1.780023e+003,-2.031394e+000
1.780987e+003,-1.608841e+000
1.781952e+003,-9.246277e-001
1.782916e+003,-9.999695e-002
1.783880e+003,3.487457e-001
1.784844e+003,3.249115e-001
1.785808e+003,1.698669e-001
1.786773e+003,-1.990265e-001
1.787737e+003,-3.966522e-001
1.788701e+003,7.054138e-002
1.789665e+003,7.486786e-001
1.790630e+003,1.198337e+000
1.791594e+003,1.229230e+000
1.792558e+003,1.295960e-001
1.793522e+003,-2.107370e+000
1.794487e+003,-3.761673e+000
1.795451e+003,-3.756290e+000
1.796415e+003,-2.564883e+000
1.797379e+003,-5.989197e-001
1.798344e+003,1.681519e+000
1.799308e+003,1.959064e+000
1.800272e+003,-8.664581e-001
1.801236e+003,-1.475067e+000
1.802201e+003,2.809854e+000
1.803165e+003,5.072345e+000
1.804129e+003,2.734711e+000
1.805093e+003,1.124573e-002
1.806057e+003,-1.124625e+000
1.807022e+003,-1.223978e+000
1.807986e+003,-6.193725e-001
1.808950e+003,1.972168e-001
1.809914e+003,3.257507e-001
1.810879e+003,-3.701447e-001
1.811843e+003,-8.969635e-001
1.812807e+003,-5.081116e-001
1.813771e+003,-5.483093e-002
1.814736e+003,-1.092227e+000
1.815700e+003,-3.184222e+000
1.816664e+003,-3.807388e+000
1.817628e+003,-2.835712e+000
1.818593e+003,-1.733102e+000
1.819557e+003,-3.965729e-001
1.820521e+003,3.657196e-001
1.821485e+003,-1.403870e-001
1.822449e+003,-8.026916e-001
1.823414e+003,-8.038818e-001
1.824378e+003,-5.414246e-001
1.825342e+003,-2.964295e-001
1.826306e+003,-1.862793e-001
1.827271e+003,-8.171692e-001
1.828235e+003,-2.463217e+000
1.829199e+003,-3.334280e+000
1.830163e+003,-2.097195e+000
1.831128e+003,-2.447815e-001
1.832092e+003,1.335635e+000
1.833056e+003,2.459155e+000
1.834020e+003,2.644116e+000
1.834984e+003,2.105072e+000
1.835949e+003,1.621576e+000
1.836913e+003,1.381891e+000
1.837877e+003,1.047226e+000
1.838841e+003,4.133026e-001
1.839806e+003,-2.184052e-001
1.840770e+003,-5.086914e-001
1.841734e+003,-5.481903e-001
1.842698e+003,-5.854767e-001
1.843663e+003,-6.223938e-001
1.844627e+003,-3.565796e-001
1.845591e+003,8.916656e-001
1.846555e+003,1.317645e+000
1.847520e+003,-3.986023e-001
1.848484e+003,-1.349203e+000
1.849448e+003,4.949188e-001
1.850412e+003,2.707968e+000
1.851376e+003,3.133579e+000
1.852341e+003,2.487180e+000
1.853305e+003,2.139459e+000
1.854269e+003,2.336871e+000
1.855233e+003,2.733777e+000
1.856198e+003,3.168799e+000
1.857162e+003,3.484064e+000
1.858126e+003,3.473883e+000
1.859090e+003,3.318124e+000
1.860055e+003,3.377173e+000
1.861019e+003,3.571313e+000
1.861983e+003,3.681860e+000
1.862947e+003,3.721991e+000
1.863911e+003,3.116547e+000
1.864876e+003,1.527271e+000
1.865840e+003,3.038513e-001
1.866804e+003,2.018982e-001
1.867768e+003,7.284821e-001
1.868733e+003,1.327365e+000
1.869697e+003,2.103909e+000
1.870661e+003,3.657919e+000
1.871625e+003,6.003888e+000
1.872590e+003,7.180914e+000
1.873554e+003,6.342725e+000
1.874518e+003,5.676566e+000
1.875482e+003,6.361197e+000
1.876447e+003,6.719394e+000
1.877411e+003,5.286890e+000
1.878375e+003,3.369483e+000
1.879339e+003,2.163144e+000
1.880303e+003,1.794260e+000
1.881268e+003,2.470804e+000
1.882232e+003,3.918967e+000
1.883196e+003,5.036407e+000
1.884160e+003,5.244946e+000
1.885125e+003,5.013367e+000
1.886089e+003,4.805374e+000
1.887053e+003,4.694430e+000
1.888017e+003,4.921985e+000
1.888982e+003,5.498694e+000
1.889946e+003,6.588455e+000
1.890910e+003,8.547140e+000
1.891874e+003,9.128748e+000
1.892839e+003,7.217679e+000
1.893803e+003,5.451349e+000
1.894767e+003,5.093381e+000
1.895731e+003,5.336417e+000
1.896695e+003,5.542758e+000
1.897660e+003,5.779675e+000
1.898624e+003,6.232321e+000
1.899588e+003,6.858597e+000
1.900552e+003,7.268320e+000
1.901517e+003,7.285727e+000
1.902481e+003,7.375525e+000
1.903445e+003,7.966974e+000
1.904409e+003,8.444870e+000
1.905374e+003,8.140360e+000
1.906338e+003,7.766147e+000
1.907302e+003,8.523541e+000
1.908266e+003,9.658740e+000
1.909230e+003,9.258865e+000
1.910195e+003,7.413538e+000
1.911159e+003,5.961072e+000
1.912123e+003,5.786652e+000
1.913087e+003,6.649325e+000
1.914052e+003,8.395688e+000
1.915016e+003,1.001870e+001
1.915980e+003,9.219815e+000
1.916944e+003,6.256165e+000
1.917909e+003,4.566290e+000
1.918873e+003,4.297775e+000
1.919837e+003,4.629166e+000
1.920801e+003,5.880658e+000
1.921766e+003,6.572717e+000
1.922730e+003,5.829599e+000
1.923694e+003,4.868942e+000
1.924658e+003,4.290936e+000
1.925622e+003,4.215677e+000
1.926587e+003,5.198776e+000
1.927551e+003,6.814008e+000
1.928515e+003,7.542276e+000
1.929479e+003,7.177682e+000
1.930444e+003,6.523340e+000
1.931408e+003,5.343137e+000
1.932372e+003,4.580954e+000
1.933336e+003,4.804254e+000
1.934301e+003,5.490350e+000
1.935265e+003,6.526910e+000
1.936229e+003,7.556143e+000
1.937193e+003,8.103724e+000
1.938157e+003,8.190900e+000
1.939122e+003,8.161038e+000
1.940086e+003,8.050318e+000
1.941050e+003,7.268838e+000
1.942014e+003,5.490256e+000
1.942979e+003,3.940362e+000
1.943943e+003,4.231574e+000
1.944907e+003,5.653351e+000
1.945871e+003,6.122897e+000
1.946836e+003,5.726392e+000
1.947800e+003,6.080417e+000
1.948764e+003,7.350451e+000
1.949728e+003,7.615912e+000
1.950693e+003,6.049674e+000
1.951657e+003,5.175305e+000
1.952621e+003,6.728574e+000
1.953585e+003,8.464804e+000
1.954549e+003,7.996988e+000
1.955514e+003,6.373990e+000
1.956478e+003,5.826050e+000
1.957442e+003,6.298163e+000
1.958406e+003,6.971582e+000
1.959371e+003,7.927310e+000
1.960335e+003,8.765787e+000
1.961299e+003,9.413815e+000
1.962263e+003,9.997833e+000
1.963228e+003,1.099240e+001
1.964192e+003,1.144399e+001
1.965156e+003,1.016534e+001
1.966120e+003,8.329852e+000
1.967084e+003,7.188663e+000
1.968049e+003,6.932190e+000
1.969013e+003,7.637118e+000
1.969977e+003,9.069641e+000
1.970941e+003,1.021938e+001
1.971906e+003,1.052047e+001
1.972870e+003,1.029556e+001
1.973834e+003,9.807452e+000
1.974798e+003,9.104093e+000
1.975763e+003,8.069086e+000
1.976727e+003,6.877252e+000
1.977691e+003,5.952832e+000
1.978655e+003,5.413986e+000
1.979620e+003,6.003418e+000
1.980584e+003,7.837003e+000
1.981548e+003,9.096499e+000
1.982512e+003,8.772375e+000
1.983476e+003,7.938815e+000
1.984441e+003,7.705380e+000
1.985405e+003,7.821698e+000
1.986369e+003,7.676831e+000
1.987333e+003,7.305350e+000
1.988298e+003,7.287286e+000
1.989262e+003,7.642163e+000
1.990226e+003,8.186438e+000
1.991190e+003,9.204938e+000
1.992155e+003,9.905741e+000
1.993119e+003,9.857828e+000
1.994083e+003,9.768442e+000
1.995047e+003,9.973020e+000
1.996011e+003,1.028754e+001
1.996976e+003,1.077649e+001
1.997940e+003,1.119353e+001
1.998904e+003,1.067317e+001
1.999868e+003,9.227728e+000
2.000833e+003,8.793787e+000
2.001797e+003,1.044506e+001
2.002761e+003,1.154598e+001
2.003725e+003,1.016738e+001
2.004690e+003,9.011683e+000
2.005654e+003,1.040141e+001
2.006618e+003,1.233840e+001
2.007582e+003,1.266025e+001
2.008547e+003,1.199086e+001
2.009511e+003,1.162357e+001
2.010475e+003,1.172280e+001
2.011439e+003,1.189380e+001
2.012403e+003,1.193951e+001
2.013368e+003,1.177101e+001
2.014332e+003,1.132974e+001
2.015296e+003,1.066003e+001
2.016260e+003,9.546842e+000
2.017225e+003,8.447482e+000
2.018189e+003,8.397067e+000
2.019153e+003,9.281323e+000
2.020117e+003,1.116034e+001
2.021082e+003,1.375441e+001
2.022046e+003,1.465233e+001
2.023010e+003,1.329734e+001
2.023974e+003,1.174805e+001
2.024938e+003,1.109073e+001
2.025903e+003,1.074203e+001
2.026867e+003,1.013498e+001
2.027831e+003,9.227514e+000
2.028795e+003,7.759711e+000
2.029760e+003,5.848392e+000
2.030724e+003,6.351166e+000
2.031688e+003,1.053847e+001
2.032652e+003,1.217358e+001
2.033617e+003,9.583807e+000
2.034581e+003,7.838275e+000
2.035545e+003,8.696897e+000
2.036509e+003,9.880145e+000
2.037474e+003,1.003403e+001
2.038438e+003,9.923050e+000
2.039402e+003,1.053890e+001
2.040366e+003,1.147290e+001
2.041330e+003,1.186452e+001
2.042295e+003,1.171194e+001
2.043259e+003,1.115780e+001
2.044223e+003,1.002260e+001
2.045187e+003,8.979599e+000
2.046152e+003,7.598633e+000
2.047116e+003,7.079755e+000
2.048080e+003,8.725321e+000
2.049044e+003,1.040814e+001
2.050009e+003,1.052954e+001
2.050973e+003,9.968924e+000
2.051937e+003,9.628973e+000
2.052901e+003,9.683771e+000
2.053865e+003,1.039194e+001
2.054830e+003,1.154273e+001
2.055794e+003,1.189984e+001
2.056758e+003,1.086017e+001
2.057722e+003,9.667157e+000
2.058687e+003,9.180948e+000
2.059651e+003,9.050845e+000
2.060615e+003,9.068176e+000
2.061579e+003,9.073999e+000
2.062544e+003,8.839951e+000
2.063508e+003,8.508029e+000
2.064472e+003,8.324307e+000
2.065436e+003,8.296023e+000
2.066401e+003,8.403818e+000
2.067365e+003,8.566935e+000
2.068329e+003,8.363668e+000
2.069293e+003,7.553909e+000
2.070258e+003,6.941504e+000
2.071222e+003,7.566836e+000
2.072186e+003,8.838079e+000
2.073150e+003,9.445859e+000
2.074115e+003,9.551135e+000
2.075079e+003,9.950351e+000
2.076043e+003,1.054596e+001
2.077007e+003,1.033234e+001
2.077971e+003,9.239166e+000
2.078936e+003,8.856318e+000
2.079900e+003,9.771292e+000
2.080864e+003,1.062124e+001
2.081828e+003,1.040913e+001
2.082792e+003,9.947284e+000
2.083757e+003,1.041274e+001
2.084721e+003,1.141741e+001
2.085685e+003,1.157058e+001
2.086649e+003,1.084574e+001
2.087614e+003,1.042878e+001
2.088578e+003,1.044474e+001
2.089542e+003,1.010161e+001
2.090506e+003,9.026563e+000
2.091471e+003,8.416468e+000
2.092435e+003,8.823468e+000
2.093399e+003,9.544696e+000
2.094363e+003,1.035756e+001
2.095328e+003,1.085641e+001
2.096292e+003,1.024612e+001
2.097256e+003,8.968127e+000
2.098220e+003,8.728369e+000
2.099185e+003,9.707318e+000
2.100149e+003,1.027558e+001
2.101113e+003,1.013011e+001
2.102077e+003,1.005915e+001
2.103042e+003,1.048680e+001
2.104006e+003,1.039352e+001
2.104970e+003,8.657862e+000
2.105934e+003,7.434378e+000
2.106898e+003,8.329489e+000
2.107863e+003,9.887906e+000
2.108827e+003,1.101117e+001
2.109791e+003,1.152962e+001
2.110755e+003,1.060896e+001
2.111719e+003,8.402552e+000
2.112684e+003,8.242498e+000
2.113648e+003,1.167514e+001
2.114612e+003,1.409193e+001
2.115576e+003,1.409230e+001
2.116541e+003,1.348629e+001
2.117505e+003,1.241061e+001
2.118469e+003,1.155295e+001
2.119433e+003,1.142263e+001
2.120398e+003,1.165703e+001
2.121362e+003,1.228685e+001
2.122326e+003,1.272136e+001
2.123290e+003,1.153855e+001
2.124255e+003,9.158401e+000
2.125219e+003,8.129236e+000
2.126183e+003,9.219492e+000
2.127147e+003,1.089763e+001
2.128112e+003,1.341758e+001
2.129076e+003,1.490613e+001
2.130040e+003,1.350779e+001
2.131004e+003,1.157343e+001
2.131969e+003,1.065860e+001
2.132933e+003,1.047678e+001
2.133897e+003,1.080774e+001
2.134861e+003,1.147842e+001
2.135825e+003,1.248546e+001
2.136790e+003,1.354915e+001
2.137754e+003,1.394925e+001
2.138718e+003,1.351157e+001
2.139682e+003,1.284286e+001
2.140646e+003,1.216655e+001
2.141611e+003,1.182459e+001
2.142575e+003,1.229350e+001
2.143539e+003,1.296247e+001
2.144503e+003,1.347273e+001
2.145468e+003,1.368252e+001
2.146432e+003,1.324979e+001
2.147396e+003,1.240494e+001
2.148360e+003,1.135827e+001
2.149325e+003,1.041295e+001
2.150289e+003,1.035621e+001
2.151253e+003,1.123833e+001
2.152217e+003,1.192672e+001
2.153182e+003,1.179167e+001
2.154146e+003,1.161386e+001
2.155110e+003,1.216185e+001
2.156074e+003,1.299090e+001
2.157039e+003,1.382142e+001
2.158003e+003,1.426186e+001
2.158967e+003,1.309510e+001
2.159931e+003,1.137454e+001
2.160896e+003,1.166127e+001
2.161860e+003,1.361153e+001
2.162824e+003,1.529364e+001
2.163788e+003,1.608957e+001
2.164752e+003,1.595797e+001
2.165717e+003,1.497270e+001
2.166681e+003,1.409436e+001
2.167645e+003,1.417073e+001
2.168609e+003,1.469444e+001
2.169573e+003,1.508034e+001
2.170538e+003,1.538048e+001
2.171502e+003,1.584192e+001
2.172466e+003,1.615402e+001
2.173430e+003,1.538257e+001
2.174395e+003,1.386902e+001
2.175359e+003,1.279490e+001
2.176323e+003,1.240505e+001
2.177287e+003,1.274132e+001
2.178252e+003,1.360731e+001
2.179216e+003,1.350701e+001
2.180180e+003,1.135100e+001
2.181144e+003,9.228403e+000
2.182109e+003,9.875315e+000
2.183073e+003,1.186172e+001
2.184037e+003,1.255502e+001
2.185001e+003,1.236809e+001
2.185966e+003,1.230864e+001
2.186930e+003,1.237551e+001
2.187894e+003,1.218401e+001
2.188858e+003,1.180504e+001
2.189823e+003,1.180166e+001
2.190787e+003,1.227065e+001
2.191751e+003,1.297325e+001
2.192715e+003,1.376928e+001
2.193679e+003,1.400584e+001
2.194644e+003,1.289213e+001
2.195608e+003,1.165339e+001
2.196572e+003,1.282017e+001
2.197536e+003,1.507706e+001
2.198500e+003,1.496378e+001
2.199465e+003,1.329969e+001
2.200429e+003,1.236205e+001
2.201393e+003,1.222339e+001
2.202357e+003,1.233603e+001
2.203322e+003,1.255819e+001
2.204286e+003,1.299539e+001
2.205250e+003,1.363125e+001
2.206214e+003,1.392598e+001
2.207179e+003,1.351376e+001
2.208143e+003,1.324699e+001
2.209107e+003,1.424024e+001
2.210071e+003,1.577326e+001
2.211036e+003,1.669139e+001
2.212000e+003,1.705526e+001
2.212964e+003,1.671034e+001
2.213928e+003,1.598792e+001
2.214893e+003,1.589150e+001
2.215857e+003,1.646144e+001
2.216821e+003,1.724689e+001
2.217785e+003,1.808375e+001
2.218750e+003,1.906084e+001
2.219714e+003,2.017935e+001
2.220678e+003,2.101883e+001
2.221642e+003,2.124441e+001
2.222606e+003,2.126126e+001
2.223571e+003,2.148292e+001
2.224535e+003,2.189362e+001
2.225499e+003,2.263965e+001
2.226463e+003,2.348854e+001
2.227427e+003,2.366191e+001
2.228392e+003,2.360507e+001
2.229356e+003,2.478909e+001
2.230320e+003,2.701061e+001
2.231284e+003,2.884202e+001
2.232249e+003,2.983312e+001
2.233213e+003,3.022543e+001
2.234177e+003,3.021723e+001
2.235141e+003,3.061362e+001
2.236106e+003,3.212975e+001
2.237070e+003,3.431856e+001
2.238034e+003,3.670916e+001
2.238998e+003,3.929083e+001
2.239963e+003,4.265630e+001
2.240927e+003,4.589791e+001
2.241891e+003,4.691618e+001
2.242855e+003,4.679237e+001
2.243820e+003,4.805945e+001
2.244784e+003,5.083157e+001
2.245748e+003,5.392092e+001
2.246712e+003,5.685949e+001
2.247677e+003,5.958186e+001
2.248641e+003,6.208237e+001
2.249605e+003,6.447262e+001
2.250569e+003,6.689091e+001
2.251533e+003,6.905422e+001
2.252498e+003,7.148307e+001
2.253462e+003,7.269534e+001
2.254426e+003,6.989571e+001
2.255390e+003,6.590436e+001
2.256354e+003,6.486753e+001
2.257319e+003,6.546581e+001
2.258283e+003,6.468353e+001
2.259247e+003,6.228480e+001
2.260211e+003,5.935351e+001
2.261176e+003,5.627786e+001
2.262140e+003,5.345132e+001
2.263104e+003,5.117577e+001
2.264068e+003,4.843742e+001
2.265033e+003,4.381731e+001
2.265997e+003,3.971957e+001
2.266961e+003,3.807389e+001
2.267925e+003,3.693025e+001
2.268890e+003,3.466341e+001
2.269854e+003,3.215435e+001
2.270818e+003,3.087717e+001
2.271782e+003,2.994373e+001
2.272747e+003,2.705186e+001
2.273711e+003,2.293977e+001
2.274675e+003,2.145522e+001
2.275639e+003,2.337418e+001
2.276604e+003,2.390380e+001
2.277568e+003,2.082454e+001
2.278532e+003,1.840669e+001
2.279496e+003,1.820232e+001
2.280460e+003,1.805785e+001
2.281425e+003,1.738882e+001
2.282389e+003,1.634807e+001
2.283353e+003,1.460789e+001
2.284317e+003,1.303435e+001
2.285281e+003,1.246320e+001
2.286246e+003,1.256168e+001
2.287210e+003,1.287348e+001
2.288174e+003,1.330434e+001
2.289138e+003,1.355413e+001
2.290103e+003,1.370160e+001
2.291067e+003,1.317263e+001
2.292031e+003,1.136928e+001
2.292995e+003,1.007861e+001
2.293960e+003,9.780810e+000
2.294924e+003,9.094861e+000
2.295888e+003,6.980252e+000
2.296852e+003,5.848432e+000
2.297817e+003,7.539432e+000
2.298781e+003,9.521787e+000
2.299745e+003,9.502558e+000
2.300709e+003,8.412491e+000
2.301674e+003,7.679852e+000
2.302638e+003,7.303845e+000
2.303602e+003,7.411539e+000
2.304566e+003,8.046191e+000
2.305531e+003,8.044708e+000
2.306495e+003,7.307874e+000
2.307459e+003,7.091852e+000
2.308423e+003,7.556198e+000
2.309387e+003,7.953238e+000
2.310352e+003,8.111035e+000
2.311316e+003,7.708117e+000
2.312280e+003,6.548141e+000
2.313244e+003,5.930490e+000
2.314208e+003,6.992957e+000
2.315173e+003,8.312729e+000
2.316137e+003,7.818201e+000
2.317101e+003,6.065839e+000
2.318065e+003,3.975079e+000
2.319030e+003,2.034854e+000
2.319994e+003,2.798471e+000
2.320958e+003,5.440265e+000
2.321922e+003,6.525506e+000
2.322887e+003,6.000140e+000
2.323851e+003,5.355112e+000
2.324815e+003,4.915149e+000
2.325779e+003,4.160941e+000
2.326744e+003,3.024445e+000
2.327708e+003,2.465509e+000
2.328672e+003,3.099735e+000
2.329636e+003,4.058164e+000
2.330601e+003,4.977646e+000
2.331565e+003,5.035837e+000
2.332529e+003,2.015601e+000
2.333493e+003,-1.099155e+000
2.334458e+003,1.685974e-001
2.335422e+003,2.846020e+000
2.336386e+003,2.467526e+000
2.337350e+003,4.056793e-001
2.338314e+003,-2.806396e-002
2.339279e+003,8.554535e-001
2.340243e+003,3.352966e-001
2.341207e+003,-1.870557e+000
2.342171e+003,-2.810715e+000
2.343135e+003,-1.205792e+000
2.344100e+003,-1.073608e-002
2.345064e+003,-8.203888e-001
2.346028e+003,-1.474719e+000
2.346992e+003,-7.422943e-001
2.347957e+003,-3.024292e-001
2.348921e+003,-1.791275e+000
2.349885e+003,-2.994195e+000
2.350849e+003,-1.690326e+000
2.351814e+003,3.125793e-001
2.352778e+003,7.709259e-001
2.353742e+003,1.984680e-001
2.354706e+003,-1.871033e-002
2.355671e+003,8.704834e-002
2.356635e+003,-2.608978e-001
2.357599e+003,-1.337296e+000
2.358563e+003,-1.697897e+000
2.359528e+003,-9.919678e-001
2.360492e+003,-8.521546e-001
2.361456e+003,-1.720145e+000
2.362420e+003,-1.865884e+000
2.363385e+003,-5.208374e-001
2.364349e+003,9.273987e-002
2.365313e+003,-1.364337e+000
2.366277e+003,-2.784015e+000
2.367241e+003,-2.158612e+000
2.368206e+003,-8.170593e-001
2.369170e+003,-9.319733e-001
2.370134e+003,-1.974332e+000
2.371098e+003,-2.424457e+000
2.372063e+003,-2.440360e+000
2.373027e+003,-2.736291e+000
2.373991e+003,-3.139121e+000
2.374955e+003,-2.817258e+000
2.375919e+003,-2.015030e+000
2.376884e+003,-2.032758e+000
2.377848e+003,-2.866858e+000
2.378812e+003,-3.171515e+000
2.379776e+003,-2.569253e+000
2.380741e+003,-2.010535e+000
2.381705e+003,-2.005868e+000
2.382669e+003,-2.435059e+000
2.383633e+003,-3.674918e+000
2.384598e+003,-4.470877e+000
2.385562e+003,-3.366263e+000
2.386526e+003,-2.018884e+000
2.387490e+003,-1.786465e+000
2.388455e+003,-1.913834e+000
2.389419e+003,-1.512656e+000
2.390383e+003,-1.064346e+000
2.391347e+003,-1.520966e+000
2.392312e+003,-2.446341e+000
2.393276e+003,-2.672897e+000
2.394240e+003,-2.195117e+000
2.395204e+003,-1.925098e+000
2.396168e+003,-2.036273e+000
2.397133e+003,-1.902429e+000
2.398097e+003,-1.383865e+000
2.399061e+003,-8.315125e-001
2.400025e+003,1.455688e-002
2.400990e+003,2.253265e-001
2.401954e+003,-8.310760e-001
2.402918e+003,-1.436038e+000
2.403882e+003,-6.115509e-001
2.404846e+003,2.980560e-001
2.405811e+003,1.715668e-001
2.406775e+003,-2.415497e-001
2.407739e+003,1.762176e-001
2.408703e+003,8.443115e-001
2.409668e+003,-8.862305e-003
2.410632e+003,-1.921310e+000
2.411596e+003,-2.578983e+000
2.412560e+003,-2.144012e+000
2.413525e+003,-7.920654e-001
2.414489e+003,9.880158e-001
2.415453e+003,1.252057e+000
2.416417e+003,1.541504e-001
2.417382e+003,-6.151764e-001
2.418346e+003,-5.524658e-001
2.419310e+003,7.499695e-002
2.420274e+003,1.097760e+000
2.421239e+003,1.977829e+000
2.422203e+003,2.400241e+000
2.423167e+003,2.516626e+000
2.424131e+003,2.304172e+000
2.425095e+003,2.003549e+000
2.426060e+003,1.631174e+000
2.427024e+003,1.392349e+000
2.427988e+003,1.393552e+000
2.428952e+003,1.641251e+000
2.429917e+003,2.262650e+000
2.430881e+003,3.068076e+000
2.431845e+003,3.688709e+000
2.432809e+003,4.226584e+000
2.433773e+003,5.395035e+000
2.434738e+003,7.194977e+000
2.435702e+003,7.410147e+000
2.436666e+003,5.415317e+000
2.437630e+003,4.068414e+000
2.438595e+003,3.322333e+000
2.439559e+003,3.414792e+000
2.440523e+003,4.490308e+000
2.441487e+003,5.943701e+000
2.442452e+003,7.634564e+000
2.443416e+003,8.423968e+000
2.444380e+003,7.735916e+000
2.445344e+003,6.472140e+000
2.446309e+003,5.341757e+000
2.447273e+003,4.725348e+000
2.448237e+003,5.058762e+000
2.449201e+003,6.290894e+000
2.450166e+003,9.643454e+000
2.451130e+003,1.280119e+001
2.452094e+003,1.087034e+001
2.453058e+003,6.961426e+000
2.454022e+003,6.163916e+000
2.454987e+003,7.164160e+000
2.455951e+003,6.860181e+000
2.456915e+003,5.424619e+000
2.457879e+003,4.379407e+000
2.458844e+003,4.032471e+000
2.459808e+003,4.007895e+000
2.460772e+003,4.135895e+000
2.461736e+003,5.220865e+000
2.462700e+003,8.706293e+000
2.463665e+003,1.087066e+001
2.464629e+003,1.075662e+001
2.465593e+003,1.040329e+001
2.466557e+003,1.018085e+001
2.467522e+003,9.554886e+000
2.468486e+003,7.931418e+000
2.469450e+003,7.035843e+000
2.470414e+003,8.275446e+000
2.471379e+003,1.013901e+001
2.472343e+003,1.085024e+001
2.473307e+003,1.072119e+001
2.474271e+003,1.029189e+001
2.475236e+003,9.734238e+000
2.476200e+003,9.749292e+000
2.477164e+003,1.005975e+001
2.478128e+003,9.752255e+000
2.479093e+003,9.071356e+000
2.480057e+003,8.550348e+000
2.481021e+003,8.375196e+000
2.481985e+003,9.194730e+000
2.482949e+003,1.057273e+001
2.483914e+003,1.046972e+001
2.484878e+003,8.649078e+000
2.485842e+003,7.983923e+000
2.486806e+003,9.719660e+000
2.487771e+003,1.151456e+001
2.488735e+003,1.295370e+001
2.489699e+003,1.364787e+001
2.490663e+003,1.265639e+001
2.491627e+003,1.206005e+001
2.492592e+003,1.334727e+001
2.493556e+003,1.400064e+001
2.494520e+003,1.218261e+001
2.495484e+003,1.057762e+001
2.496449e+003,1.152473e+001
2.497413e+003,1.356000e+001
2.498377e+003,1.465446e+001
2.499341e+003,1.502739e+001
2.500306e+003,1.514688e+001
2.501270e+003,1.511514e+001
2.502234e+003,1.529781e+001
2.503198e+003,1.570187e+001
2.504163e+003,1.658115e+001
2.505127e+003,1.759897e+001
2.506091e+003,1.766676e+001
2.507055e+003,1.702077e+001
2.508020e+003,1.665848e+001
2.508984e+003,1.678993e+001
2.509948e+003,1.708534e+001
2.510912e+003,1.745014e+001
2.511876e+003,1.826018e+001
2.512841e+003,1.985180e+001
2.513805e+003,2.116588e+001
2.514769e+003,2.168365e+001
2.515733e+003,2.211729e+001
2.516698e+003,2.251674e+001
2.517662e+003,2.301070e+001
2.518626e+003,2.376750e+001
2.519590e+003,2.459179e+001
2.520554e+003,2.546446e+001
2.521519e+003,2.594733e+001
2.522483e+003,2.544524e+001
2.523447e+003,2.517495e+001
2.524411e+003,2.704078e+001
2.525376e+003,3.015693e+001
2.526340e+003,3.240134e+001
2.527304e+003,3.389697e+001
2.528268e+003,3.493370e+001
2.529233e+003,3.576619e+001
2.530197e+003,3.687817e+001
2.531161e+003,3.832930e+001
2.532125e+003,4.051958e+001
2.533090e+003,4.285342e+001
2.534054e+003,4.366714e+001
2.535018e+003,4.331475e+001
2.535982e+003,4.400982e+001
2.536947e+003,4.620193e+001
2.537911e+003,4.840077e+001
2.538875e+003,5.060150e+001
2.539839e+003,5.168074e+001
2.540803e+003,5.055331e+001
2.541768e+003,4.985752e+001
2.542732e+003,4.956132e+001
2.543696e+003,5.028929e+001
2.544660e+003,5.244149e+001
2.545625e+003,5.522200e+001
2.546589e+003,5.840617e+001
2.547553e+003,6.051477e+001
2.548517e+003,6.031199e+001
2.549482e+003,5.934490e+001
2.550446e+003,5.950467e+001
2.551410e+003,5.980188e+001
2.552374e+003,5.805644e+001
2.553339e+003,5.601863e+001
2.554303e+003,5.691291e+001
2.555267e+003,5.852159e+001
2.556231e+003,5.792530e+001
2.557196e+003,5.620570e+001
2.558160e+003,5.484248e+001
2.559124e+003,5.373498e+001
2.560088e+003,5.235421e+001
2.561052e+003,5.085735e+001
2.562017e+003,4.981230e+001
2.562981e+003,4.917884e+001
2.563945e+003,4.832925e+001
2.564909e+003,4.720244e+001
2.565874e+003,4.623021e+001
2.566838e+003,4.557677e+001
2.567802e+003,4.388545e+001
2.568766e+003,4.105697e+001
2.569730e+003,3.854970e+001
2.570695e+003,3.665398e+001
2.571659e+003,3.524418e+001
2.572623e+003,3.413219e+001
2.573587e+003,3.240947e+001
2.574552e+003,2.971401e+001
2.575516e+003,2.758928e+001
2.576480e+003,2.722205e+001
2.577444e+003,2.725698e+001
2.578409e+003,2.693173e+001
2.579373e+003,2.629860e+001
2.580337e+003,2.523329e+001
2.581301e+003,2.422763e+001
2.582266e+003,2.376583e+001
2.583230e+003,2.325358e+001
2.584194e+003,2.214075e+001
2.585158e+003,2.091902e+001
2.586123e+003,2.020509e+001
2.587087e+003,1.946199e+001
2.588051e+003,1.761909e+001
2.589015e+003,1.529673e+001
2.589979e+003,1.443458e+001
2.590944e+003,1.472106e+001
2.591908e+003,1.546212e+001
2.592872e+003,1.607039e+001
2.593836e+003,1.451611e+001
2.594801e+003,1.190571e+001
2.595765e+003,1.076589e+001
2.596729e+003,1.084264e+001
2.597693e+003,1.098066e+001
2.598657e+003,1.080085e+001
2.599622e+003,9.798856e+000
2.600586e+003,7.929776e+000
2.601550e+003,6.773614e+000
2.602514e+003,6.654361e+000
2.603479e+003,7.131049e+000
2.604443e+003,8.757190e+000
2.605407e+003,9.149508e+000
2.606371e+003,7.962744e+000
2.607336e+003,6.557379e+000
2.608300e+003,5.220575e+000
2.609264e+003,4.270346e+000
2.610228e+003,3.815799e+000
2.611193e+003,3.837506e+000
2.612157e+003,4.321640e+000
2.613121e+003,5.111047e+000
2.614085e+003,6.275674e+000
2.615050e+003,6.836508e+000
2.616014e+003,5.631097e+000
2.616978e+003,3.984262e+000
2.617942e+003,2.156991e+000
2.618906e+003,9.890960e-001
2.619871e+003,1.517798e+000
2.620835e+003,2.230585e+000
2.621799e+003,1.511136e+000
2.622763e+003,1.232340e+000
2.623728e+003,3.557285e+000
2.624692e+003,6.438202e+000
2.625656e+003,6.499600e+000
2.626620e+003,4.893262e+000
2.627584e+003,4.776956e+000
2.628549e+003,5.556836e+000
2.629513e+003,5.191400e+000
2.630477e+003,4.213061e+000
2.631441e+003,3.604620e+000
2.632406e+003,3.407623e+000
2.633370e+003,4.080264e+000
2.634334e+003,4.845822e+000
2.635298e+003,3.683749e+000
2.636263e+003,1.298279e+000
2.637227e+003,6.924378e-001
2.638191e+003,2.127023e+000
2.639155e+003,2.911005e+000
2.640120e+003,2.853818e+000
2.641084e+003,2.704791e+000
2.642048e+003,2.303046e+000
2.643012e+003,2.833481e+000
2.643977e+003,4.391885e+000
2.644941e+003,4.888397e+000
2.645905e+003,4.075241e+000
2.646869e+003,2.797354e+000
2.647833e+003,1.503354e+000
2.648798e+003,1.196530e+000
2.649762e+003,2.143274e+000
2.650726e+003,2.665451e+000
2.651690e+003,1.789749e+000
2.652655e+003,9.510162e-001
2.653619e+003,5.280670e-001
2.654583e+003,7.393494e-001
2.655547e+003,2.381409e+000
2.656511e+003,3.514194e+000
2.657476e+003,3.597247e+000
2.658440e+003,3.060721e+000
2.659404e+003,1.922858e+000
2.660368e+003,1.096606e+000
2.661333e+003,1.211465e+000
2.662297e+003,1.630173e+000
2.663261e+003,1.752374e+000
2.664225e+003,1.481494e+000
2.665190e+003,3.174408e-001
2.666154e+003,-7.342621e-001
2.667118e+003,-4.697723e-001
2.668082e+003,4.526001e-001
2.669047e+003,2.346139e+000
2.670011e+003,3.573074e+000
2.670975e+003,1.808456e+000
2.671939e+003,-5.622559e-001
2.672904e+003,-1.118170e+000
2.673868e+003,-1.869690e-001
2.674832e+003,2.311804e+000
2.675796e+003,4.900354e+000
2.676760e+003,3.367474e+000
2.677725e+003,-8.932953e-001
2.678689e+003,-2.224039e+000
2.679653e+003,-1.442853e+000
2.680617e+003,-5.412018e-001
2.681582e+003,2.078705e-001
2.682546e+003,4.853485e-001
2.683510e+003,4.142242e-001
2.684474e+003,-6.275634e-002
2.685438e+003,-5.562195e-001
2.686403e+003,1.364685e-001
2.687367e+003,1.750549e+000
2.688331e+003,1.760428e+000
2.689295e+003,8.249512e-002
2.690260e+003,-4.751190e-001
2.691224e+003,1.847717e-001
2.692188e+003,1.240207e+000
2.693152e+003,2.563040e+000
2.694117e+003,2.245139e+000
2.695081e+003,5.568085e-001
2.696045e+003,-1.349579e-001
2.697009e+003,3.893677e-001
2.697974e+003,8.390045e-001
2.698938e+003,8.620575e-001
2.699902e+003,9.527130e-001
2.700866e+003,1.298068e+000
2.701831e+003,1.239325e+000
2.702795e+003,1.230194e-001
2.703759e+003,-4.291077e-001
2.704723e+003,-3.628174e-001
2.705688e+003,6.264771e-001
2.706652e+003,2.921124e+000
2.707616e+003,3.255823e+000
2.708580e+003,8.906921e-001
2.709544e+003,-8.825439e-001
2.710509e+003,-7.907074e-001
2.711473e+003,-4.856293e-001
2.712437e+003,-9.038116e-001
2.713401e+003,-1.417099e+000
2.714365e+003,-1.773410e+000
2.715330e+003,-1.603711e+000
2.716294e+003,-9.036560e-002
2.717258e+003,1.009656e+000
2.718222e+003,1.026825e+000
2.719187e+003,4.721619e-001
2.720151e+003,-9.106568e-001
2.721115e+003,-1.543161e+000
2.722079e+003,-5.234741e-001
2.723044e+003,2.056549e-001
2.724008e+003,-8.296448e-001
2.724972e+003,-1.921280e+000
2.725936e+003,-1.266946e+000
2.726901e+003,-7.137756e-002
2.727865e+003,4.015686e-001
2.728829e+003,7.377930e-001
2.729793e+003,1.680649e+000
2.730758e+003,2.311038e+000
2.731722e+003,1.766071e+000
2.732686e+003,8.770294e-001
2.733650e+003,2.282715e-002
2.734615e+003,-4.282257e-001
2.735579e+003,-6.452332e-002
2.736543e+003,4.614563e-001
2.737507e+003,2.658508e-001
2.738471e+003,-2.832306e-001
2.739436e+003,-8.319885e-001
2.740400e+003,-9.232696e-001
2.741364e+003,1.261618e+000
2.742328e+003,3.258224e+000
2.743292e+003,1.158548e+000
2.744257e+003,-1.708797e+000
2.745221e+003,-1.264554e+000
2.746185e+003,3.001648e-001
2.747149e+003,-2.642487e-001
2.748114e+003,-1.576865e+000
2.749078e+003,-1.513776e+000
2.750042e+003,-5.892578e-001
2.751006e+003,-1.575653e-001
2.751971e+003,-6.393127e-002
2.752935e+003,4.305054e-001
2.753899e+003,8.769409e-001
2.754863e+003,-1.967407e-001
2.755828e+003,-1.609524e+000
2.756792e+003,-1.293530e+000
2.757756e+003,-6.988220e-002
2.758720e+003,8.169556e-001
2.759685e+003,1.217306e+000
2.760649e+003,1.115637e+000
2.761613e+003,6.245087e-001
2.762577e+003,-1.399963e-001
2.763542e+003,-1.038675e+000
2.764506e+003,-5.538605e-001
2.765470e+003,8.755646e-001
2.766434e+003,7.032593e-001
2.767398e+003,-4.441254e-001
2.768363e+003,-9.299927e-001
2.769327e+003,-8.831116e-001
2.770291e+003,-7.655731e-001
2.771255e+003,-7.037201e-001
2.772219e+003,-9.328369e-001
2.773184e+003,-1.329004e+000
2.774148e+003,-1.158875e+000
2.775112e+003,-4.724457e-001
2.776076e+003,3.416443e-002
2.777041e+003,3.717621e-001
2.778005e+003,-2.868835e-001
2.778969e+003,-1.643690e+000
2.779933e+003,-1.985385e+000
2.780898e+003,-1.591814e+000
2.781862e+003,-1.854903e+000
2.782826e+003,-2.484108e+000
2.783790e+003,-1.916661e+000
2.784755e+003,-3.916809e-001
2.785719e+003,4.662476e-002
2.786683e+003,-8.765289e-001
2.787647e+003,-1.331799e+000
2.788612e+003,-1.248651e+000
2.789576e+003,-1.539946e+000
2.790540e+003,-2.149621e+000
2.791504e+003,-1.229222e+000
2.792469e+003,7.703644e-001
2.793433e+003,1.035184e+000
2.794397e+003,-1.518738e-001
2.795361e+003,-4.823852e-001
2.796325e+003,1.469574e-001
2.797290e+003,2.237579e-001
2.798254e+003,-5.090485e-001
2.799218e+003,-1.302940e+000
2.800182e+003,-2.219966e+000
2.801146e+003,-2.256720e+000
2.802111e+003,-1.317319e+000
2.803075e+003,-6.970215e-003
2.804039e+003,1.470428e+000
2.805003e+003,1.817740e+000
2.805968e+003,1.061694e+000
2.806932e+003,-9.870300e-002
2.807896e+003,-1.233176e+000
2.808860e+003,-1.898073e+000
2.809825e+003,-1.974422e+000
2.810789e+003,-1.186350e+000
2.811753e+003,8.458496e-001
2.812717e+003,1.060703e+000
2.813682e+003,-1.181409e+000
2.814646e+003,-1.966345e+000
2.815610e+003,-1.225880e+000
2.816574e+003,2.801880e-001
2.817539e+003,2.127493e+000
2.818503e+003,3.031802e+000
2.819467e+003,2.855508e+000
2.820431e+003,1.967062e+000
2.821396e+003,7.143219e-001
2.822360e+003,-7.202759e-002
2.823324e+003,-2.309540e-001
2.824288e+003,7.255829e-001
2.825252e+003,3.746176e+000
2.826217e+003,3.383527e+000
2.827181e+003,-4.953735e-001
2.828145e+003,-1.243738e+000
2.829109e+003,1.020325e+000
2.830073e+003,1.988837e+000
2.831038e+003,1.280988e+000
2.832002e+003,5.255432e-001
2.832966e+003,2.028595e-001
2.833930e+003,3.416840e-001
2.834895e+003,9.377655e-001
2.835859e+003,1.532196e+000
2.836823e+003,2.162936e+000
2.837787e+003,2.377170e+000
2.838752e+003,2.166647e+000
2.839716e+003,1.791901e+000
2.840680e+003,1.277045e+000
2.841644e+003,4.698792e-001
2.842609e+003,-4.443756e-001
2.843573e+003,-6.773041e-001
2.844537e+003,-2.944366e-001
2.845501e+003,-1.690674e-001
2.846466e+003,-4.695923e-001
2.847430e+003,-6.320679e-001
2.848394e+003,-5.877579e-001
2.849358e+003,-5.523224e-001
2.850323e+003,-5.343612e-001
2.851287e+003,3.982391e-002
2.852251e+003,9.949433e-001
2.853215e+003,1.004080e+000
2.854179e+003,3.474548e-001
2.855144e+003,7.082642e-001
2.856108e+003,1.641638e+000
2.857072e+003,5.445617e-001
2.858036e+003,-2.471654e+000
2.859000e+003,-3.426897e+000
2.859965e+003,-2.081336e+000
2.860929e+003,-8.994232e-001
2.861893e+003,9.721832e-002
2.862857e+003,7.545807e-001
2.863822e+003,1.130905e+000
2.864786e+003,1.233166e+000
2.865750e+003,1.258185e+000
2.866714e+003,1.890994e+000
2.867679e+003,2.759818e+000
2.868643e+003,2.689194e+000
2.869607e+003,1.845126e+000
2.870571e+003,1.571683e+000
2.871536e+003,1.856607e+000
2.872500e+003,2.368091e+000
2.873464e+003,3.012552e+000
2.874428e+003,1.695737e+000
2.875393e+003,-7.939575e-001
2.876357e+003,-1.803896e+000
2.877321e+003,-1.704361e+000
2.878285e+003,-1.744814e+000
2.879250e+003,-1.691367e+000
2.880214e+003,-3.066620e-001
2.881178e+003,1.688040e+000
2.882142e+003,2.086157e+000
2.883106e+003,1.237848e+000
2.884071e+003,3.858368e-001
2.885035e+003,-3.507110e-001
2.885999e+003,-1.830246e-001
2.886963e+003,5.290710e-001
2.887927e+003,1.191489e+000
2.888892e+003,1.606973e+000
2.889856e+003,1.110724e+000
2.890820e+003,5.124878e-001
2.891784e+003,1.479672e+000
2.892749e+003,2.852591e+000
2.893713e+003,2.569467e+000
2.894677e+003,1.416891e+000
2.895641e+003,1.131985e+000
2.896606e+003,1.441620e+000
2.897570e+003,1.709280e+000
2.898534e+003,1.961011e+000
2.899498e+003,2.670367e+000
2.900463e+003,2.899399e+000
2.901427e+003,8.842804e-001
2.902391e+003,-1.451517e+000
2.903355e+003,-2.222722e+000
2.904320e+003,-1.861520e+000
2.905284e+003,-6.341812e-001
2.906248e+003,8.499954e-001
2.907212e+003,1.750085e+000
2.908177e+003,2.213397e+000
2.909141e+003,2.708789e+000
2.910105e+003,2.562711e+000
2.911069e+003,1.766205e-002
2.912033e+003,-2.164580e+000
2.912998e+003,-1.240434e+000
2.913962e+003,8.552551e-003
2.914926e+003,-9.823151e-002
2.915890e+003,-5.276886e-001
2.916854e+003,-5.328720e-001
2.917819e+003,-4.818756e-001
2.918783e+003,-8.037018e-001
2.919747e+003,-9.069840e-001
2.920711e+003,2.832565e-001
2.921676e+003,1.263751e+000
2.922640e+003,8.373443e-001
2.923604e+003,3.110718e-001
2.924568e+003,-8.579407e-002
2.925533e+003,3.682541e-001
2.926497e+003,2.064737e+000
2.927461e+003,2.714917e+000
2.928425e+003,1.422105e+000
2.929390e+003,4.560303e-001
2.930354e+003,9.762268e-001
2.931318e+003,1.361354e+000
2.932282e+003,5.247498e-001
2.933247e+003,-3.557602e-001
2.934211e+003,-2.269440e-001
2.935175e+003,-2.681274e-001
2.936139e+003,-9.941971e-001
2.937104e+003,-1.513783e+000
2.938068e+003,-1.534222e+000
2.939032e+003,-5.974213e-001
2.939996e+003,1.192281e+000
2.940960e+003,2.355099e+000
2.941925e+003,2.311908e+000
2.942889e+003,2.166534e+000
2.943853e+003,2.460016e+000
2.944817e+003,1.950290e+000
2.945781e+003,3.726364e-001
2.946746e+003,-7.336929e-001
2.947710e+003,-1.239247e+000
2.948674e+003,-1.597336e-001
2.949638e+003,1.817668e+000
2.950603e+003,1.362253e+000
2.951567e+003,-1.148026e+000
2.952531e+003,-1.986449e+000
2.953495e+003,-5.847565e-001
2.954460e+003,1.015154e+000
2.955424e+003,2.712643e+000
2.956388e+003,1.230035e+000
2.957352e+003,-2.797380e+000
2.958317e+003,-2.476288e+000
2.959281e+003,5.253631e-001
2.960245e+003,1.203232e+000
2.961209e+003,3.691605e-001
2.962174e+003,4.093048e-001
2.963138e+003,1.145390e+000
2.964102e+003,1.663591e+000
2.965066e+003,1.879924e+000
2.966031e+003,1.599263e+000
2.966995e+003,1.058435e+000
2.967959e+003,1.154433e+000
2.968923e+003,1.434480e+000
2.969887e+003,6.200088e-001
2.970852e+003,-2.240952e-001
2.971816e+003,5.622894e-001
2.972780e+003,1.647415e+000
2.973744e+003,1.566353e+000
2.974708e+003,1.160342e+000
2.975673e+003,1.144719e+000
2.976637e+003,1.067157e+000
2.977601e+003,3.006287e-001
2.978565e+003,-4.085083e-001
2.979530e+003,-4.721374e-002
2.980494e+003,8.449234e-001
2.981458e+003,2.617664e+000
2.982422e+003,3.607028e+000
2.983387e+003,2.348276e+000
2.984351e+003,1.333994e+000
2.985315e+003,1.503842e+000
2.986279e+003,1.348625e+000
2.987244e+003,1.428116e-001
2.988208e+003,-3.269806e-001
2.989172e+003,1.139955e+000
2.990136e+003,2.129758e+000
2.991101e+003,7.253540e-001
2.992065e+003,-2.321625e-001
2.993029e+003,-5.365906e-002
2.993993e+003,2.313477e-001
2.994958e+003,5.094315e-001
2.995922e+003,8.066055e-001
2.996886e+003,1.085620e+000
2.997850e+003,9.651001e-001
2.998814e+003,4.605942e-001
2.999779e+003,1.353775e-001
3.000743e+003,1.422058e-001
3.001707e+003,3.141068e-001
3.002671e+003,6.666733e-001
3.003635e+003,9.466095e-001
3.004600e+003,1.141115e+000
3.005564e+003,1.345042e+000
3.006528e+003,1.320566e+000
3.007492e+003,-4.031219e-001
3.008457e+003,-2.494516e+000
3.009421e+003,-1.324652e+000
3.010385e+003,1.714214e+000
3.011349e+003,2.351425e+000
3.012314e+003,1.020847e+000
3.013278e+003,-1.397537e+000
3.014242e+003,-3.833041e+000
3.015206e+003,-1.853969e+000
3.016171e+003,1.748270e+000
3.017135e+003,2.486545e+000
3.018099e+003,1.814902e+000
3.019063e+003,6.957108e-001
3.020028e+003,1.101074e-002
3.020992e+003,6.233856e-001
3.021956e+003,1.009323e+000
3.022920e+003,-2.402405e-001
3.023885e+003,-1.567102e+000
3.024849e+003,-1.175267e+000
3.025813e+003,-3.448502e-001
3.026777e+003,3.244370e-001
3.027741e+003,5.343323e-002
3.028706e+003,-3.374632e+000
3.029670e+003,-4.222188e+000
3.030634e+003,-4.541702e-001
3.031598e+003,1.793709e+000
3.032563e+003,5.863708e-001
3.033527e+003,-9.505631e-001
3.034491e+003,-1.414879e+000
3.035455e+003,-1.702164e+000
3.036420e+003,-2.282114e+000
3.037384e+003,-2.053493e+000
3.038348e+003,-1.370453e-001
3.039312e+003,4.341888e-002
3.040277e+003,-1.548320e+000
3.041241e+003,-2.064021e+000
3.042205e+003,-1.515573e+000
3.043169e+003,-1.378781e+000
3.044134e+003,-1.470816e+000
3.045098e+003,-8.292846e-002
3.046062e+003,2.238464e+000
3.047026e+003,2.283170e+000
3.047990e+003,5.247498e-001
3.048955e+003,-6.327713e-001
3.049919e+003,-1.188699e+000
3.050883e+003,-8.741028e-001
3.051847e+003,-1.628433e-001
3.052812e+003,3.466827e-001
3.053776e+003,5.769653e-001
3.054740e+003,1.468552e-001
3.055704e+003,-1.709671e-001
3.056668e+003,4.779175e-001
3.057633e+003,1.078894e+000
3.058597e+003,4.518692e-001
3.059561e+003,-4.590958e-001
3.060525e+003,-5.115265e-001
3.061490e+003,-2.412506e-001
3.062454e+003,1.262802e-001
3.063418e+003,4.150177e-001
3.064382e+003,4.975235e-001
3.065347e+003,6.868302e-001
3.066311e+003,1.093085e+000
3.067275e+003,7.734925e-001
3.068239e+003,-4.705933e-001
3.069204e+003,-1.066957e+000
3.070168e+003,-3.358795e-001
3.071132e+003,2.145966e-001
3.072096e+003,-1.580658e-002
3.073061e+003,-1.201523e-001
3.074025e+003,-9.103851e-002
3.074989e+003,5.376083e-001
3.075953e+003,1.512163e+000
3.076917e+003,1.502547e+000
3.077882e+003,7.696609e-001
3.078846e+003,4.178162e-001
3.079810e+003,4.788971e-001
3.080774e+003,4.382049e-001
3.081739e+003,2.995834e-001
3.082703e+003,1.805969e-001
3.083667e+003,3.952637e-002
3.084631e+003,-4.770660e-001
3.085595e+003,-8.263397e-001
3.086560e+003,5.587326e-001
3.087524e+003,1.805803e+000
3.088488e+003,4.653687e-001
3.089452e+003,-1.167158e+000
3.090417e+003,-1.629835e+000
3.091381e+003,-1.371849e+000
3.092345e+003,-7.104400e-001
3.093309e+003,-2.422165e-001
3.094274e+003,-5.657654e-001
3.095238e+003,-1.096892e+000
3.096202e+003,-2.025932e+000
3.097166e+003,-1.877177e+000
3.098131e+003,-2.719879e-002
3.099095e+003,1.066023e+000
3.100059e+003,9.825622e-001
3.101023e+003,4.838715e-002
3.101988e+003,-1.325067e+000
3.102952e+003,-1.777029e+000
3.103916e+003,-1.098396e+000
3.104880e+003,-1.113528e+000
3.105844e+003,-2.053310e+000
3.106809e+003,-1.666313e+000
3.107773e+003,-1.554581e-001
3.108737e+003,-5.779114e-002
3.109701e+003,-8.394028e-001
3.110666e+003,-1.243970e+000
3.111630e+003,-1.277281e+000
3.112594e+003,-1.020384e+000
3.113558e+003,-7.046753e-001
3.114522e+003,-6.109635e-001
3.115487e+003,-5.729675e-001
3.116451e+003,-2.968307e-001
3.117415e+003,-9.664307e-002
3.118379e+003,-4.180679e-001
3.119344e+003,-1.039380e+000
3.120308e+003,-2.342099e+000
3.121272e+003,-2.982899e+000
3.122236e+003,-2.344920e+000
3.123201e+003,-1.778703e+000
3.124165e+003,-1.696400e+000
3.125129e+003,-8.526154e-001
3.126093e+003,1.049763e+000
3.127058e+003,1.646080e+000
3.128022e+003,-2.657425e-001
3.128986e+003,-1.563014e+000
3.129950e+003,-1.817888e+000
3.130915e+003,-9.971558e-001
3.131879e+003,6.756881e-001
3.132843e+003,5.793778e-001
3.133807e+003,-7.612579e-001
3.134771e+003,-1.694406e+000
3.135736e+003,-1.948073e+000
3.136700e+003,-1.139346e+000
3.137664e+003,2.658234e-002
3.138628e+003,3.003952e-001
3.139593e+003,-1.120880e-001
3.140557e+003,-1.257024e+000
3.141521e+003,-2.110435e+000
3.142485e+003,-4.847565e-001
3.143449e+003,1.325784e+000
3.144414e+003,1.971321e+000
3.145378e+003,1.233539e+000
3.146342e+003,-1.290881e+000
3.147306e+003,-2.728018e+000
3.148271e+003,-1.798297e+000
3.149235e+003,-1.119315e+000
3.150199e+003,-2.193904e+000
3.151163e+003,-2.831229e+000
3.152128e+003,-1.275324e+000
3.153092e+003,-1.610127e+000
3.154056e+003,-4.293274e+000
3.155020e+003,-4.406647e+000
3.155985e+003,-2.391711e+000
3.156949e+003,-1.858817e+000
3.157913e+003,-2.679753e+000
3.158877e+003,-3.492992e+000
3.159842e+003,-3.813640e+000
3.160806e+003,-3.091760e+000
3.161770e+003,-1.707358e+000
3.162734e+003,-4.919495e-001
3.163698e+003,3.889709e-001
3.164663e+003,5.259140e-001
3.165627e+003,1.506897e-001
3.166591e+003,-1.085634e+000
3.167555e+003,-1.788077e+000
3.168520e+003,-9.937561e-001
3.169484e+003,-4.353760e-001
3.170448e+003,-9.187775e-001
3.171412e+003,-1.333263e+000
3.172376e+003,-1.030177e+000
3.173341e+003,-3.104447e-001
3.174305e+003,1.241455e+000
3.175269e+003,1.207060e+000
3.176233e+003,-8.863236e-001
3.177198e+003,-2.596652e+000
3.178162e+003,-3.739374e+000
3.179126e+003,-4.203830e+000
3.180090e+003,-3.960999e+000
3.181055e+003,-2.574335e+000
3.182019e+003,-6.821457e-001
3.182983e+003,8.812408e-002
3.183947e+003,1.814270e-002
3.184912e+003,-3.039002e-001
3.185876e+003,-6.057510e-001
3.186840e+003,6.114044e-002
3.187804e+003,6.487061e-001
3.188769e+003,-6.563111e-002
3.189733e+003,-1.187463e+000
3.190697e+003,-2.641089e+000
3.191661e+003,-2.784805e+000
3.192625e+003,-9.453461e-001
3.193590e+003,2.318787e-001
3.194554e+003,-5.829346e-001
3.195518e+003,-1.293242e+000
3.196482e+003,-9.347473e-001
3.197447e+003,-1.160996e-001
3.198411e+003,1.226511e+000
3.199375e+003,1.760355e+000
3.200339e+003,1.559422e+000
3.201303e+003,1.186305e+000
3.202268e+003,8.182114e-001
3.203232e+003,7.985504e-001
3.204196e+003,7.639786e-001
3.205160e+003,-2.592255e-001
3.206125e+003,-1.353778e+000
3.207089e+003,-6.938690e-001
3.208053e+003,5.693756e-001
3.209017e+003,3.203659e-001
3.209982e+003,-1.300735e-001
3.210946e+003,2.962860e-001
3.211910e+003,9.999725e-001
3.212874e+003,1.957722e+000
3.213839e+003,1.823662e+000
3.214803e+003,2.839249e-001
3.215767e+003,-6.932266e-001
3.216731e+003,-3.744339e-001
3.217696e+003,-2.658447e-001
3.218660e+003,-9.778320e-001
3.219624e+003,-1.087500e+000
3.220588e+003,-5.510589e-001
3.221552e+003,-1.348419e-002
3.222517e+003,2.629318e-001
3.223481e+003,-1.055989e+000
3.224445e+003,-2.687306e+000
3.225409e+003,-1.962964e+000
3.226374e+003,-5.643921e-001
3.227338e+003,-6.365143e-001
3.228302e+003,-1.122169e+000
3.229266e+003,-7.164749e-001
3.230230e+003,-7.701721e-002
3.231195e+003,3.671265e-002
3.232159e+003,2.731522e-001
3.233123e+003,1.351830e+000
3.234087e+003,1.368207e+000
3.235052e+003,1.998596e-002
3.236016e+003,-2.682953e-001
3.236980e+003,7.290894e-001
3.237944e+003,9.475738e-001
3.238909e+003,7.070617e-002
3.239873e+003,5.879211e-003
3.240837e+003,7.090271e-001
3.241801e+003,5.099228e-001
3.242766e+003,-2.490799e-001
3.243730e+003,-8.299866e-002
3.244694e+003,3.945572e-001
3.245658e+003,4.658325e-001
3.246623e+003,1.051544e-001
3.247587e+003,-6.927750e-001
3.248551e+003,-1.742470e+000
3.249515e+003,-2.964087e+000
3.250479e+003,-3.308508e+000
3.251444e+003,-1.855904e+000
3.252408e+003,-4.173782e-001
3.253372e+003,-4.544372e-002
3.254336e+003,3.699371e-001
3.255301e+003,9.532089e-001
3.256265e+003,6.533264e-001
3.257229e+003,-3.528488e-001
3.258193e+003,-1.082843e+000
3.259157e+003,-1.452760e+000
3.260122e+003,-1.832854e+000
3.261086e+003,-1.899414e+000
3.262050e+003,-7.848068e-001
3.263014e+003,6.807724e-001
3.263979e+003,4.509811e-001
3.264943e+003,-3.294769e-001
3.265907e+003,-6.591141e-001
3.266871e+003,-3.099899e-001
3.267836e+003,1.450830e+000
3.268800e+003,1.854480e+000
3.269764e+003,1.688812e-001
3.270728e+003,-8.490189e-001
3.271693e+003,-3.332168e-001
3.272657e+003,-5.040695e-001
3.273621e+003,-2.194768e+000
3.274585e+003,-1.282814e+000
3.275550e+003,2.518832e+000
3.276514e+003,3.166638e+000
3.277478e+003,1.755835e+000
3.278442e+003,1.198383e+000
3.279406e+003,9.210724e-001
3.280371e+003,-4.178757e-001
3.281335e+003,-1.936740e+000
3.282299e+003,-2.953029e+000
3.283263e+003,-2.868259e+000
3.284228e+003,-9.870971e-001
3.285192e+003,9.372589e-001
3.286156e+003,1.586658e+000
3.287120e+003,1.543988e+000
3.288084e+003,5.977325e-001
3.289049e+003,7.069489e-001
3.290013e+003,1.826610e+000
3.290977e+003,1.504053e+000
3.291941e+003,1.349091e-001
3.292906e+003,5.011719e-001
3.293870e+003,2.085913e+000
3.294834e+003,1.878952e+000
3.295798e+003,5.652084e-001
3.296763e+003,-3.274948e-001
3.297727e+003,-6.071289e-001
3.298691e+003,5.076141e-001
3.299655e+003,1.805277e+000
3.300620e+003,2.558836e+000
3.301584e+003,2.777005e+000
3.302548e+003,2.436240e+000
3.303512e+003,1.750528e+000
3.304477e+003,9.327240e-001
3.305441e+003,8.346649e-001
3.306405e+003,1.772214e+000
3.307369e+003,2.133501e+000
3.308333e+003,1.781372e+000
3.309298e+003,2.337491e+000
3.310262e+003,3.384790e+000
3.311226e+003,3.780962e+000
3.312190e+003,3.631969e+000
3.313155e+003,3.022566e+000
3.314119e+003,2.076674e+000
3.315083e+003,7.366760e-001
3.316047e+003,1.458984e-001
3.317011e+003,1.305098e+000
3.317976e+003,2.690033e+000
3.318940e+003,3.457257e+000
3.319904e+003,3.284111e+000
3.320868e+003,1.814741e+000
3.321833e+003,1.831201e+000
3.322797e+003,3.188943e+000
3.323761e+003,4.078889e+000
3.324725e+003,4.157474e+000
3.325690e+003,2.659547e+000
3.326654e+003,1.040796e+000
3.327618e+003,2.238831e+000
3.328582e+003,4.773419e+000
3.329547e+003,6.407275e+000
3.330511e+003,6.638785e+000
3.331475e+003,3.348853e+000
3.332439e+003,1.060081e+000
3.333404e+003,2.077087e+000
3.334368e+003,2.433595e+000
3.335332e+003,1.374956e+000
3.336296e+003,7.487396e-001
3.337260e+003,9.187668e-001
3.338225e+003,7.189941e-001
3.339189e+003,-7.733612e-002
3.340153e+003,-8.209823e-001
3.341117e+003,-1.531490e+000
3.342082e+003,-2.909859e+000
3.343046e+003,-3.732014e+000
3.344010e+003,-6.443527e-001
3.344974e+003,1.962988e+000
3.345938e+003,2.941406e-001
3.346903e+003,-1.334119e+000
3.347867e+003,-8.936813e-001
3.348831e+003,-3.413834e-001
3.349795e+003,-7.490174e-001
3.350760e+003,-1.325026e+000
3.351724e+003,-2.076390e+000
3.352688e+003,-1.512177e+000
3.353652e+003,1.725403e-001
3.354617e+003,8.238983e-001
3.355581e+003,7.246002e-001
3.356545e+003,5.903839e-001
3.357509e+003,4.257751e-001
3.358474e+003,7.646485e-002
3.359438e+003,-1.365082e-001
3.360402e+003,8.704834e-002
3.361366e+003,6.525177e-001
3.362331e+003,1.928496e+000
3.363295e+003,2.190006e+000
3.364259e+003,6.495361e-002
3.365223e+003,-6.081284e-001
3.366188e+003,2.610596e-001
3.367152e+003,2.043350e-001
3.368116e+003,-6.688339e-001
3.369080e+003,-7.614242e-001
3.370044e+003,-4.518356e-001
3.371009e+003,-1.351588e+000
3.371973e+003,-2.327742e+000
3.372937e+003,-8.396332e-001
3.373901e+003,1.057533e+000
3.374865e+003,7.983856e-001
3.375830e+003,1.368881e-001
3.376794e+003,-3.265808e-001
3.377758e+003,-4.938965e-001
3.378722e+003,-3.919876e-001
3.379687e+003,-5.414169e-001
3.380651e+003,-8.791351e-001
3.381615e+003,-2.702316e-001
3.382579e+003,1.140309e+000
3.383544e+003,1.485017e+000
3.384508e+003,1.059424e+000
3.385472e+003,9.452530e-001
3.386436e+003,7.049484e-001
3.387401e+003,-8.748703e-001
3.388365e+003,-1.646817e+000
3.389329e+003,-4.460281e-001
3.390293e+003,4.445236e-001
3.391258e+003,1.875198e-001
3.392222e+003,3.561295e-001
3.393186e+003,1.608733e+000
3.394150e+003,2.927553e+000
3.395115e+003,4.192773e+000
3.396079e+003,3.593645e+000
3.397043e+003,1.943547e+000
3.398007e+003,1.599585e+000
3.398971e+003,2.157193e+000
3.399936e+003,3.135963e+000
3.400900e+003,4.331483e+000
3.401864e+003,5.689481e+000
3.402828e+003,6.992948e+000
3.403792e+003,8.127896e+000
3.404757e+003,8.327829e+000
3.405721e+003,6.258380e+000
3.406685e+003,6.305835e+000
3.407649e+003,8.560849e+000
3.408614e+003,1.034517e+001
3.409578e+003,1.162535e+001
3.410542e+003,1.260097e+001
3.411506e+003,1.352302e+001
3.412471e+003,1.491545e+001
3.413435e+003,1.570167e+001
3.414399e+003,1.467622e+001
3.415363e+003,1.404078e+001
3.416328e+003,1.636271e+001
3.417292e+003,1.862353e+001
3.418256e+003,1.995917e+001
3.419220e+003,2.039445e+001
3.420185e+003,2.011422e+001
3.421149e+003,2.022992e+001
3.422113e+003,2.067350e+001
3.423077e+003,2.102382e+001
3.424042e+003,2.099442e+001
3.425006e+003,2.028066e+001
3.425970e+003,1.925132e+001
3.426934e+003,1.861613e+001
