7.140112e+001,1.828153e+002
7.236536e+001,1.738608e+002
7.332959e+001,1.734219e+002
7.429382e+001,1.816419e+002
7.525806e+001,2.001413e+002
7.622229e+001,2.096286e+002
7.718652e+001,1.968154e+002
7.815076e+001,1.499149e+002
7.911499e+001,1.169360e+002
8.007922e+001,9.298344e+001
8.104346e+001,8.052720e+001
8.200769e+001,8.282664e+001
8.297192e+001,1.090203e+002
8.393616e+001,1.407595e+002
8.490039e+001,1.846772e+002
8.586462e+001,2.300282e+002
8.682886e+001,2.592463e+002
8.779310e+001,2.360816e+002
8.875733e+001,1.953394e+002
8.972157e+001,1.542568e+002
9.068580e+001,1.197951e+002
9.165003e+001,9.248122e+001
9.261427e+001,7.951919e+001
9.357850e+001,7.638927e+001
9.454273e+001,7.729922e+001
9.550697e+001,7.874129e+001
9.647120e+001,8.187868e+001
9.743543e+001,8.151456e+001
9.839967e+001,7.647282e+001
9.936390e+001,6.912502e+001
1.003281e+002,6.197297e+001
1.012924e+002,5.336829e+001
1.022566e+002,4.783865e+001
1.032208e+002,4.695001e+001
1.041851e+002,4.976582e+001
1.051493e+002,5.400597e+001
1.061135e+002,6.180645e+001
1.070778e+002,6.701042e+001
1.080420e+002,6.520321e+001
1.090062e+002,5.582900e+001
1.099705e+002,4.272541e+001
1.109347e+002,3.424763e+001
1.118989e+002,2.937153e+001
1.128632e+002,2.950790e+001
1.138274e+002,3.579763e+001
1.147916e+002,4.972332e+001
1.157559e+002,5.597120e+001
1.167201e+002,5.208103e+001
1.176843e+002,4.499595e+001
1.186486e+002,4.330303e+001
1.196128e+002,5.232435e+001
1.205770e+002,5.989988e+001
1.215413e+002,6.790138e+001
1.225055e+002,7.401935e+001
1.234697e+002,7.364275e+001
1.244340e+002,5.452071e+001
1.253982e+002,3.493568e+001
1.263624e+002,1.775813e+001
1.273267e+002,5.318176e+000
1.282909e+002,2.103027e-001
1.292551e+002,1.764788e+001
1.302194e+002,4.208923e+001
1.311836e+002,5.996049e+001
1.321478e+002,6.261621e+001
1.331121e+002,4.972918e+001
1.340763e+002,3.625859e+001
1.350405e+002,2.087578e+001
1.360048e+002,9.244898e+000
1.369690e+002,8.340894e+000
1.379332e+002,2.967416e+001
1.388975e+002,4.327632e+001
1.398617e+002,4.681887e+001
1.408259e+002,4.362098e+001
1.417902e+002,3.894268e+001
1.427544e+002,3.361053e+001
1.437186e+002,2.824349e+001
1.446829e+002,2.225148e+001
1.456471e+002,1.613260e+001
1.466113e+002,1.106688e+001
1.475756e+002,7.045471e+000
1.485398e+002,6.106970e+000
1.495040e+002,1.314467e+001
1.504683e+002,2.885471e+001
1.514325e+002,4.952375e+001
1.523967e+002,5.209074e+001
1.533610e+002,4.085671e+001
1.543252e+002,2.707687e+001
1.552894e+002,1.862355e+001
1.562537e+002,1.744204e+001
1.572179e+002,1.666413e+001
1.581821e+002,1.465642e+001
1.591464e+002,1.388186e+001
1.601106e+002,1.783431e+001
1.610748e+002,3.360798e+001
1.620391e+002,4.273700e+001
1.630033e+002,3.712427e+001
1.639676e+002,2.352050e+001
1.649318e+002,1.265701e+001
1.658960e+002,1.862493e+001
1.668603e+002,2.698159e+001
1.678245e+002,2.694927e+001
1.687887e+002,1.883863e+001
1.697530e+002,7.973731e+000
1.707172e+002,1.043579e+001
1.716814e+002,2.109310e+001
1.726457e+002,2.758499e+001
1.736099e+002,2.504900e+001
1.745741e+002,1.304017e+001
1.755384e+002,4.598523e+000
1.765026e+002,-2.395508e-001
1.774668e+002,-3.092432e+000
1.784311e+002,-4.235657e+000
1.793953e+002,-2.953027e+000
1.803595e+002,-1.675989e+000
1.813238e+002,-1.085425e+000
1.822880e+002,-8.047730e-001
1.832522e+002,-1.030640e-001
1.842165e+002,2.291052e+000
1.851807e+002,2.889709e+000
1.861449e+002,-2.465491e+000
1.871092e+002,-1.052578e+001
1.880734e+002,-1.717941e+001
1.890376e+002,-1.660564e+001
1.900019e+002,-1.018342e+001
1.909661e+002,-2.404492e+000
1.919303e+002,6.249780e+000
1.928946e+002,1.424822e+001
1.938588e+002,1.606953e+001
1.948230e+002,7.001843e+000
1.957873e+002,2.237817e+000
1.967515e+002,5.387353e+000
1.977157e+002,1.628555e+001
1.986800e+002,2.745121e+001
1.996442e+002,3.729502e+001
2.006084e+002,4.770632e+001
2.015727e+002,6.289626e+001
2.025369e+002,8.376715e+001
2.035011e+002,9.577496e+001
2.044654e+002,8.346550e+001
2.054296e+002,6.304961e+001
2.063938e+002,4.196403e+001
2.073581e+002,2.533297e+001
2.083223e+002,1.421930e+001
2.092865e+002,8.431470e+000
2.102508e+002,7.583740e+000
2.112150e+002,1.378210e+001
2.121792e+002,2.950717e+001
2.131435e+002,5.849081e+001
2.141077e+002,7.528911e+001
2.150719e+002,7.664690e+001
2.160362e+002,6.960382e+001
2.170004e+002,6.433386e+001
2.179646e+002,6.261870e+001
2.189289e+002,6.025018e+001
2.198931e+002,5.237189e+001
2.208573e+002,4.373428e+001
2.218216e+002,4.331565e+001
2.227858e+002,6.380249e+001
2.237500e+002,8.798118e+001
2.247143e+002,1.166676e+002
2.256785e+002,1.443266e+002
2.266427e+002,1.609051e+002
2.276070e+002,1.370041e+002
2.285712e+002,9.341760e+001
2.295354e+002,5.571226e+001
2.304997e+002,3.145880e+001
2.314639e+002,1.919207e+001
2.324281e+002,1.056315e+001
2.333924e+002,5.591589e+000
2.343566e+002,2.574914e+000
2.353208e+002,1.355640e+000
2.362851e+002,2.220068e+000
2.372493e+002,3.061731e+000
2.382135e+002,3.631177e+000
2.391778e+002,4.226746e+000
2.401420e+002,5.430017e+000
2.411062e+002,7.707764e+000
2.420705e+002,8.463855e+000
2.430347e+002,5.213098e+000
2.439989e+002,6.813110e-001
2.449632e+002,-3.212671e+000
2.459274e+002,-5.005591e+000
2.468916e+002,-5.222217e+000
2.478559e+002,-5.287707e+000
2.488201e+002,-5.268811e+000
2.497843e+002,-5.436475e+000
2.507486e+002,-6.137158e+000
2.517128e+002,-7.583765e+000
2.526770e+002,-6.619958e+000
2.536413e+002,-2.021387e+000
2.546055e+002,3.751025e+000
2.555697e+002,6.764819e+000
2.565340e+002,4.050672e+000
2.574982e+002,2.533472e+000
2.584625e+002,3.841638e+000
2.594267e+002,6.661231e+000
2.603909e+002,8.589587e+000
2.613552e+002,7.522534e+000
2.623194e+002,5.624695e+000
2.632836e+002,3.358521e+000
2.642479e+002,1.158179e+000
2.652121e+002,-3.732178e-001
2.661763e+002,4.004883e-001
2.671406e+002,1.986645e+000
2.681048e+002,1.721301e+000
2.690690e+002,-7.725220e-001
2.700333e+002,-4.575049e+000
2.709975e+002,-5.722486e+000
2.719617e+002,-3.168506e+000
2.729260e+002,-1.434448e+000
2.738902e+002,-1.760889e+000
2.748544e+002,-4.125244e+000
2.758187e+002,-6.407605e+000
2.767829e+002,-9.420667e+000
2.777471e+002,-1.160524e+001
2.787114e+002,-1.228650e+001
2.796756e+002,-1.133563e+001
2.806398e+002,-9.533252e+000
2.816041e+002,-6.807764e+000
2.825683e+002,-4.057825e+000
2.835325e+002,-1.745361e+000
2.844968e+002,-7.668457e-002
2.854610e+002,1.132727e+000
2.864252e+002,2.788525e+000
2.873895e+002,4.348999e+000
2.883537e+002,4.653979e+000
2.893179e+002,2.978186e+000
2.902822e+002,-7.749146e-001
2.912464e+002,-3.902014e+000
2.922106e+002,-6.646277e+000
2.931749e+002,-8.860950e+000
2.941391e+002,-1.047097e+001
2.951033e+002,-1.148730e+001
2.960676e+002,-1.203582e+001
2.970318e+002,-1.241168e+001
2.979960e+002,-1.209780e+001
2.989603e+002,-1.061935e+001
2.999245e+002,-7.632019e+000
3.008887e+002,-4.229639e+000
3.018530e+002,-7.059814e-001
3.028172e+002,2.508679e+000
3.037814e+002,4.851355e+000
3.047457e+002,5.819837e+000
3.057099e+002,5.962268e+000
3.066741e+002,7.639441e+000
3.076384e+002,1.030319e+001
3.086026e+002,1.180501e+001
3.095668e+002,9.650195e+000
3.105311e+002,2.090942e+000
3.114953e+002,-2.711511e+000
3.124595e+002,-3.851746e+000
3.134238e+002,-3.319629e+000
3.143880e+002,-3.511682e+000
3.153522e+002,-5.620581e+000
3.163165e+002,-6.502820e+000
3.172807e+002,-4.620581e+000
3.182449e+002,-1.628210e+000
3.192092e+002,2.881470e-001
3.201734e+002,-1.243726e+000
3.211376e+002,-2.302856e+000
3.221019e+002,6.420654e-001
3.230661e+002,6.140759e+000
3.240303e+002,1.223804e+001
3.249946e+002,1.685273e+001
3.259588e+002,1.913444e+001
3.269230e+002,1.794247e+001
3.278873e+002,1.313136e+001
3.288515e+002,6.923425e+000
3.298157e+002,3.257568e+000
3.307800e+002,4.115820e+000
3.317442e+002,4.897888e+000
3.327084e+002,4.654675e+000
3.336727e+002,4.392639e+000
3.346369e+002,6.177002e+000
3.356011e+002,1.343210e+001
3.365654e+002,1.854779e+001
3.375296e+002,1.879019e+001
3.384938e+002,1.606200e+001
3.394581e+002,1.335710e+001
3.404223e+002,1.310782e+001
3.413865e+002,1.398234e+001
3.423508e+002,1.476947e+001
3.433150e+002,1.549088e+001
3.442792e+002,1.629941e+001
3.452435e+002,1.734301e+001
3.462077e+002,1.878496e+001
3.471719e+002,2.077929e+001
3.481362e+002,2.247417e+001
3.491004e+002,2.589755e+001
3.500646e+002,3.543736e+001
3.510289e+002,4.824708e+001
3.519931e+002,7.446188e+001
3.529573e+002,1.173859e+002
3.539216e+002,1.728054e+002
3.548858e+002,2.369073e+002
3.558500e+002,3.360535e+002
3.568143e+002,4.018019e+002
3.577785e+002,4.041505e+002
3.587427e+002,3.588963e+002
3.597070e+002,2.925270e+002
3.606712e+002,2.222441e+002
3.616354e+002,1.577246e+002
3.625997e+002,1.092408e+002
3.635639e+002,7.653481e+001
3.645281e+002,5.630428e+001
3.654924e+002,4.290942e+001
3.664566e+002,3.851940e+001
3.674208e+002,3.335155e+001
3.683851e+002,2.671921e+001
3.693493e+002,1.949027e+001
3.703135e+002,1.355488e+001
3.712778e+002,9.236731e+000
3.722420e+002,6.570971e+000
3.732062e+002,5.634851e+000
3.741705e+002,6.201673e+000
3.751347e+002,8.248693e+000
3.760989e+002,1.329053e+001
3.770632e+002,1.746746e+001
3.780274e+002,1.868922e+001
3.789916e+002,1.758957e+001
3.799559e+002,1.525284e+001
3.809201e+002,1.269443e+001
3.818844e+002,1.008059e+001
3.828486e+002,7.365515e+000
3.838128e+002,4.655261e+000
3.847771e+002,2.661170e+000
3.857413e+002,2.466199e+000
3.867055e+002,5.140869e+000
3.876698e+002,7.117822e+000
3.886340e+002,6.597998e+000
3.895982e+002,6.056531e+000
3.905625e+002,9.576526e+000
3.915267e+002,2.207848e+001
3.924909e+002,3.020022e+001
3.934552e+002,3.046732e+001
3.944194e+002,2.644053e+001
3.953836e+002,2.152755e+001
3.963479e+002,1.705770e+001
3.973121e+002,1.402273e+001
3.982763e+002,1.351609e+001
3.992406e+002,1.448199e+001
4.002048e+002,1.543806e+001
4.011690e+002,1.493368e+001
4.021333e+002,1.322476e+001
4.030975e+002,1.284801e+001
4.040617e+002,1.383970e+001
4.050260e+002,1.506384e+001
4.059902e+002,1.517893e+001
4.069544e+002,1.315538e+001
4.079187e+002,1.308746e+001
4.088829e+002,1.644440e+001
4.098471e+002,2.005662e+001
4.108114e+002,2.117214e+001
4.117756e+002,1.844571e+001
4.127398e+002,1.674091e+001
4.137041e+002,1.883978e+001
4.146683e+002,2.191932e+001
4.156325e+002,2.406074e+001
4.165968e+002,2.423217e+001
4.175610e+002,2.325436e+001
4.185252e+002,2.221638e+001
4.194895e+002,2.127209e+001
4.204537e+002,2.037918e+001
4.214179e+002,1.955847e+001
4.223822e+002,1.897330e+001
4.233464e+002,2.208309e+001
4.243106e+002,2.989401e+001
4.252749e+002,3.599818e+001
4.262391e+002,3.576905e+001
4.272033e+002,2.828734e+001
4.281676e+002,2.611063e+001
4.291318e+002,3.278527e+001
4.300960e+002,4.150841e+001
4.310603e+002,4.930653e+001
4.320245e+002,5.603228e+001
4.329887e+002,6.547737e+001
4.339530e+002,7.617255e+001
4.349172e+002,9.465752e+001
4.358814e+002,1.291017e+002
4.368457e+002,1.785218e+002
4.378099e+002,2.353257e+002
4.387741e+002,2.924226e+002
4.397384e+002,3.426763e+002
4.407026e+002,3.605750e+002
4.416668e+002,3.385011e+002
4.426311e+002,2.863120e+002
4.435953e+002,2.366496e+002
4.445595e+002,1.855148e+002
4.455238e+002,1.435525e+002
4.464880e+002,1.129775e+002
4.474522e+002,9.173948e+001
4.484165e+002,7.618864e+001
4.493807e+002,6.913087e+001
4.503449e+002,6.391748e+001
4.513092e+002,5.913125e+001
4.522734e+002,5.444576e+001
4.532376e+002,4.978662e+001
4.542019e+002,4.522042e+001
4.551661e+002,4.053627e+001
4.561303e+002,3.506758e+001
4.570946e+002,2.929468e+001
4.580588e+002,2.412606e+001
4.590230e+002,2.053868e+001
4.599873e+002,1.877053e+001
4.609515e+002,1.824589e+001
4.619157e+002,1.929501e+001
4.628800e+002,2.057167e+001
4.638442e+002,2.068068e+001
4.648084e+002,1.885358e+001
4.657727e+002,1.828335e+001
4.667369e+002,2.021424e+001
4.677011e+002,2.235144e+001
4.686654e+002,2.318523e+001
4.696296e+002,2.221027e+001
4.705938e+002,2.086515e+001
4.715581e+002,2.037440e+001
4.725223e+002,1.990857e+001
4.734865e+002,1.877961e+001
4.744508e+002,1.683606e+001
4.754150e+002,1.461364e+001
4.763792e+002,1.327827e+001
4.773435e+002,1.269424e+001
4.783077e+002,1.310001e+001
4.792719e+002,1.481820e+001
4.802362e+002,1.739574e+001
4.812004e+002,1.811500e+001
4.821646e+002,1.512795e+001
4.831289e+002,1.232976e+001
4.840931e+002,9.236364e+000
4.850573e+002,6.443549e+000
4.860216e+002,5.808362e+000
4.869858e+002,1.105970e+001
4.879500e+002,1.482494e+001
4.889143e+002,1.389924e+001
4.898785e+002,1.007607e+001
4.908427e+002,6.243426e+000
4.918070e+002,4.629865e+000
4.927712e+002,4.580585e+000
4.937354e+002,4.763867e+000
4.946997e+002,5.132886e+000
4.956639e+002,5.638312e+000
4.966281e+002,6.249213e+000
4.975924e+002,6.995154e+000
4.985566e+002,6.388965e+000
4.995208e+002,3.262982e+000
5.004851e+002,7.684754e-001
5.014493e+002,1.881702e+000
5.024135e+002,7.875329e+000
5.033778e+002,1.133566e+001
5.043420e+002,9.662091e+000
5.053063e+002,7.600818e+000
5.062705e+002,7.729517e+000
5.072347e+002,1.028762e+001
5.081990e+002,1.222272e+001
5.091632e+002,9.028180e+000
5.101274e+002,4.944318e+000
5.110917e+002,2.360687e+000
5.120559e+002,1.842517e+000
5.130201e+002,2.712781e+000
5.139844e+002,3.897894e+000
5.149486e+002,5.249713e+000
5.159128e+002,5.901624e+000
5.168771e+002,5.690967e+000
5.178413e+002,4.899640e+000
5.188055e+002,4.097907e+000
5.197698e+002,3.240387e+000
5.207340e+002,2.414673e+000
5.216982e+002,1.835663e+000
5.226625e+002,1.165497e+000
5.236267e+002,-2.548279e-001
5.245909e+002,-3.231427e+000
5.255552e+002,-5.084229e+000
5.265194e+002,-3.678345e+000
5.274836e+002,-1.273413e+000
5.284479e+002,1.690308e-001
5.294121e+002,-4.134827e-001
5.303763e+002,-2.076904e+000
5.313406e+002,-3.352069e+000
5.323048e+002,-4.152887e+000
5.332690e+002,-3.666950e+000
5.342333e+002,-1.402972e+000
5.351975e+002,2.297571e+000
5.361617e+002,4.592950e+000
5.371260e+002,4.984540e+000
5.380902e+002,4.917535e+000
5.390544e+002,4.298047e+000
5.400187e+002,3.258484e+000
5.409829e+002,2.364215e+000
5.419471e+002,1.962097e+000
5.429114e+002,1.640955e+000
5.438756e+002,1.461151e+000
5.448398e+002,1.194824e+000
5.458041e+002,4.586792e-001
5.467683e+002,-1.167859e+000
5.477325e+002,-2.905572e+000
5.486968e+002,-3.861456e+000
5.496610e+002,-4.135492e+000
5.506252e+002,-3.736243e+000
5.515895e+002,-2.664581e+000
5.525537e+002,-9.594055e-001
5.535179e+002,-4.735230e-001
5.544822e+002,-1.465027e+000
5.554464e+002,-2.272101e+000
5.564106e+002,-1.881049e+000
5.573749e+002,-3.121399e-001
5.583391e+002,5.930603e-001
5.593033e+002,4.251465e-001
5.602676e+002,-1.266235e-001
5.612318e+002,-1.454309e+000
5.621960e+002,-3.112994e+000
5.631603e+002,-3.874854e+000
5.641245e+002,-1.911926e+000
5.650887e+002,1.859619e-001
5.660530e+002,2.642822e-003
5.670172e+002,-1.864404e+000
5.679814e+002,-3.925641e+000
5.689457e+002,-4.588043e+000
5.699099e+002,-3.892041e+000
5.708741e+002,-3.277905e+000
5.718384e+002,-2.686298e+000
5.728026e+002,-2.188745e+000
5.737668e+002,-1.916034e+000
5.747311e+002,-1.977020e+000
5.756953e+002,-1.856403e+000
5.766595e+002,-1.104358e+000
5.776238e+002,-6.363831e-001
5.785880e+002,-1.043506e+000
5.795522e+002,-2.218787e+000
5.805165e+002,-3.183051e+000
5.814807e+002,-2.810907e+000
5.824449e+002,-2.396478e+000
5.834092e+002,-3.008453e+000
5.843734e+002,-4.318817e+000
5.853376e+002,-5.273364e+000
5.863019e+002,-4.545648e+000
5.872661e+002,-2.411615e+000
5.882303e+002,-7.685608e-001
5.891946e+002,4.209961e-001
5.901588e+002,8.506225e-001
5.911230e+002,-6.145630e-002
5.920873e+002,-3.094855e+000
5.930515e+002,-4.361773e+000
5.940157e+002,-2.612616e+000
5.949800e+002,-9.238464e-001
5.959442e+002,-1.072888e+000
5.969084e+002,-3.108984e+000
5.978727e+002,-4.848199e+000
5.988369e+002,-4.945722e+000
5.998011e+002,-4.526904e+000
6.007654e+002,-3.627234e+000
6.017296e+002,-2.558386e+000
6.026938e+002,-1.890540e+000
6.036581e+002,-2.441504e+000
6.046223e+002,-3.679907e+000
6.055865e+002,-3.640411e+000
6.065508e+002,-2.405273e+000
6.075150e+002,-1.381226e+000
6.084792e+002,-2.268353e+000
6.094435e+002,-5.906665e+000
6.104077e+002,-6.852771e+000
6.113719e+002,-3.280438e+000
6.123362e+002,1.178589e-001
6.133004e+002,7.915283e-001
6.142646e+002,-1.324493e+000
6.152289e+002,-3.510815e+000
6.161931e+002,-5.134863e+000
6.171573e+002,-6.234399e+000
6.181216e+002,-6.673944e+000
6.190858e+002,-6.484589e+000
6.200500e+002,-5.695337e+000
6.210143e+002,-4.139801e+000
6.219785e+002,-2.397662e+000
6.229427e+002,-1.476697e+000
6.239070e+002,-1.331915e+000
6.248712e+002,-1.755591e+000
6.258354e+002,-2.589728e+000
6.267997e+002,-3.938751e+000
6.277639e+002,-3.729834e+000
6.287281e+002,-6.958984e-001
6.296924e+002,1.712390e+000
6.306566e+002,1.483575e+000
6.316208e+002,-1.100836e+000
6.325851e+002,-2.826477e+000
6.335493e+002,-2.042224e+000
6.345135e+002,-7.296143e-001
6.354778e+002,9.405029e-001
6.364420e+002,2.646088e+000
6.374063e+002,4.095380e+000
6.383705e+002,5.174377e+000
6.393347e+002,5.541186e+000
6.402990e+002,4.501422e+000
6.412632e+002,2.619214e+000
6.422274e+002,1.250977e+000
6.431917e+002,1.428540e+000
6.441559e+002,3.022205e+000
6.451201e+002,3.148358e+000
6.460844e+002,8.029053e-001
6.470486e+002,-8.368775e-001
6.480128e+002,-2.029114e-001
6.489771e+002,2.078284e+000
6.499413e+002,3.268988e+000
6.509055e+002,2.122577e+000
6.518698e+002,6.657959e-001
6.528340e+002,-1.056006e+000
6.537982e+002,-2.536890e+000
6.547625e+002,-3.139533e+000
6.557267e+002,-2.422620e+000
6.566909e+002,-1.201215e+000
6.576552e+002,-6.772644e-001
6.586194e+002,-5.520996e-001
6.595836e+002,-3.930664e-001
6.605479e+002,4.227905e-002
6.615121e+002,7.530335e-001
6.624763e+002,1.627850e+000
6.634406e+002,3.039124e+000
6.644048e+002,3.552435e+000
6.653690e+002,2.399817e+000
6.663333e+002,2.681213e-001
6.672975e+002,-1.584619e+000
6.682617e+002,-3.261298e+000
6.692260e+002,-3.818854e+000
6.701902e+002,-2.294141e+000
6.711544e+002,-3.547424e-001
6.721187e+002,4.768555e-001
6.730829e+002,-2.971435e-001
6.740471e+002,-1.430389e+000
6.750114e+002,-1.088568e+000
6.759756e+002,-6.069946e-002
6.769398e+002,1.035199e+000
6.779041e+002,1.998907e+000
6.788683e+002,2.752618e+000
6.798325e+002,3.156012e+000
6.807968e+002,3.101544e+000
6.817610e+002,3.018732e+000
6.827252e+002,3.078156e+000
6.836895e+002,2.987500e+000
6.846537e+002,2.383752e+000
6.856179e+002,1.126379e+000
6.865822e+002,9.698486e-003
6.875464e+002,-9.260437e-001
6.885106e+002,-1.537024e+000
6.894749e+002,-1.798126e+000
6.904391e+002,-1.663739e+000
6.914034e+002,-9.223022e-001
6.923676e+002,1.175659e+000
6.933318e+002,3.281360e+000
6.942961e+002,3.205780e+000
6.952603e+002,1.457257e+000
6.962245e+002,-1.990418e-001
6.971888e+002,-1.367310e-001
6.981530e+002,1.658038e+000
6.991172e+002,2.122577e+000
7.000815e+002,3.188415e-001
7.010457e+002,-8.230591e-001
7.020099e+002,4.369873e-001
7.029742e+002,3.495239e+000
7.039384e+002,5.258929e+000
7.049026e+002,3.941516e+000
7.058669e+002,2.720056e+000
7.068311e+002,2.357306e+000
7.077953e+002,2.601361e+000
7.087596e+002,3.393518e+000
7.097238e+002,4.796252e+000
7.106880e+002,5.851465e+000
7.116523e+002,3.959143e+000
7.126165e+002,8.735779e-001
7.135807e+002,-5.582581e-001
7.145450e+002,7.353027e-001
7.155092e+002,3.634180e+000
7.164734e+002,5.042951e+000
7.174377e+002,4.037366e+000
7.184019e+002,3.270618e+000
7.193661e+002,3.004767e+000
7.203304e+002,2.727618e+000
7.212946e+002,1.717297e+000
7.222589e+002,-3.513794e-001
7.232231e+002,-1.637323e+000
7.241873e+002,-1.190674e+000
7.251516e+002,-2.189026e-001
7.261158e+002,7.644470e-001
7.270800e+002,1.607996e+000
7.280443e+002,2.466620e+000
7.290085e+002,3.673316e+000
7.299727e+002,4.835602e+000
7.309370e+002,5.304688e+000
7.319012e+002,5.085968e+000
7.328654e+002,4.181433e+000
7.338297e+002,2.489276e+000
7.347939e+002,-8.023071e-002
7.357581e+002,-1.551477e+000
7.367224e+002,-1.431769e+000
7.376866e+002,-1.080511e+000
7.386508e+002,-8.540283e-001
7.396151e+002,-6.555969e-001
7.405793e+002,-1.090698e-001
7.415435e+002,1.385754e+000
7.425078e+002,2.407727e+000
7.434720e+002,2.232892e+000
7.444362e+002,1.355597e+000
7.454005e+002,9.295654e-003
7.463647e+002,-1.592023e+000
7.473289e+002,-2.843433e+000
7.482932e+002,-2.003394e+000
7.492574e+002,1.305664e-001
7.502216e+002,1.598859e+000
7.511859e+002,1.936682e+000
7.521501e+002,1.349054e+000
7.531143e+002,1.008118e-001
7.540786e+002,-2.601544e+000
7.550428e+002,-3.743347e+000
7.560070e+002,-2.358942e+000
7.569713e+002,-7.176148e-001
7.579355e+002,-2.967285e-001
7.588997e+002,-1.131921e+000
7.598640e+002,-1.821893e+000
7.608282e+002,-1.517883e+000
7.617924e+002,-8.459595e-001
7.627567e+002,-1.254700e-001
7.637209e+002,6.749878e-001
7.646851e+002,1.550885e+000
7.656494e+002,2.471387e+000
7.666136e+002,3.747382e+000
7.675778e+002,7.621362e+000
7.685421e+002,1.367565e+001
7.695063e+002,1.754006e+001
7.704705e+002,1.690659e+001
7.714348e+002,1.272389e+001
7.723990e+002,8.707959e+000
7.733632e+002,4.455652e+000
7.743275e+002,1.070447e+000
7.752917e+002,-1.527515e+000
7.762559e+002,-3.172461e+000
7.772202e+002,-3.445587e+000
7.781844e+002,-2.251843e+000
7.791486e+002,-8.273315e-001
7.801129e+002,1.235107e-001
7.810771e+002,5.841980e-001
7.820413e+002,2.020081e-001
7.830056e+002,-8.023071e-001
7.839698e+002,-1.715021e+000
7.849340e+002,-1.701788e+000
7.858983e+002,-8.301452e-001
7.868625e+002,-9.685364e-001
7.878267e+002,-2.567535e+000
7.887910e+002,-3.589368e+000
7.897552e+002,-2.394910e+000
7.907194e+002,6.627930e-001
7.916837e+002,2.538831e+000
7.926479e+002,2.016724e+000
7.936121e+002,1.403754e+000
7.945764e+002,1.356531e+000
7.955406e+002,1.324762e+000
7.965048e+002,4.665650e-001
7.974691e+002,-1.510992e+000
7.984333e+002,-3.413379e+000
7.993975e+002,-3.535211e+000
8.003618e+002,-2.792566e+000
8.013260e+002,-1.800897e+000
8.022902e+002,-7.785522e-001
8.032545e+002,4.377441e-002
8.042187e+002,3.144348e-001
8.051829e+002,-9.992675e-002
8.061472e+002,-1.772156e-001
8.071114e+002,1.806213e-001
8.080756e+002,6.210083e-001
8.090399e+002,9.187073e-001
8.100041e+002,1.146088e+000
8.109683e+002,1.741663e+000
8.119326e+002,3.545233e+000
8.128968e+002,4.673682e+000
8.138610e+002,3.775506e+000
8.148253e+002,2.136310e+000
8.157895e+002,1.354431e+000
8.167537e+002,2.207941e+000
8.177180e+002,3.947955e+000
8.186822e+002,5.473975e+000
8.196464e+002,6.814667e+000
8.206107e+002,7.911658e+000
8.215749e+002,8.705518e+000
8.225391e+002,9.396881e+000
8.235034e+002,1.043196e+001
8.244676e+002,1.230839e+001
8.254318e+002,1.277313e+001
8.263961e+002,1.069122e+001
8.273603e+002,9.015015e+000
8.283245e+002,9.613806e+000
8.292888e+002,1.186844e+001
8.302530e+002,1.313708e+001
8.312172e+002,1.172194e+001
8.321815e+002,9.767462e+000
8.331457e+002,8.763855e+000
8.341099e+002,8.306574e+000
8.350742e+002,7.770673e+000
8.360384e+002,6.852979e+000
8.370026e+002,5.813830e+000
8.379669e+002,5.305951e+000
8.389311e+002,5.340637e+000
8.398953e+002,5.111603e+000
8.408596e+002,4.435687e+000
8.418238e+002,3.616400e+000
8.427880e+002,3.057483e+000
8.437523e+002,2.857617e+000
8.447165e+002,2.473706e+000
8.456807e+002,1.425537e+000
8.466450e+002,6.544250e-001
8.476092e+002,7.551758e-001
8.485734e+002,1.320636e+000
8.495377e+002,1.399786e+000
8.505019e+002,3.168091e-001
8.514661e+002,-8.616516e-001
8.524304e+002,-4.347717e-001
8.533946e+002,7.835388e-001
8.543588e+002,1.637622e+000
8.553231e+002,1.663232e+000
8.562873e+002,9.458740e-001
8.572515e+002,-3.837830e-001
8.582158e+002,-2.938019e+000
8.591800e+002,-3.971442e+000
8.601442e+002,-2.737567e+000
8.611085e+002,-9.622925e-001
8.620727e+002,5.832642e-001
8.630369e+002,1.841974e+000
8.640012e+002,2.317499e+000
8.649654e+002,9.904968e-001
8.659296e+002,-2.139831e-001
8.668939e+002,-6.282837e-001
8.678581e+002,-3.327270e-001
8.688223e+002,7.994507e-001
8.697866e+002,2.720111e+000
8.707508e+002,4.605218e+000
8.717150e+002,4.407080e+000
8.726793e+002,2.571265e+000
8.736435e+002,1.228735e+000
8.746077e+002,7.987671e-001
8.755720e+002,7.020019e-001
8.765362e+002,1.642761e-001
8.775004e+002,-9.601746e-001
8.784647e+002,-1.861157e+000
8.794289e+002,-2.579651e+000
8.803931e+002,-3.074317e+000
8.813574e+002,-2.941418e+000
8.823216e+002,-2.651978e+000
8.832858e+002,-3.391119e+000
8.842501e+002,-6.087195e+000
8.852143e+002,-8.236987e+000
8.861785e+002,-6.189301e+000
8.871428e+002,-2.748663e+000
8.881070e+002,-1.435040e+000
8.890712e+002,-3.054767e+000
8.900355e+002,-5.600732e+000
8.909997e+002,-5.809174e+000
8.919639e+002,-3.162915e+000
8.929282e+002,-1.896301e+000
8.938924e+002,-2.702374e+000
8.948566e+002,-3.725909e+000
8.958209e+002,-4.149896e+000
8.967851e+002,-4.049273e+000
8.977493e+002,-3.720032e+000
8.987136e+002,-3.009192e+000
8.996778e+002,-2.514111e+000
9.006420e+002,-2.504114e+000
9.016063e+002,-2.711932e+000
9.025705e+002,-2.822437e+000
9.035347e+002,-2.772003e+000
9.044990e+002,-2.866302e+000
9.054632e+002,-3.671576e+000
9.064274e+002,-4.951117e+000
9.073917e+002,-5.343256e+000
9.083559e+002,-4.745245e+000
9.093201e+002,-4.451544e+000
9.102844e+002,-5.852997e+000
9.112486e+002,-8.784015e+000
9.122128e+002,-9.922894e+000
9.131771e+002,-7.322833e+000
9.141413e+002,-5.325830e+000
9.151055e+002,-4.313391e+000
9.160698e+002,-4.047278e+000
9.170340e+002,-4.739911e+000
9.179982e+002,-6.340643e+000
9.189625e+002,-7.239075e+000
9.199267e+002,-5.147601e+000
9.208909e+002,-2.446362e+000
9.218552e+002,-1.515210e+000
9.228194e+002,-2.114899e+000
9.237836e+002,-3.053430e+000
9.247479e+002,-3.402124e+000
9.257121e+002,-3.202527e+000
9.266763e+002,-2.638562e+000
9.276406e+002,-1.080859e+000
9.286048e+002,-6.652466e-001
9.295690e+002,-2.462775e+000
9.305333e+002,-4.935840e+000
9.314975e+002,-6.523730e+000
9.324617e+002,-7.107099e+000
9.334260e+002,-6.864703e+000
9.343902e+002,-4.649384e+000
9.353545e+002,-2.690698e+000
9.363187e+002,-2.118073e+000
9.372830e+002,-2.519006e+000
9.382472e+002,-3.026868e+000
9.392114e+002,-3.073859e+000
9.401757e+002,-2.795709e+000
9.411399e+002,-2.637030e+000
9.421041e+002,-2.581500e+000
9.430684e+002,-2.173755e+000
9.440326e+002,-1.315118e+000
9.449968e+002,-2.111145e-001
9.459611e+002,1.165021e+000
9.469253e+002,3.084827e+000
9.478895e+002,3.934650e+000
9.488538e+002,2.462103e+000
9.498180e+002,1.128693e+000
9.507822e+002,5.453247e-001
9.517465e+002,4.934509e-001
9.527107e+002,6.250793e-001
9.536749e+002,8.256592e-001
9.546392e+002,1.091553e+000
9.556034e+002,1.314502e+000
9.565676e+002,1.581555e+000
9.575319e+002,2.235816e+000
9.584961e+002,3.261468e+000
9.594603e+002,4.087207e+000
9.604246e+002,4.052325e+000
9.613888e+002,3.121899e+000
9.623530e+002,2.439276e+000
9.633173e+002,1.327728e+000
9.642815e+002,1.363080e+000
9.652457e+002,3.207147e+000
9.662100e+002,6.156915e+000
9.671742e+002,9.050763e+000
9.681384e+002,1.156793e+001
9.691027e+002,1.534976e+001
9.700669e+002,1.640992e+001
9.710311e+002,2.392383e+001
9.719954e+002,5.000236e+001
9.729596e+002,8.772190e+001
9.739238e+002,1.235189e+002
9.748881e+002,1.477434e+002
9.758523e+002,1.581220e+002
9.768165e+002,1.437879e+002
9.777808e+002,9.837866e+001
9.787450e+002,6.203062e+001
9.797092e+002,4.038671e+001
9.806735e+002,2.776111e+001
9.816377e+002,2.028627e+001
9.826019e+002,1.808571e+001
9.835662e+002,1.673075e+001
9.845304e+002,1.528951e+001
9.854946e+002,1.457261e+001
9.864589e+002,1.542230e+001
9.874231e+002,1.690449e+001
9.883873e+002,1.763144e+001
9.893516e+002,1.715792e+001
9.903158e+002,1.657677e+001
9.912800e+002,1.746326e+001
9.922443e+002,1.979239e+001
9.932085e+002,2.245909e+001
9.941727e+002,2.544367e+001
9.951370e+002,2.897037e+001
9.961012e+002,3.160140e+001
9.970654e+002,3.412003e+001
9.980297e+002,4.265771e+001
9.989939e+002,4.573247e+001
9.999581e+002,7.779932e+001
1.000922e+003,1.429883e+002
1.001887e+003,2.344834e+002
1.002851e+003,3.873842e+002
1.003815e+003,5.741632e+002
1.004779e+003,6.793995e+002
1.005744e+003,6.022606e+002
1.006708e+003,4.335389e+002
1.007672e+003,3.003387e+002
1.008636e+003,1.986532e+002
1.009600e+003,1.281934e+002
1.010565e+003,8.942656e+001
1.011529e+003,7.232760e+001
1.012493e+003,5.806028e+001
1.013457e+003,4.697469e+001
1.014422e+003,3.874965e+001
1.015386e+003,3.395126e+001
1.016350e+003,3.052918e+001
1.017314e+003,2.802666e+001
1.018279e+003,2.614778e+001
1.019243e+003,2.454213e+001
1.020207e+003,2.311934e+001
1.021171e+003,2.200557e+001
1.022135e+003,2.187719e+001
1.023100e+003,2.179362e+001
1.024064e+003,2.043124e+001
1.025028e+003,1.804196e+001
1.025992e+003,1.626742e+001
1.026957e+003,1.663288e+001
1.027921e+003,1.879171e+001
1.028885e+003,2.017733e+001
1.029849e+003,2.092963e+001
1.030814e+003,2.055023e+001
1.031778e+003,1.758684e+001
1.032742e+003,1.433693e+001
1.033706e+003,1.325632e+001
1.034671e+003,1.447940e+001
1.035635e+003,1.583876e+001
1.036599e+003,1.688201e+001
1.037563e+003,1.736325e+001
1.038527e+003,1.666389e+001
1.039492e+003,1.555889e+001
1.040456e+003,1.511544e+001
1.041420e+003,1.567900e+001
1.042384e+003,1.657289e+001
1.043349e+003,1.673889e+001
1.044313e+003,1.621075e+001
1.045277e+003,1.677374e+001
1.046241e+003,1.888797e+001
1.047206e+003,2.059821e+001
1.048170e+003,2.089191e+001
1.049134e+003,2.015510e+001
1.050098e+003,1.915880e+001
1.051063e+003,1.769751e+001
1.052027e+003,1.702680e+001
1.052991e+003,1.830680e+001
1.053955e+003,1.952245e+001
1.054919e+003,1.939453e+001
1.055884e+003,1.828791e+001
1.056848e+003,1.727290e+001
1.057812e+003,1.703629e+001
1.058776e+003,1.732506e+001
1.059741e+003,1.749063e+001
1.060705e+003,1.752761e+001
1.061669e+003,1.797536e+001
1.062633e+003,1.916201e+001
1.063598e+003,1.991991e+001
1.064562e+003,1.856517e+001
1.065526e+003,1.541289e+001
1.066490e+003,1.458350e+001
1.067454e+003,1.845193e+001
1.068419e+003,2.129473e+001
1.069383e+003,2.059291e+001
1.070347e+003,1.931913e+001
1.071311e+003,2.040021e+001
1.072276e+003,2.364137e+001
1.073240e+003,2.624916e+001
1.074204e+003,2.598544e+001
1.075168e+003,2.408571e+001
1.076133e+003,2.342707e+001
1.077097e+003,2.364194e+001
1.078061e+003,2.333717e+001
1.079025e+003,2.189135e+001
1.079990e+003,2.032767e+001
1.080954e+003,2.031003e+001
1.081918e+003,2.216509e+001
1.082882e+003,2.333295e+001
1.083846e+003,2.282498e+001
1.084811e+003,2.258979e+001
1.085775e+003,2.339916e+001
1.086739e+003,2.441412e+001
1.087703e+003,2.478529e+001
1.088668e+003,2.437016e+001
1.089632e+003,2.351976e+001
1.090596e+003,2.206176e+001
1.091560e+003,2.083987e+001
1.092525e+003,2.179910e+001
1.093489e+003,2.436763e+001
1.094453e+003,2.631958e+001
1.095417e+003,2.658926e+001
1.096381e+003,2.607262e+001
1.097346e+003,2.665950e+001
1.098310e+003,2.896128e+001
1.099274e+003,3.017722e+001
1.100238e+003,2.994582e+001
1.101203e+003,2.923615e+001
1.102167e+003,2.752784e+001
1.103131e+003,2.581074e+001
1.104095e+003,2.562313e+001
1.105060e+003,2.727276e+001
1.106024e+003,2.892719e+001
1.106988e+003,2.882763e+001
1.107952e+003,2.808153e+001
1.108917e+003,2.856223e+001
1.109881e+003,2.994767e+001
1.110845e+003,3.074545e+001
1.111809e+003,3.004165e+001
1.112773e+003,2.871096e+001
1.113738e+003,2.908220e+001
1.114702e+003,3.235600e+001
1.115666e+003,3.405491e+001
1.116630e+003,3.353217e+001
1.117595e+003,3.240623e+001
1.118559e+003,3.034843e+001
1.119523e+003,2.840239e+001
1.120487e+003,2.825280e+001
1.121452e+003,3.035249e+001
1.122416e+003,3.292241e+001
1.123380e+003,3.459144e+001
1.124344e+003,3.553752e+001
1.125308e+003,3.603046e+001
1.126273e+003,3.621058e+001
1.127237e+003,3.648052e+001
1.128201e+003,3.709857e+001
1.129165e+003,3.757300e+001
1.130130e+003,3.655901e+001
1.131094e+003,3.301556e+001
1.132058e+003,3.102342e+001
1.133022e+003,3.149691e+001
1.133987e+003,3.213540e+001
1.134951e+003,3.228751e+001
1.135915e+003,3.220359e+001
1.136879e+003,3.226485e+001
1.137844e+003,3.256477e+001
1.138808e+003,3.295565e+001
1.139772e+003,3.308865e+001
1.140736e+003,3.332545e+001
1.141700e+003,3.456786e+001
1.142665e+003,3.648307e+001
1.143629e+003,3.787618e+001
1.144593e+003,3.816590e+001
1.145557e+003,3.783932e+001
1.146522e+003,3.769374e+001
1.147486e+003,3.750631e+001
1.148450e+003,3.790191e+001
1.149414e+003,4.028667e+001
1.150379e+003,4.164822e+001
1.151343e+003,4.028566e+001
1.152307e+003,3.806428e+001
1.153271e+003,3.721714e+001
1.154235e+003,3.806792e+001
1.155200e+003,3.920824e+001
1.156164e+003,3.971563e+001
1.157128e+003,4.012961e+001
1.158092e+003,4.127386e+001
1.159057e+003,4.284411e+001
1.160021e+003,4.410181e+001
1.160985e+003,4.474327e+001
1.161949e+003,4.494781e+001
1.162914e+003,4.496377e+001
1.163878e+003,4.479898e+001
1.164842e+003,4.489585e+001
1.165806e+003,4.548965e+001
1.166771e+003,4.593520e+001
1.167735e+003,4.598277e+001
1.168699e+003,4.599751e+001
1.169663e+003,4.629199e+001
1.170627e+003,4.688521e+001
1.171592e+003,4.768015e+001
1.172556e+003,4.873597e+001
1.173520e+003,4.973957e+001
1.174484e+003,5.021240e+001
1.175449e+003,5.023606e+001
1.176413e+003,4.978730e+001
1.177377e+003,4.884605e+001
1.178341e+003,4.792762e+001
1.179306e+003,4.758185e+001
1.180270e+003,4.781188e+001
1.181234e+003,4.822113e+001
1.182198e+003,4.901948e+001
1.183162e+003,4.947849e+001
1.184127e+003,4.912095e+001
1.185091e+003,4.881887e+001
1.186055e+003,4.922539e+001
1.187019e+003,5.021471e+001
1.187984e+003,5.137871e+001
1.188948e+003,5.250068e+001
1.189912e+003,5.324191e+001
1.190876e+003,5.285279e+001
1.191841e+003,5.196316e+001
1.192805e+003,5.241725e+001
1.193769e+003,5.429623e+001
1.194733e+003,5.549825e+001
1.195698e+003,5.431623e+001
1.196662e+003,5.186488e+001
1.197626e+003,5.126852e+001
1.198590e+003,5.318829e+001
1.199554e+003,5.444816e+001
1.200519e+003,5.372035e+001
1.201483e+003,5.355907e+001
1.202447e+003,5.543742e+001
1.203411e+003,5.800708e+001
1.204376e+003,5.941932e+001
1.205340e+003,5.923487e+001
1.206304e+003,5.868476e+001
1.207268e+003,5.917598e+001
1.208233e+003,6.004883e+001
1.209197e+003,5.796169e+001
1.210161e+003,5.331671e+001
1.211125e+003,5.108027e+001
1.212089e+003,5.342308e+001
1.213054e+003,5.700078e+001
1.214018e+003,5.805873e+001
1.214982e+003,5.695029e+001
1.215946e+003,5.695105e+001
1.216911e+003,5.910465e+001
1.217875e+003,6.080889e+001
1.218839e+003,6.116689e+001
1.219803e+003,6.085633e+001
1.220768e+003,6.016691e+001
1.221732e+003,5.945528e+001
1.222696e+003,5.916157e+001
1.223660e+003,5.949207e+001
1.224625e+003,6.015858e+001
1.225589e+003,6.063462e+001
1.226553e+003,6.085762e+001
1.227517e+003,6.143361e+001
1.228481e+003,6.248997e+001
1.229446e+003,6.373612e+001
1.230410e+003,6.564708e+001
1.231374e+003,6.734070e+001
1.232338e+003,6.687102e+001
1.233303e+003,6.400343e+001
1.234267e+003,6.235503e+001
1.235231e+003,6.408018e+001
1.236195e+003,6.607725e+001
1.237160e+003,6.698305e+001
1.238124e+003,6.686100e+001
1.239088e+003,6.526439e+001
1.240052e+003,6.265344e+001
1.241016e+003,6.091000e+001
1.241981e+003,6.184753e+001
1.242945e+003,6.479653e+001
1.243909e+003,6.670657e+001
1.244873e+003,6.709004e+001
1.245838e+003,6.764711e+001
1.246802e+003,6.876405e+001
1.247766e+003,6.956444e+001
1.248730e+003,6.907640e+001
1.249695e+003,6.801360e+001
1.250659e+003,6.825387e+001
1.251623e+003,7.038043e+001
1.252587e+003,7.195526e+001
1.253552e+003,7.061584e+001
1.254516e+003,6.862300e+001
1.255480e+003,6.825529e+001
1.256444e+003,6.906162e+001
1.257408e+003,6.977816e+001
1.258373e+003,6.993766e+001
1.259337e+003,7.033014e+001
1.260301e+003,7.225334e+001
1.261265e+003,7.578642e+001
1.262230e+003,7.760374e+001
1.263194e+003,7.550246e+001
1.264158e+003,7.436764e+001
1.265122e+003,7.538577e+001
1.266087e+003,7.664250e+001
1.267051e+003,7.662333e+001
1.268015e+003,7.587323e+001
1.268979e+003,7.624669e+001
1.269943e+003,7.849961e+001
1.270908e+003,8.040062e+001
1.271872e+003,7.901589e+001
1.272836e+003,7.591985e+001
1.273800e+003,7.484745e+001
1.274765e+003,7.577336e+001
1.275729e+003,7.764845e+001
1.276693e+003,8.044462e+001
1.277657e+003,8.308681e+001
1.278622e+003,8.362389e+001
1.279586e+003,8.186488e+001
1.280550e+003,8.054303e+001
1.281514e+003,8.011184e+001
1.282479e+003,8.020418e+001
1.283443e+003,8.117674e+001
1.284407e+003,8.206267e+001
1.285371e+003,8.158317e+001
1.286335e+003,8.029195e+001
1.287300e+003,8.013716e+001
1.288264e+003,8.213805e+001
1.289228e+003,8.465798e+001
1.290192e+003,8.493711e+001
1.291157e+003,8.306637e+001
1.292121e+003,8.201624e+001
1.293085e+003,8.149623e+001
1.294049e+003,8.194031e+001
1.295014e+003,8.469887e+001
1.295978e+003,8.784469e+001
1.296942e+003,8.888307e+001
1.297906e+003,8.796741e+001
1.298870e+003,8.705463e+001
1.299835e+003,8.635164e+001
1.300799e+003,8.612406e+001
1.301763e+003,8.676997e+001
1.302727e+003,8.774792e+001
1.303692e+003,8.891738e+001
1.304656e+003,9.017845e+001
1.305620e+003,9.114886e+001
1.306584e+003,9.155699e+001
1.307549e+003,9.164347e+001
1.308513e+003,9.192905e+001
1.309477e+003,9.239034e+001
1.310441e+003,9.271172e+001
1.311406e+003,9.243079e+001
1.312370e+003,9.286444e+001
1.313334e+003,9.537451e+001
1.314298e+003,9.769820e+001
1.315263e+003,9.741942e+001
1.316227e+003,9.520608e+001
1.317191e+003,9.383418e+001
1.318155e+003,9.452505e+001
1.319120e+003,9.541288e+001
1.320084e+003,9.393050e+001
1.321048e+003,9.150726e+001
1.322012e+003,9.169826e+001
1.322976e+003,9.432912e+001
1.323941e+003,9.638097e+001
1.324905e+003,9.633804e+001
1.325869e+003,9.566656e+001
1.326833e+003,9.699339e+001
1.327798e+003,1.002423e+002
1.328762e+003,1.006862e+002
1.329726e+003,9.549339e+001
1.330690e+003,9.201270e+001
1.331655e+003,9.345433e+001
1.332619e+003,9.590707e+001
1.333583e+003,9.705733e+001
1.334547e+003,9.701399e+001
1.335511e+003,9.653851e+001
1.336476e+003,9.603529e+001
1.337440e+003,9.561825e+001
1.338404e+003,9.542535e+001
1.339368e+003,9.555072e+001
1.340333e+003,9.647245e+001
1.341297e+003,9.846212e+001
1.342261e+003,1.001057e+002
1.343225e+003,1.015125e+002
1.344190e+003,1.023296e+002
1.345154e+003,1.018325e+002
1.346118e+003,1.006627e+002
1.347082e+003,1.005935e+002
1.348047e+003,1.020772e+002
1.349011e+003,1.026879e+002
1.349975e+003,9.986450e+001
1.350939e+003,9.694456e+001
1.351903e+003,9.790157e+001
1.352868e+003,1.012265e+002
1.353832e+003,1.039173e+002
1.354796e+003,1.051544e+002
1.355760e+003,1.056760e+002
1.356725e+003,1.061342e+002
1.357689e+003,1.065015e+002
1.358653e+003,1.065943e+002
1.359617e+003,1.063324e+002
1.360582e+003,1.060126e+002
1.361546e+003,1.058264e+002
1.362510e+003,1.053016e+002
1.363474e+003,1.036333e+002
1.364438e+003,1.022051e+002
1.365403e+003,1.026266e+002
1.366367e+003,1.046601e+002
1.367331e+003,1.067006e+002
1.368295e+003,1.077403e+002
1.369260e+003,1.082852e+002
1.370224e+003,1.094358e+002
1.371188e+003,1.112865e+002
1.372152e+003,1.116517e+002
1.373117e+003,1.094131e+002
1.374081e+003,1.081365e+002
1.375045e+003,1.097778e+002
1.376009e+003,1.124724e+002
1.376974e+003,1.144199e+002
1.377938e+003,1.156250e+002
1.378902e+003,1.163023e+002
1.379866e+003,1.163469e+002
1.380830e+003,1.160581e+002
1.381795e+003,1.155368e+002
1.382759e+003,1.148758e+002
1.383723e+003,1.138614e+002
1.384687e+003,1.129055e+002
1.385652e+003,1.130777e+002
1.386616e+003,1.147422e+002
1.387580e+003,1.167848e+002
1.388544e+003,1.177967e+002
1.389509e+003,1.178473e+002
1.390473e+003,1.182863e+002
1.391437e+003,1.195406e+002
1.392401e+003,1.206245e+002
1.393365e+003,1.217717e+002
1.394330e+003,1.221962e+002
1.395294e+003,1.206656e+002
1.396258e+003,1.186387e+002
1.397222e+003,1.179623e+002
1.398187e+003,1.189962e+002
1.399151e+003,1.210528e+002
1.400115e+003,1.235683e+002
1.401079e+003,1.259962e+002
1.402044e+003,1.275251e+002
1.403008e+003,1.281100e+002
1.403972e+003,1.278696e+002
1.404936e+003,1.263761e+002
1.405901e+003,1.254312e+002
1.406865e+003,1.258113e+002
1.407829e+003,1.267283e+002
1.408793e+003,1.276605e+002
1.409757e+003,1.285138e+002
1.410722e+003,1.286322e+002
1.411686e+003,1.274791e+002
1.412650e+003,1.268221e+002
1.413614e+003,1.287900e+002
1.414579e+003,1.313075e+002
1.415543e+003,1.318154e+002
1.416507e+003,1.310398e+002
1.417471e+003,1.309404e+002
1.418436e+003,1.320401e+002
1.419400e+003,1.330840e+002
1.420364e+003,1.325953e+002
1.421328e+003,1.313869e+002
1.422292e+003,1.329775e+002
1.423257e+003,1.386671e+002
1.424221e+003,1.418430e+002
1.425185e+003,1.391580e+002
1.426149e+003,1.364597e+002
1.427114e+003,1.357438e+002
1.428078e+003,1.359257e+002
1.429042e+003,1.351167e+002
1.430006e+003,1.338835e+002
1.430971e+003,1.351301e+002
1.431935e+003,1.401200e+002
1.432899e+003,1.455246e+002
1.433863e+003,1.465049e+002
1.434828e+003,1.434873e+002
1.435792e+003,1.407804e+002
1.436756e+003,1.369945e+002
1.437720e+003,1.358506e+002
1.438684e+003,1.404171e+002
1.439649e+003,1.448628e+002
1.440613e+003,1.451106e+002
1.441577e+003,1.434006e+002
1.442541e+003,1.438847e+002
1.443506e+003,1.468907e+002
1.444470e+003,1.490659e+002
1.445434e+003,1.484171e+002
1.446398e+003,1.470144e+002
1.447363e+003,1.477566e+002
1.448327e+003,1.497174e+002
1.449291e+003,1.506769e+002
1.450255e+003,1.505251e+002
1.451219e+003,1.499387e+002
1.452184e+003,1.489090e+002
1.453148e+003,1.478707e+002
1.454112e+003,1.472434e+002
1.455076e+003,1.470590e+002
1.456041e+003,1.477891e+002
1.457005e+003,1.498659e+002
1.457969e+003,1.519408e+002
1.458933e+003,1.533682e+002
1.459898e+003,1.546433e+002
1.460862e+003,1.563699e+002
1.461826e+003,1.578934e+002
1.462790e+003,1.580374e+002
1.463755e+003,1.568219e+002
1.464719e+003,1.556382e+002
1.465683e+003,1.555362e+002
1.466647e+003,1.560276e+002
1.467611e+003,1.557714e+002
1.468576e+003,1.544168e+002
1.469540e+003,1.544503e+002
1.470504e+003,1.578003e+002
1.471468e+003,1.597977e+002
1.472433e+003,1.585920e+002
1.473397e+003,1.571175e+002
1.474361e+003,1.570987e+002
1.475325e+003,1.581547e+002
1.476290e+003,1.594717e+002
1.477254e+003,1.606875e+002
1.478218e+003,1.618481e+002
1.479182e+003,1.630562e+002
1.480146e+003,1.641168e+002
1.481111e+003,1.643546e+002
1.482075e+003,1.635453e+002
1.483039e+003,1.634757e+002
1.484003e+003,1.644968e+002
1.484968e+003,1.655232e+002
1.485932e+003,1.667608e+002
1.486896e+003,1.678337e+002
1.487860e+003,1.683384e+002
1.488825e+003,1.681809e+002
1.489789e+003,1.672013e+002
1.490753e+003,1.654847e+002
1.491717e+003,1.641094e+002
1.492682e+003,1.638776e+002
1.493646e+003,1.640958e+002
1.494610e+003,1.633917e+002
1.495574e+003,1.621689e+002
1.496538e+003,1.620304e+002
1.497503e+003,1.633751e+002
1.498467e+003,1.643712e+002
1.499431e+003,1.636356e+002
1.500395e+003,1.622767e+002
1.501360e+003,1.615003e+002
1.502324e+003,1.615067e+002
1.503288e+003,1.633426e+002
1.504252e+003,1.677223e+002
1.505217e+003,1.700310e+002
1.506181e+003,1.662604e+002
1.507145e+003,1.619358e+002
1.508109e+003,1.622182e+002
1.509073e+003,1.647171e+002
1.510038e+003,1.650751e+002
1.511002e+003,1.630324e+002
1.511966e+003,1.624684e+002
1.512930e+003,1.662191e+002
1.513895e+003,1.712511e+002
1.514859e+003,1.716925e+002
1.515823e+003,1.674788e+002
1.516787e+003,1.650202e+002
1.517752e+003,1.653479e+002
1.518716e+003,1.656589e+002
1.519680e+003,1.651472e+002
1.520644e+003,1.642972e+002
1.521609e+003,1.629988e+002
1.522573e+003,1.616911e+002
1.523537e+003,1.611698e+002
1.524501e+003,1.613669e+002
1.525465e+003,1.613543e+002
1.526430e+003,1.604983e+002
1.527394e+003,1.590616e+002
1.528358e+003,1.575419e+002
1.529322e+003,1.559920e+002
1.530287e+003,1.549315e+002
1.531251e+003,1.541160e+002
1.532215e+003,1.545887e+002
1.533179e+003,1.580787e+002
1.534144e+003,1.604122e+002
1.535108e+003,1.591479e+002
1.536072e+003,1.564876e+002
1.537036e+003,1.544616e+002
1.538000e+003,1.534370e+002
1.538965e+003,1.534716e+002
1.539929e+003,1.543757e+002
1.540893e+003,1.545182e+002
1.541857e+003,1.518920e+002
1.542822e+003,1.478174e+002
1.543786e+003,1.474866e+002
1.544750e+003,1.525966e+002
1.545714e+003,1.552707e+002
1.546679e+003,1.541734e+002
1.547643e+003,1.524093e+002
1.548607e+003,1.511886e+002
1.549571e+003,1.497903e+002
1.550536e+003,1.463458e+002
1.551500e+003,1.420084e+002
1.552464e+003,1.404309e+002
1.553428e+003,1.426712e+002
1.554392e+003,1.459129e+002
1.555357e+003,1.480283e+002
1.556321e+003,1.489268e+002
1.557285e+003,1.483324e+002
1.558249e+003,1.463966e+002
1.559214e+003,1.447803e+002
1.560178e+003,1.434240e+002
1.561142e+003,1.427385e+002
1.562106e+003,1.436088e+002
1.563071e+003,1.441664e+002
1.564035e+003,1.423779e+002
1.564999e+003,1.394092e+002
1.565963e+003,1.377946e+002
1.566927e+003,1.378654e+002
1.567892e+003,1.384229e+002
1.568856e+003,1.390173e+002
1.569820e+003,1.394969e+002
1.570784e+003,1.401389e+002
1.571749e+003,1.402709e+002
1.572713e+003,1.377572e+002
1.573677e+003,1.327975e+002
1.574641e+003,1.296614e+002
1.575606e+003,1.304648e+002
1.576570e+003,1.315541e+002
1.577534e+003,1.298048e+002
1.578498e+003,1.266593e+002
1.579463e+003,1.246903e+002
1.580427e+003,1.239331e+002
1.581391e+003,1.234625e+002
1.582355e+003,1.229832e+002
1.583319e+003,1.231587e+002
1.584284e+003,1.259445e+002
1.585248e+003,1.282723e+002
1.586212e+003,1.250739e+002
1.587176e+003,1.182699e+002
1.588141e+003,1.135490e+002
1.589105e+003,1.121674e+002
1.590069e+003,1.118767e+002
1.591033e+003,1.114345e+002
1.591998e+003,1.109467e+002
1.592962e+003,1.107993e+002
1.593926e+003,1.108063e+002
1.594890e+003,1.099029e+002
1.595854e+003,1.078889e+002
1.596819e+003,1.061230e+002
1.597783e+003,1.050534e+002
1.598747e+003,1.041917e+002
1.599711e+003,1.028824e+002
1.600676e+003,1.017242e+002
1.601640e+003,1.022437e+002
1.602604e+003,1.038957e+002
1.603568e+003,1.036428e+002
1.604533e+003,1.001116e+002
1.605497e+003,9.610005e+001
1.606461e+003,9.470624e+001
1.607425e+003,9.484721e+001
1.608390e+003,9.310207e+001
1.609354e+003,8.947420e+001
1.610318e+003,8.783421e+001
1.611282e+003,8.946500e+001
1.612246e+003,9.081732e+001
1.613211e+003,9.022811e+001
1.614175e+003,8.882261e+001
1.615139e+003,8.718115e+001
1.616103e+003,8.548787e+001
1.617068e+003,8.392513e+001
1.618032e+003,8.248759e+001
1.618996e+003,8.091005e+001
1.619960e+003,7.891813e+001
1.620925e+003,7.704524e+001
1.621889e+003,7.629155e+001
1.622853e+003,7.648065e+001
1.623817e+003,7.625867e+001
1.624781e+003,7.562415e+001
1.625746e+003,7.513463e+001
1.626710e+003,7.514443e+001
1.627674e+003,7.465969e+001
1.628638e+003,7.282927e+001
1.629603e+003,7.049644e+001
1.630567e+003,6.822777e+001
1.631531e+003,6.616715e+001
1.632495e+003,6.433854e+001
1.633460e+003,6.284122e+001
1.634424e+003,6.210708e+001
1.635388e+003,6.255171e+001
1.636352e+003,6.337324e+001
1.637317e+003,6.318340e+001
1.638281e+003,6.201742e+001
1.639245e+003,6.054354e+001
1.640209e+003,5.861816e+001
1.641173e+003,5.687481e+001
1.642138e+003,5.505791e+001
1.643102e+003,5.421383e+001
1.644066e+003,5.626031e+001
1.645030e+003,5.826400e+001
1.645995e+003,5.669941e+001
1.646959e+003,5.269852e+001
1.647923e+003,4.985961e+001
1.648887e+003,4.925580e+001
1.649852e+003,4.883412e+001
1.650816e+003,4.675065e+001
1.651780e+003,4.407571e+001
1.652744e+003,4.316525e+001
1.653708e+003,4.395073e+001
1.654673e+003,4.477474e+001
1.655637e+003,4.578530e+001
1.656601e+003,4.592958e+001
1.657565e+003,4.408456e+001
1.658530e+003,4.243556e+001
1.659494e+003,4.281583e+001
1.660458e+003,4.348855e+001
1.661422e+003,4.217559e+001
1.662387e+003,3.948519e+001
1.663351e+003,3.775278e+001
1.664315e+003,3.776270e+001
1.665279e+003,3.836093e+001
1.666244e+003,3.886520e+001
1.667208e+003,3.894337e+001
1.668172e+003,3.772120e+001
1.669136e+003,3.523896e+001
1.670100e+003,3.224247e+001
1.671065e+003,2.824411e+001
1.672029e+003,2.617007e+001
1.672993e+003,2.841916e+001
1.673957e+003,3.088946e+001
1.674922e+003,3.085608e+001
1.675886e+003,2.960944e+001
1.676850e+003,2.813353e+001
1.677814e+003,2.678055e+001
1.678779e+003,2.634499e+001
1.679743e+003,2.708674e+001
1.680707e+003,2.780793e+001
1.681671e+003,2.760151e+001
1.682635e+003,2.673191e+001
1.683600e+003,2.547754e+001
1.684564e+003,2.398549e+001
1.685528e+003,2.293915e+001
1.686492e+003,2.234141e+001
1.687457e+003,2.222912e+001
1.688421e+003,2.300361e+001
1.689385e+003,2.365967e+001
1.690349e+003,2.328085e+001
1.691314e+003,2.253211e+001
1.692278e+003,2.230079e+001
1.693242e+003,2.228498e+001
1.694206e+003,2.112452e+001
1.695171e+003,1.834681e+001
1.696135e+003,1.620226e+001
1.697099e+003,1.671344e+001
1.698063e+003,1.797266e+001
1.699027e+003,1.737736e+001
1.699992e+003,1.558050e+001
1.700956e+003,1.458439e+001
1.701920e+003,1.455380e+001
1.702884e+003,1.434739e+001
1.703849e+003,1.354332e+001
1.704813e+003,1.253915e+001
1.705777e+003,1.135853e+001
1.706741e+003,1.047106e+001
1.707706e+003,1.104993e+001
1.708670e+003,1.263300e+001
1.709634e+003,1.320103e+001
1.710598e+003,1.229319e+001
1.711563e+003,1.164004e+001
1.712527e+003,1.266837e+001
1.713491e+003,1.343460e+001
1.714455e+003,1.169210e+001
1.715419e+003,9.004138e+000
1.716384e+003,8.120374e+000
1.717348e+003,8.967402e+000
1.718312e+003,1.000145e+001
1.719276e+003,1.073436e+001
1.720241e+003,1.098779e+001
1.721205e+003,1.060933e+001
1.722169e+003,9.789459e+000
1.723133e+003,8.806091e+000
1.724098e+003,7.707324e+000
1.725062e+003,6.392303e+000
1.726026e+003,4.508832e+000
1.726990e+003,3.629901e+000
1.727954e+003,5.000549e+000
1.728919e+003,6.122284e+000
1.729883e+003,5.339179e+000
1.730847e+003,4.259552e+000
1.731811e+003,4.860574e+000
1.732776e+003,6.390387e+000
1.733740e+003,6.766602e+000
1.734704e+003,5.734827e+000
1.735668e+003,4.890533e+000
1.736633e+003,5.151312e+000
1.737597e+003,5.760431e+000
1.738561e+003,5.753156e+000
1.739525e+003,5.305267e+000
1.740490e+003,5.152173e+000
1.741454e+003,5.621100e+000
1.742418e+003,5.007257e+000
1.743382e+003,1.772757e+000
1.744346e+003,-1.822815e-001
1.745311e+003,8.579651e-001
1.746275e+003,2.099310e+000
1.747239e+003,1.636813e+000
1.748203e+003,6.482941e-001
1.749168e+003,8.616089e-001
1.750132e+003,2.069760e+000
1.751096e+003,2.968896e+000
1.752060e+003,3.017834e+000
1.753025e+003,2.565820e+000
1.753989e+003,1.917636e+000
1.754953e+003,1.292807e+000
1.755917e+003,1.262582e+000
1.756881e+003,1.840018e+000
1.757846e+003,1.810812e+000
1.758810e+003,9.110473e-001
1.759774e+003,2.821655e-001
1.760738e+003,1.512115e-001
1.761703e+003,1.135620e-001
1.762667e+003,2.901001e-002
1.763631e+003,-1.710815e-002
1.764595e+003,1.778900e-001
1.765560e+003,4.520141e-001
1.766524e+003,4.215210e-001
1.767488e+003,6.191712e-002
1.768452e+003,-1.855530e-001
1.769417e+003,-2.645874e-002
1.770381e+003,4.437256e-002
1.771345e+003,-9.213349e-001
1.772309e+003,-2.255624e+000
1.773273e+003,-1.974384e+000
1.774238e+003,-2.840637e-001
1.775202e+003,4.834717e-001
1.776166e+003,-1.512085e-001
1.777130e+003,-9.222718e-002
1.778095e+003,2.140118e+000
1.779059e+003,3.930527e+000
1.780023e+003,2.610495e+000
1.780987e+003,-3.000458e-001
1.781952e+003,-2.622998e+000
1.782916e+003,-4.326016e+000
1.783880e+003,-4.971750e+000
1.784844e+003,-4.288522e+000
1.785808e+003,-3.369455e+000
1.786773e+003,-2.343133e+000
1.787737e+003,-1.596246e+000
1.788701e+003,-1.594800e+000
1.789665e+003,-1.975293e+000
1.790630e+003,-2.194113e+000
1.791594e+003,-2.277271e+000
1.792558e+003,-2.647305e+000
1.793522e+003,-3.355310e+000
1.794487e+003,-3.685113e+000
1.795451e+003,-3.160693e+000
1.796415e+003,-2.109463e+000
1.797379e+003,-8.949738e-001
1.798344e+003,2.670685e-001
1.799308e+003,4.086304e-001
1.800272e+003,-8.813232e-001
1.801236e+003,-1.732239e+000
1.802201e+003,-1.469620e+000
1.803165e+003,-1.722784e+000
1.804129e+003,-3.373962e+000
1.805093e+003,-4.831866e+000
1.806057e+003,-5.227756e+000
1.807022e+003,-5.018106e+000
1.807986e+003,-4.610415e+000
1.808950e+003,-4.130343e+000
1.809914e+003,-3.564990e+000
1.810879e+003,-2.977664e+000
1.811843e+003,-2.596878e+000
1.812807e+003,-2.599469e+000
1.813771e+003,-3.057895e+000
1.814736e+003,-4.337073e+000
1.815700e+003,-6.063785e+000
1.816664e+003,-5.863278e+000
1.817628e+003,-3.440604e+000
1.818593e+003,-2.265887e+000
1.819557e+003,-2.987570e+000
1.820521e+003,-4.076950e+000
1.821485e+003,-5.502753e+000
1.822449e+003,-6.488675e+000
1.823414e+003,-6.216867e+000
1.824378e+003,-5.424579e+000
1.825342e+003,-4.926141e+000
1.826306e+003,-4.693460e+000
1.827271e+003,-4.524734e+000
1.828235e+003,-4.412625e+000
1.829199e+003,-4.028296e+000
1.830163e+003,-2.460147e+000
1.831128e+003,-1.443903e+000
1.832092e+003,-3.435223e+000
1.833056e+003,-6.339407e+000
1.834020e+003,-6.704730e+000
1.834984e+003,-4.972644e+000
1.835949e+003,-3.040677e+000
1.836913e+003,-1.463016e+000
1.837877e+003,-9.512726e-001
1.838841e+003,-1.973602e+000
1.839806e+003,-3.194946e+000
1.840770e+003,-3.077603e+000
1.841734e+003,-2.139743e+000
1.842698e+003,-1.951090e+000
1.843663e+003,-2.631207e+000
1.844627e+003,-2.579785e+000
1.845591e+003,-3.727234e-001
1.846555e+003,2.366882e-001
1.847520e+003,-2.631924e+000
1.848484e+003,-4.880811e+000
1.849448e+003,-4.399594e+000
1.850412e+003,-3.148736e+000
1.851376e+003,-2.521142e+000
1.852341e+003,-2.524625e+000
1.853305e+003,-3.295300e+000
1.854269e+003,-4.423560e+000
1.855233e+003,-4.325571e+000
1.856198e+003,-2.319180e+000
1.857162e+003,-4.211304e-001
1.858126e+003,-8.466309e-001
1.859090e+003,-2.315866e+000
1.860055e+003,-2.087500e+000
1.861019e+003,-5.560669e-001
1.861983e+003,1.042816e-001
1.862947e+003,-2.141388e-001
1.863911e+003,-9.426392e-001
1.864876e+003,-2.066745e+000
1.865840e+003,-2.911917e+000
1.866804e+003,-3.164285e+000
1.867768e+003,-2.918686e+000
1.868733e+003,-2.070081e+000
1.869697e+003,-9.093506e-001
1.870661e+003,-1.433990e-001
1.871625e+003,2.374725e-001
1.872590e+003,7.417908e-002
1.873554e+003,-9.384643e-001
1.874518e+003,-1.845651e+000
1.875482e+003,-2.744907e+000
1.876447e+003,-3.013922e+000
1.877411e+003,-1.591797e+000
1.878375e+003,1.366974e-001
1.879339e+003,4.917633e-001
1.880303e+003,-1.910522e-001
1.881268e+003,-9.456726e-001
1.882232e+003,-1.426031e+000
1.883196e+003,-1.435312e+000
1.884160e+003,-9.218537e-001
1.885125e+003,-7.097107e-001
1.886089e+003,-1.855200e+000
1.887053e+003,-3.654123e+000
1.888017e+003,-3.929330e+000
1.888982e+003,-2.642435e+000
1.889946e+003,-1.969281e+000
1.890910e+003,-2.026868e+000
1.891874e+003,-2.113248e+000
1.892839e+003,-2.224915e+000
1.893803e+003,-2.136658e+000
1.894767e+003,-1.574945e+000
1.895731e+003,-9.093720e-001
1.896695e+003,-5.622986e-001
1.897660e+003,-3.198425e-001
1.898624e+003,4.347229e-001
1.899588e+003,1.547751e+000
1.900552e+003,1.636780e+000
1.901517e+003,1.939392e-001
1.902481e+003,-1.461093e+000
1.903445e+003,-3.577606e+000
1.904409e+003,-4.735983e+000
1.905374e+003,-3.132553e+000
1.906338e+003,-7.390960e-001
1.907302e+003,3.457367e-001
1.908266e+003,1.600250e-001
1.909230e+003,-1.144763e+000
1.910195e+003,-3.066025e+000
1.911159e+003,-4.230859e+000
1.912123e+003,-4.020755e+000
1.913087e+003,-3.034049e+000
1.914052e+003,-1.819595e+000
1.915016e+003,-6.123169e-001
1.915980e+003,1.757294e-001
1.916944e+003,5.371948e-001
1.917909e+003,1.877716e-001
1.918873e+003,-1.030240e+000
1.919837e+003,-1.922675e+000
1.920801e+003,-2.446573e+000
1.921766e+003,-2.481409e+000
1.922730e+003,-1.721829e+000
1.923694e+003,-9.056366e-001
1.924658e+003,-4.906281e-001
1.925622e+003,-3.112946e-001
1.926587e+003,-1.759064e-001
1.927551e+003,-8.816528e-002
1.928515e+003,-1.139740e-001
1.929479e+003,-2.549286e-001
1.930444e+003,-5.425079e-001
1.931408e+003,-1.366672e+000
1.932372e+003,-1.812546e+000
1.933336e+003,-1.036215e+000
1.934301e+003,-1.467926e-001
1.935265e+003,-2.904877e-001
1.936229e+003,-7.244660e-001
1.937193e+003,-2.335388e-001
1.938157e+003,9.266235e-001
1.939122e+003,1.802554e+000
1.940086e+003,2.115814e+000
1.941050e+003,2.020297e+000
1.942014e+003,1.616507e+000
1.942979e+003,1.247421e+000
1.943943e+003,1.422623e+000
1.944907e+003,1.811667e+000
1.945871e+003,1.191211e+000
1.946836e+003,-3.165924e-001
1.947800e+003,-3.778320e-001
1.948764e+003,1.226801e+000
1.949728e+003,2.309000e+000
1.950693e+003,2.392108e+000
1.951657e+003,1.964801e+000
1.952621e+003,1.073740e+000
1.953585e+003,2.591828e-001
1.954549e+003,1.874176e-001
1.955514e+003,4.055206e-001
1.956478e+003,-3.152191e-001
1.957442e+003,-1.860419e+000
1.958406e+003,-2.282245e+000
1.959371e+003,-9.427490e-001
1.960335e+003,-2.016632e-001
1.961299e+003,-1.198395e+000
1.962263e+003,-1.642365e+000
1.963228e+003,-1.577240e-001
1.964192e+003,1.468451e+000
1.965156e+003,2.043262e+000
1.966120e+003,1.961743e+000
1.967084e+003,1.602393e+000
1.968049e+003,1.262082e+000
1.969013e+003,1.341425e+000
1.969977e+003,1.869897e+000
1.970941e+003,2.532635e+000
1.971906e+003,3.191586e+000
1.972870e+003,3.533215e+000
1.973834e+003,3.084140e+000
1.974798e+003,2.260715e+000
1.975763e+003,1.646454e+000
1.976727e+003,1.232364e+000
1.977691e+003,9.039276e-001
1.978655e+003,7.583832e-001
1.979620e+003,1.879877e+000
1.980584e+003,4.433377e+000
1.981548e+003,5.539426e+000
1.982512e+003,3.544614e+000
1.983476e+003,1.174921e+000
1.984441e+003,1.328543e+000
1.985405e+003,2.889081e+000
1.986369e+003,3.178979e+000
1.987333e+003,2.259778e+000
1.988298e+003,1.842807e+000
1.989262e+003,1.859738e+000
1.990226e+003,2.511765e+000
1.991190e+003,4.925149e+000
1.992155e+003,5.923517e+000
1.993119e+003,3.092975e+000
1.994083e+003,7.181000e-001
1.995047e+003,1.878332e+000
1.996011e+003,3.776254e+000
1.996976e+003,3.340198e+000
1.997940e+003,1.465799e+000
1.998904e+003,2.604004e-001
1.999868e+003,-3.804932e-002
2.000833e+003,5.277405e-001
2.001797e+003,2.392871e+000
2.002761e+003,3.876050e+000
2.003725e+003,4.275214e+000
2.004690e+003,4.149676e+000
2.005654e+003,3.473972e+000
2.006618e+003,2.795135e+000
2.007582e+003,2.886969e+000
2.008547e+003,3.272439e+000
2.009511e+003,2.940176e+000
2.010475e+003,2.009607e+000
2.011439e+003,1.427600e+000
2.012403e+003,1.494824e+000
2.013368e+003,1.727017e+000
2.014332e+003,1.805691e+000
2.015296e+003,1.695401e+000
2.016260e+003,1.018719e+000
2.017225e+003,3.547516e-001
2.018189e+003,1.281247e+000
2.019153e+003,3.385245e+000
2.020117e+003,5.358344e+000
2.021082e+003,6.940784e+000
2.022046e+003,7.038620e+000
2.023010e+003,5.434714e+000
2.023974e+003,3.701703e+000
2.024938e+003,2.637781e+000
2.025903e+003,2.126678e+000
2.026867e+003,2.081314e+000
2.027831e+003,2.415433e+000
2.028795e+003,2.959052e+000
2.029760e+003,3.741922e+000
2.030724e+003,4.687747e+000
2.031688e+003,6.115180e+000
2.032652e+003,6.200583e+000
2.033617e+003,4.092694e+000
2.034581e+003,2.511932e+000
2.035545e+003,2.233969e+000
2.036509e+003,2.534305e+000
2.037474e+003,3.311896e+000
2.038438e+003,4.079587e+000
2.039402e+003,4.405255e+000
2.040366e+003,4.373926e+000
2.041330e+003,4.021192e+000
2.042295e+003,3.396295e+000
2.043259e+003,3.252762e+000
2.044223e+003,3.973914e+000
2.045187e+003,4.392016e+000
2.046152e+003,3.723163e+000
2.047116e+003,3.463120e+000
2.048080e+003,4.771890e+000
2.049044e+003,5.976581e+000
2.050009e+003,5.766440e+000
2.050973e+003,4.944251e+000
2.051937e+003,4.463706e+000
2.052901e+003,4.285590e+000
2.053865e+003,3.825961e+000
2.054830e+003,3.098294e+000
2.055794e+003,3.031882e+000
2.056758e+003,4.086230e+000
2.057722e+003,5.351050e+000
2.058687e+003,6.409891e+000
2.059651e+003,7.120935e+000
2.060615e+003,7.304996e+000
2.061579e+003,7.009613e+000
2.062544e+003,5.837683e+000
2.063508e+003,4.543710e+000
2.064472e+003,4.954486e+000
2.065436e+003,6.680804e+000
2.066401e+003,7.518799e+000
2.067365e+003,6.859204e+000
2.068329e+003,5.968811e+000
2.069293e+003,5.673996e+000
2.070258e+003,5.703692e+000
2.071222e+003,5.767892e+000
2.072186e+003,5.895871e+000
2.073150e+003,6.207150e+000
2.074115e+003,6.608566e+000
2.075079e+003,6.676016e+000
2.076043e+003,6.390945e+000
2.077007e+003,5.825769e+000
2.077971e+003,5.059161e+000
2.078936e+003,4.927335e+000
2.079900e+003,5.736630e+000
2.080864e+003,6.422577e+000
2.081828e+003,6.193213e+000
2.082792e+003,5.871737e+000
2.083757e+003,6.703891e+000
2.084721e+003,8.098364e+000
2.085685e+003,7.870810e+000
2.086649e+003,5.951480e+000
2.087614e+003,4.813022e+000
2.088578e+003,4.655615e+000
2.089542e+003,4.264575e+000
2.090506e+003,3.215622e+000
2.091471e+003,2.745206e+000
2.092435e+003,3.387460e+000
2.093399e+003,4.556235e+000
2.094363e+003,6.173242e+000
2.095328e+003,7.644748e+000
2.096292e+003,8.055405e+000
2.097256e+003,7.698212e+000
2.098220e+003,7.703580e+000
2.099185e+003,8.171039e+000
2.100149e+003,8.523450e+000
2.101113e+003,8.958307e+000
2.102077e+003,8.820251e+000
2.103042e+003,7.722022e+000
2.104006e+003,6.580847e+000
2.104970e+003,5.173331e+000
2.105934e+003,4.302695e+000
2.106898e+003,4.873147e+000
2.107863e+003,5.760913e+000
2.108827e+003,5.697852e+000
2.109791e+003,5.145477e+000
2.110755e+003,5.200259e+000
2.111719e+003,5.873596e+000
2.112684e+003,6.409167e+000
2.113648e+003,6.735788e+000
2.114612e+003,6.895346e+000
2.115576e+003,7.120984e+000
2.116541e+003,6.785693e+000
2.117505e+003,5.039343e+000
2.118469e+003,3.446896e+000
2.119433e+003,2.791534e+000
2.120398e+003,2.970126e+000
2.121362e+003,4.529947e+000
2.122326e+003,6.391876e+000
2.123290e+003,6.309378e+000
2.124255e+003,4.604449e+000
2.125219e+003,4.248221e+000
2.126183e+003,6.199695e+000
2.127147e+003,7.625934e+000
2.128112e+003,6.936587e+000
2.129076e+003,5.929361e+000
2.130040e+003,5.376447e+000
2.131004e+003,5.066272e+000
2.131969e+003,5.125000e+000
2.132933e+003,5.041443e+000
2.133897e+003,3.896271e+000
2.134861e+003,2.445578e+000
2.135825e+003,2.168674e+000
2.136790e+003,2.953250e+000
2.137754e+003,3.628406e+000
2.138718e+003,3.815277e+000
2.139682e+003,3.835034e+000
2.140646e+003,3.799561e+000
2.141611e+003,3.924829e+000
2.142575e+003,4.597165e+000
2.143539e+003,5.222678e+000
2.144503e+003,5.286081e+000
2.145468e+003,4.954895e+000
2.146432e+003,4.166257e+000
2.147396e+003,3.266876e+000
2.148360e+003,3.046417e+000
2.149325e+003,3.308713e+000
2.150289e+003,3.001416e+000
2.151253e+003,1.940369e+000
2.152217e+003,1.127246e+000
2.153182e+003,1.148965e+000
2.154146e+003,1.685724e+000
2.155110e+003,2.771048e+000
2.156074e+003,3.694107e+000
2.157039e+003,3.194922e+000
2.158003e+003,2.098297e+000
2.158967e+003,1.724100e+000
2.159931e+003,1.947604e+000
2.160896e+003,2.543811e+000
2.161860e+003,3.215851e+000
2.162824e+003,3.104373e+000
2.163788e+003,2.230875e+000
2.164752e+003,1.939255e+000
2.165717e+003,2.828302e+000
2.166681e+003,3.534970e+000
2.167645e+003,2.764569e+000
2.168609e+003,1.708585e+000
2.169573e+003,2.448892e+000
2.170538e+003,3.817422e+000
2.171502e+003,3.352582e+000
2.172466e+003,1.704736e+000
2.173430e+003,2.387512e-001
2.174395e+003,-7.537934e-001
2.175359e+003,-6.395203e-001
2.176323e+003,3.633423e-001
2.177287e+003,7.199219e-001
2.178252e+003,-1.000732e-001
2.179216e+003,-1.082346e+000
2.180180e+003,-1.491116e+000
2.181144e+003,-1.082080e+000
2.182109e+003,9.049042e-001
2.183073e+003,3.052866e+000
2.184037e+003,1.984775e+000
2.185001e+003,-7.930328e-001
2.185966e+003,-1.269376e+000
2.186930e+003,1.337891e-002
2.187894e+003,6.453583e-001
2.188858e+003,4.264038e-001
2.189823e+003,3.353546e-001
2.190787e+003,6.071625e-001
2.191751e+003,9.246796e-001
2.192715e+003,1.112732e+000
2.193679e+003,6.824921e-001
2.194644e+003,-1.001422e+000
2.195608e+003,-2.784253e+000
2.196572e+003,-2.454446e+000
2.197536e+003,-9.848328e-001
2.198500e+003,-8.616058e-001
2.199465e+003,-1.568924e+000
2.200429e+003,-1.610880e+000
2.201393e+003,-1.015866e+000
2.202357e+003,-2.531250e-001
2.203322e+003,4.428314e-001
2.204286e+003,5.490387e-001
2.205250e+003,-8.277588e-002
2.206214e+003,-1.093704e+000
2.207179e+003,-2.243210e+000
2.208143e+003,-2.856693e+000
2.209107e+003,-1.897791e+000
2.210071e+003,-4.460236e-001
2.211036e+003,-5.816162e-001
2.212000e+003,-1.698673e+000
2.212964e+003,-2.619586e+000
2.213928e+003,-3.164563e+000
2.214893e+003,-2.649087e+000
2.215857e+003,-1.358301e+000
2.216821e+003,-6.085022e-001
2.217785e+003,-7.169830e-001
2.218750e+003,-1.330347e+000
2.219714e+003,-2.176364e+000
2.220678e+003,-2.424399e+000
2.221642e+003,-1.321457e+000
2.222606e+003,1.087830e-001
2.223571e+003,5.939270e-001
2.224535e+003,3.830414e-001
2.225499e+003,-2.048035e-001
2.226463e+003,-1.057248e+000
2.227427e+003,-2.107077e+000
2.228392e+003,-3.160791e+000
2.229356e+003,-3.989606e+000
2.230320e+003,-4.364295e+000
2.231284e+003,-3.388672e+000
2.232249e+003,-1.208340e+000
2.233213e+003,1.803406e-001
2.234177e+003,-2.236114e-001
2.235141e+003,-1.207285e+000
2.236106e+003,-1.881577e+000
2.237070e+003,-2.156842e+000
2.238034e+003,-1.690665e+000
2.238998e+003,-1.011752e+000
2.239963e+003,-7.972412e-001
2.240927e+003,-9.091552e-001
2.241891e+003,-1.278003e+000
2.242855e+003,-1.642349e+000
2.243820e+003,-1.527634e+000
2.244784e+003,-9.452118e-001
2.245748e+003,-1.868439e-001
2.246712e+003,6.333588e-001
2.247677e+003,1.580838e+000
2.248641e+003,2.722476e+000
2.249605e+003,3.637625e+000
2.250569e+003,4.119711e+000
2.251533e+003,3.989761e+000
2.252498e+003,2.640555e+000
2.253462e+003,1.028906e+000
2.254426e+003,-7.861328e-003
2.255390e+003,-5.017731e-001
2.256354e+003,-4.224640e-001
2.257319e+003,-5.346680e-003
2.258283e+003,4.406158e-001
2.259247e+003,8.615265e-001
2.260211e+003,1.371936e+000
2.261176e+003,1.971646e+000
2.262140e+003,2.375034e+000
2.263104e+003,2.530801e+000
2.264068e+003,2.102783e+000
2.265033e+003,3.385285e-001
2.265997e+003,-1.300305e+000
2.266961e+003,-2.028372e+000
2.267925e+003,-2.206146e+000
2.268890e+003,-1.665997e+000
2.269854e+003,-1.140842e+000
2.270818e+003,-1.337915e+000
2.271782e+003,-2.115863e+000
2.272747e+003,-3.508899e+000
2.273711e+003,-5.112494e+000
2.274675e+003,-5.606506e+000
2.275639e+003,-4.726617e+000
2.276604e+003,-3.908493e+000
2.277568e+003,-3.615536e+000
2.278532e+003,-3.179626e+000
2.279496e+003,-1.766299e+000
2.280460e+003,-1.216675e+000
2.281425e+003,-3.092337e+000
2.282389e+003,-4.919769e+000
2.283353e+003,-5.354535e+000
2.284317e+003,-4.931537e+000
2.285281e+003,-3.447476e+000
2.286246e+003,-1.919312e+000
2.287210e+003,-2.522476e+000
2.288174e+003,-4.778223e+000
2.289138e+003,-5.376309e+000
2.290103e+003,-3.726083e+000
2.291067e+003,-3.061716e+000
2.292031e+003,-3.942127e+000
2.292995e+003,-4.726013e+000
2.293960e+003,-5.621887e+000
2.294924e+003,-5.938409e+000
2.295888e+003,-5.125680e+000
2.296852e+003,-4.439432e+000
2.297817e+003,-4.690677e+000
2.298781e+003,-4.908197e+000
2.299745e+003,-4.090634e+000
2.300709e+003,-2.832007e+000
2.301674e+003,-2.064618e+000
2.302638e+003,-1.892786e+000
2.303602e+003,-2.914935e+000
2.304566e+003,-5.322043e+000
2.305531e+003,-6.145776e+000
2.306495e+003,-5.063364e+000
2.307459e+003,-4.767514e+000
2.308423e+003,-5.665881e+000
2.309387e+003,-5.836459e+000
2.310352e+003,-4.698831e+000
2.311316e+003,-4.137824e+000
2.312280e+003,-5.103507e+000
2.313244e+003,-5.901849e+000
2.314208e+003,-5.088715e+000
2.315173e+003,-3.887161e+000
2.316137e+003,-4.054663e+000
2.317101e+003,-5.187750e+000
2.318065e+003,-6.715985e+000
2.319030e+003,-8.168811e+000
2.319994e+003,-6.985727e+000
2.320958e+003,-4.074170e+000
2.321922e+003,-3.538064e+000
2.322887e+003,-5.105170e+000
2.323851e+003,-5.412628e+000
2.324815e+003,-4.131339e+000
2.325779e+003,-3.862405e+000
2.326744e+003,-5.409286e+000
2.327708e+003,-6.530045e+000
2.328672e+003,-5.790344e+000
2.329636e+003,-4.778119e+000
2.330601e+003,-4.949985e+000
2.331565e+003,-5.648273e+000
2.332529e+003,-6.554880e+000
2.333493e+003,-7.163352e+000
2.334458e+003,-6.332657e+000
2.335422e+003,-5.263858e+000
2.336386e+003,-6.014447e+000
2.337350e+003,-7.520364e+000
2.338314e+003,-7.521271e+000
2.339279e+003,-6.306653e+000
2.340243e+003,-5.667926e+000
2.341207e+003,-5.952164e+000
2.342171e+003,-6.347766e+000
2.343135e+003,-6.668069e+000
2.344100e+003,-6.679300e+000
2.345064e+003,-6.166760e+000
2.346028e+003,-5.543228e+000
2.346992e+003,-4.488055e+000
2.347957e+003,-3.914636e+000
2.348921e+003,-4.797580e+000
2.349885e+003,-5.767957e+000
2.350849e+003,-5.635058e+000
2.351814e+003,-5.216339e+000
2.352778e+003,-5.609360e+000
2.353742e+003,-6.467291e+000
2.354706e+003,-6.876770e+000
2.355671e+003,-6.854917e+000
2.356635e+003,-6.989331e+000
2.357599e+003,-7.472735e+000
2.358563e+003,-7.279648e+000
2.359528e+003,-6.025388e+000
2.360492e+003,-5.493896e+000
2.361456e+003,-6.126465e+000
2.362420e+003,-6.331470e+000
2.363385e+003,-5.524127e+000
2.364349e+003,-4.905881e+000
2.365313e+003,-5.130447e+000
2.366277e+003,-5.630121e+000
2.367241e+003,-5.889777e+000
2.368206e+003,-6.105066e+000
2.369170e+003,-6.607892e+000
2.370134e+003,-7.263702e+000
2.371098e+003,-7.826935e+000
2.372063e+003,-8.164871e+000
2.373027e+003,-7.323667e+000
2.373991e+003,-5.758176e+000
2.374955e+003,-5.417544e+000
2.375919e+003,-6.168814e+000
2.376884e+003,-6.922137e+000
2.377848e+003,-7.284622e+000
2.378812e+003,-6.589163e+000
2.379776e+003,-4.895987e+000
2.380741e+003,-4.160452e+000
2.381705e+003,-5.499167e+000
2.382669e+003,-6.766055e+000
2.383633e+003,-6.423148e+000
2.384598e+003,-5.250241e+000
2.385562e+003,-2.850357e+000
2.386526e+003,-1.146399e+000
2.387490e+003,-2.199350e+000
2.388455e+003,-4.129578e+000
2.389419e+003,-5.422091e+000
2.390383e+003,-6.167462e+000
2.391347e+003,-6.746683e+000
2.392312e+003,-7.066937e+000
2.393276e+003,-6.552582e+000
2.394240e+003,-5.367480e+000
2.395204e+003,-5.065759e+000
2.396168e+003,-6.109680e+000
2.397133e+003,-6.547284e+000
2.398097e+003,-5.982797e+000
2.399061e+003,-5.402188e+000
2.400025e+003,-4.712619e+000
2.400990e+003,-4.331796e+000
2.401954e+003,-4.483636e+000
2.402918e+003,-4.626291e+000
2.403882e+003,-4.494058e+000
2.404846e+003,-4.317019e+000
2.405811e+003,-4.258859e+000
2.406775e+003,-4.273566e+000
2.407739e+003,-4.297586e+000
2.408703e+003,-4.461719e+000
2.409668e+003,-5.244235e+000
2.410632e+003,-6.380670e+000
2.411596e+003,-6.310425e+000
2.412560e+003,-5.412558e+000
2.413525e+003,-5.304663e+000
2.414489e+003,-5.916406e+000
2.415453e+003,-6.654816e+000
2.416417e+003,-7.260568e+000
2.417382e+003,-7.298673e+000
2.418346e+003,-6.766464e+000
2.419310e+003,-6.170932e+000
2.420274e+003,-5.755020e+000
2.421239e+003,-5.570578e+000
2.422203e+003,-5.778440e+000
2.423167e+003,-5.757224e+000
2.424131e+003,-4.617810e+000
2.425095e+003,-3.692438e+000
2.426060e+003,-4.016192e+000
2.427024e+003,-4.694748e+000
2.427988e+003,-5.234528e+000
2.428952e+003,-5.612793e+000
2.429917e+003,-5.864551e+000
2.430881e+003,-5.932037e+000
2.431845e+003,-5.752923e+000
2.432809e+003,-5.346832e+000
2.433773e+003,-4.594437e+000
2.434738e+003,-3.495889e+000
2.435702e+003,-3.249115e+000
2.436666e+003,-4.214038e+000
2.437630e+003,-4.663709e+000
2.438595e+003,-4.456482e+000
2.439559e+003,-4.515488e+000
2.440523e+003,-5.030866e+000
2.441487e+003,-4.980957e+000
2.442452e+003,-4.059039e+000
2.443416e+003,-3.115250e+000
2.444380e+003,-2.576843e+000
2.445344e+003,-2.050235e+000
2.446309e+003,-1.193402e+000
2.447273e+003,-4.156464e-001
2.448237e+003,-4.139892e-001
2.449201e+003,-5.113312e-001
2.450166e+003,1.278775e+000
2.451130e+003,3.070914e+000
2.452094e+003,8.815247e-001
2.453058e+003,-2.766364e+000
2.454022e+003,-3.723361e+000
2.454987e+003,-3.089322e+000
2.455951e+003,-3.421619e+000
2.456915e+003,-4.591330e+000
2.457879e+003,-5.322604e+000
2.458844e+003,-5.399127e+000
2.459808e+003,-5.175009e+000
2.460772e+003,-4.676867e+000
2.461736e+003,-4.488275e+000
2.462700e+003,-5.601984e+000
2.463665e+003,-5.585528e+000
2.464629e+003,-2.397409e+000
2.465593e+003,-1.057657e+000
2.466557e+003,-3.680466e+000
2.467522e+003,-5.860474e+000
2.468486e+003,-5.640588e+000
2.469450e+003,-4.967893e+000
2.470414e+003,-5.196143e+000
2.471379e+003,-5.661923e+000
2.472343e+003,-5.642075e+000
2.473307e+003,-5.097507e+000
2.474271e+003,-3.601901e+000
2.475236e+003,-1.877771e+000
2.476200e+003,-2.823154e+000
2.477164e+003,-5.310290e+000
2.478128e+003,-6.105316e+000
2.479093e+003,-5.461316e+000
2.480057e+003,-3.956207e+000
2.481021e+003,-2.250144e+000
2.481985e+003,-1.668460e+000
2.482949e+003,-2.128326e+000
2.483914e+003,-2.426648e+000
2.484878e+003,-2.301123e+000
2.485842e+003,-2.661621e+000
2.486806e+003,-4.053098e+000
2.487771e+003,-4.668139e+000
2.488735e+003,-2.838016e+000
2.489699e+003,-1.765866e+000
2.490663e+003,-3.489755e+000
2.491627e+003,-4.382010e+000
2.492592e+003,-2.134286e+000
2.493556e+003,-3.918182e-001
2.494520e+003,-1.256839e+000
2.495484e+003,-2.514905e+000
2.496449e+003,-2.353320e+000
2.497413e+003,-1.610147e+000
2.498377e+003,-1.453940e+000
2.499341e+003,-1.694287e+000
2.500306e+003,-1.935236e+000
2.501270e+003,-2.071445e+000
2.502234e+003,-1.406952e+000
2.503198e+003,-3.146881e-001
2.504163e+003,-3.249390e-001
2.505127e+003,-1.091278e+000
2.506091e+003,-1.277628e+000
2.507055e+003,-9.442993e-001
2.508020e+003,-8.614838e-001
2.508984e+003,-1.113736e+000
2.509948e+003,-1.311673e+000
2.510912e+003,-1.363184e+000
2.511876e+003,-1.617325e+000
2.512841e+003,-2.434592e+000
2.513805e+003,-2.499976e+000
2.514769e+003,-4.683350e-001
2.515733e+003,8.954865e-001
2.516698e+003,3.782074e-001
2.517662e+003,-2.066742e-001
2.518626e+003,-3.722443e-001
2.519590e+003,-1.890930e-001
2.520554e+003,4.219757e-001
2.521519e+003,1.041428e+000
2.522483e+003,1.375229e+000
2.523447e+003,1.159421e+000
2.524411e+003,-1.313538e-001
2.525376e+003,-1.633728e+000
2.526340e+003,-8.265778e-001
2.527304e+003,1.246765e+000
2.528268e+003,8.894928e-001
2.529233e+003,-6.656372e-001
2.530197e+003,-4.432129e-001
2.531161e+003,1.048499e+000
2.532125e+003,2.763620e+000
2.533090e+003,4.033978e+000
2.534054e+003,3.501483e+000
2.535018e+003,1.643839e+000
2.535982e+003,9.778808e-001
2.536947e+003,1.971225e+000
2.537911e+003,1.925647e+000
2.538875e+003,-5.946045e-001
2.539839e+003,-1.807281e+000
2.540803e+003,-3.473633e-001
2.541768e+003,9.957886e-001
2.542732e+003,2.186746e+000
2.543696e+003,2.607480e+000
2.544660e+003,1.841034e+000
2.545625e+003,1.689624e+000
2.546589e+003,3.114856e+000
2.547553e+003,3.992069e+000
2.548517e+003,2.623581e+000
2.549482e+003,9.540070e-001
2.550446e+003,1.320197e+000
2.551410e+003,2.527292e+000
2.552374e+003,2.867133e+000
2.553339e+003,2.675638e+000
2.554303e+003,2.284888e+000
2.555267e+003,1.866156e+000
2.556231e+003,1.727972e+000
2.557196e+003,1.594965e+000
2.558160e+003,8.650635e-001
2.559124e+003,-5.606079e-003
2.560088e+003,-4.242859e-002
2.561052e+003,5.400360e-001
2.562017e+003,5.414337e-001
2.562981e+003,-6.229553e-002
2.563945e+003,3.371704e-001
2.564909e+003,2.119919e+000
2.565874e+003,2.619501e+000
2.566838e+003,1.571832e+000
2.567802e+003,1.617203e+000
2.568766e+003,2.988251e+000
2.569730e+003,4.057986e+000
2.570695e+003,4.428790e+000
2.571659e+003,3.626840e+000
2.572623e+003,1.754880e+000
2.573587e+003,9.399994e-001
2.574552e+003,2.206744e+000
2.575516e+003,2.471246e+000
2.576480e+003,-1.060254e+000
2.577444e+003,-3.706748e+000
2.578409e+003,-1.432648e+000
2.579373e+003,1.274783e+000
2.580337e+003,2.490280e+000
2.581301e+003,2.844769e+000
2.582266e+003,2.394220e+000
2.583230e+003,1.611575e+000
2.584194e+003,4.459320e-001
2.585158e+003,-4.232086e-001
2.586123e+003,-1.861847e-001
2.587087e+003,5.472870e-001
2.588051e+003,7.481323e-001
2.589015e+003,5.856476e-001
2.589979e+003,4.987884e-001
2.590944e+003,5.235199e-001
2.591908e+003,1.140024e+000
2.592872e+003,1.841272e+000
2.593836e+003,8.960083e-001
2.594801e+003,-7.688659e-001
2.595765e+003,-9.602753e-001
2.596729e+003,1.293945e-002
2.597693e+003,9.905945e-001
2.598657e+003,1.624518e+000
2.599622e+003,1.625043e+000
2.600586e+003,9.586121e-001
2.601550e+003,4.359375e-001
2.602514e+003,2.484985e-001
2.603479e+003,-7.574463e-002
2.604443e+003,-8.289825e-001
2.605407e+003,-6.779358e-001
2.606371e+003,8.425232e-001
2.607336e+003,1.028290e+000
2.608300e+003,-7.530975e-001
2.609264e+003,-1.858545e+000
2.610228e+003,-1.349640e+000
2.611193e+003,-6.099823e-001
2.612157e+003,-4.403259e-001
2.613121e+003,-5.055969e-001
2.614085e+003,-6.810883e-001
2.615050e+003,-4.642792e-001
2.616014e+003,1.331580e+000
2.616978e+003,2.556717e+000
2.617942e+003,1.243994e+000
2.618906e+003,-2.463623e-001
2.619871e+003,-1.888519e-001
2.620835e+003,-1.267090e-001
2.621799e+003,-2.068405e+000
2.622763e+003,-3.273862e+000
2.623728e+003,-6.428497e-001
2.624692e+003,3.043179e+000
2.625656e+003,3.245300e+000
2.626620e+003,1.389957e+000
2.627584e+003,1.330560e+000
2.628549e+003,2.422244e+000
2.629513e+003,2.668359e+000
2.630477e+003,2.291791e+000
2.631441e+003,1.343320e+000
2.632406e+003,4.202026e-001
2.633370e+003,1.131500e+000
2.634334e+003,2.445871e+000
2.635298e+003,1.549051e+000
2.636263e+003,-8.120667e-001
2.637227e+003,-9.677917e-001
2.638191e+003,1.355649e+000
2.639155e+003,2.183530e+000
2.640120e+003,1.117545e+000
2.641084e+003,3.216553e-001
2.642048e+003,-2.663147e-001
2.643012e+003,-4.552490e-001
2.643977e+003,-1.942474e-001
2.644941e+003,2.280365e-001
2.645905e+003,6.829895e-001
2.646869e+003,5.166901e-001
2.647833e+003,-2.905396e-001
2.648798e+003,-6.235718e-001
2.649762e+003,-7.988892e-002
2.650726e+003,4.212158e-001
2.651690e+003,4.412170e-001
2.652655e+003,1.054199e-001
2.653619e+003,-9.502075e-001
2.654583e+003,-1.615027e+000
2.655547e+003,-1.570779e+000
2.656511e+003,-1.024655e+000
2.657476e+003,2.459137e-001
2.658440e+003,1.198032e+000
2.659404e+003,1.393237e+000
2.660368e+003,1.230749e+000
2.661333e+003,9.715332e-001
2.662297e+003,7.933716e-001
2.663261e+003,8.540039e-001
2.664225e+003,9.695770e-001
2.665190e+003,9.685882e-001
2.666154e+003,8.392822e-001
2.667118e+003,8.166504e-002
2.668082e+003,-1.801056e-001
2.669047e+003,2.189993e+000
2.670011e+003,4.255264e+000
2.670975e+003,2.334110e+000
2.671939e+003,-3.624512e-001
2.672904e+003,1.975891e-001
2.673868e+003,1.865597e+000
2.674832e+003,1.498181e+000
2.675796e+003,5.679931e-002
2.676760e+003,1.657929e-001
2.677725e+003,1.197302e+000
2.678689e+003,1.571320e-001
2.679653e+003,-1.827386e+000
2.680617e+003,-1.080841e+000
2.681582e+003,1.056265e+000
2.682546e+003,1.756210e+000
2.683510e+003,1.465930e+000
2.684474e+003,1.529330e+000
2.685438e+003,1.865918e+000
2.686403e+003,1.777737e+000
2.687367e+003,1.262985e+000
2.688331e+003,7.898377e-001
2.689295e+003,4.020935e-001
2.690260e+003,9.167480e-001
2.691224e+003,2.567242e+000
2.692188e+003,2.626968e+000
2.693152e+003,1.138885e+000
2.694117e+003,6.863403e-001
2.695081e+003,1.284686e+000
2.696045e+003,1.138855e+000
2.697009e+003,2.538666e-001
2.697974e+003,3.340332e-001
2.698938e+003,1.590225e+000
2.699902e+003,2.353485e+000
2.700866e+003,2.055560e+000
2.701831e+003,1.634180e+000
2.702795e+003,1.137384e+000
2.703759e+003,9.244263e-001
2.704723e+003,9.066223e-001
2.705688e+003,1.772122e+000
2.706652e+003,3.926770e+000
2.707616e+003,4.214480e+000
2.708580e+003,1.918381e+000
2.709544e+003,-1.688385e-001
2.710509e+003,-9.009491e-001
2.711473e+003,-1.150296e+000
2.712437e+003,-1.420471e+000
2.713401e+003,-1.124704e+000
2.714365e+003,6.032501e-001
2.715330e+003,1.755411e+000
2.716294e+003,9.524170e-001
2.717258e+003,-1.051422e-001
2.718222e+003,-1.038876e+000
2.719187e+003,-1.867685e+000
2.720151e+003,-3.054761e+000
2.721115e+003,-2.551556e+000
2.722079e+003,9.202301e-001
2.723044e+003,3.824109e+000
2.724008e+003,3.494605e+000
2.724972e+003,2.060153e+000
2.725936e+003,1.575583e+000
2.726901e+003,1.572946e+000
2.727865e+003,1.744803e+000
2.728829e+003,1.908511e+000
2.729793e+003,1.670770e+000
2.730758e+003,1.653586e+000
2.731722e+003,3.072272e+000
2.732686e+003,3.809900e+000
2.733650e+003,1.812170e+000
2.734615e+003,-2.694183e-001
2.735579e+003,-1.410553e-001
2.736543e+003,7.684021e-001
2.737507e+003,5.082214e-001
2.738471e+003,-1.471252e-002
2.739436e+003,1.171362e+000
2.740400e+003,2.927023e+000
2.741364e+003,3.336282e+000
2.742328e+003,3.174051e+000
2.743292e+003,3.311759e+000
2.744257e+003,3.430469e+000
2.745221e+003,3.040588e+000
2.746185e+003,2.477618e+000
2.747149e+003,2.140311e+000
2.748114e+003,1.975586e+000
2.749078e+003,1.883719e+000
2.750042e+003,1.967654e+000
2.751006e+003,2.582922e+000
2.751971e+003,3.410477e+000
2.752935e+003,3.204312e+000
2.753899e+003,2.480179e+000
2.754863e+003,2.163507e+000
2.755828e+003,2.354346e+000
2.756792e+003,3.796243e+000
2.757756e+003,5.248025e+000
2.758720e+003,4.418420e+000
2.759685e+003,2.313422e+000
2.760649e+003,1.603464e+000
2.761613e+003,1.818982e+000
2.762577e+003,1.130661e+000
2.763542e+003,-1.960938e-001
2.764506e+003,4.019714e-001
2.765470e+003,2.365363e+000
2.766434e+003,2.383450e+000
2.767398e+003,1.354993e+000
2.768363e+003,2.247662e+000
2.769327e+003,3.838355e+000
2.770291e+003,2.699304e+000
2.771255e+003,-1.828003e-002
2.772219e+003,-7.975891e-001
2.773184e+003,3.433716e-001
2.774148e+003,1.309769e+000
2.775112e+003,1.967596e+000
2.776076e+003,1.166629e+000
2.777041e+003,-1.122488e+000
2.778005e+003,-7.996399e-001
2.778969e+003,1.605206e+000
2.779933e+003,3.546472e+000
2.780898e+003,4.655688e+000
2.781862e+003,4.286548e+000
2.782826e+003,3.054108e+000
2.783790e+003,2.475107e+000
2.784755e+003,2.742011e+000
2.785719e+003,3.548773e+000
2.786683e+003,4.828012e+000
2.787647e+003,5.299954e+000
2.788612e+003,4.905975e+000
2.789576e+003,3.632681e+000
2.790540e+003,1.574506e+000
2.791504e+003,1.393939e+000
2.792469e+003,2.658255e+000
2.793433e+003,2.142740e+000
2.794397e+003,3.065277e-001
2.795361e+003,2.640320e-001
2.796325e+003,2.045285e+000
2.797290e+003,3.648111e+000
2.798254e+003,4.582291e+000
2.799218e+003,3.711646e+000
2.800182e+003,4.474915e-001
2.801146e+003,-8.484009e-001
2.802111e+003,-1.251526e-002
2.803075e+003,2.003845e+000
2.804039e+003,4.828415e+000
2.805003e+003,6.007791e+000
2.805968e+003,5.489334e+000
2.806932e+003,4.367868e+000
2.807896e+003,3.281558e+000
2.808860e+003,3.157355e+000
2.809825e+003,3.976852e+000
2.810789e+003,4.078092e+000
2.811753e+003,2.965057e+000
2.812717e+003,2.040591e+000
2.813682e+003,1.133542e+000
2.814646e+003,1.684366e+000
2.815610e+003,3.657983e+000
2.816574e+003,4.289798e+000
2.817539e+003,3.535983e+000
2.818503e+003,2.555942e+000
2.819467e+003,1.821497e+000
2.820431e+003,2.186939e+000
2.821396e+003,3.545917e+000
2.822360e+003,4.037641e+000
2.823324e+003,3.117603e+000
2.824288e+003,3.044452e+000
2.825252e+003,4.480402e+000
2.826217e+003,4.096841e+000
2.827181e+003,1.824319e+000
2.828145e+003,2.188056e+000
2.829109e+003,4.811615e+000
2.830073e+003,4.717639e+000
2.831038e+003,2.254205e+000
2.832002e+003,2.202148e+000
2.832966e+003,4.860742e+000
2.833930e+003,6.368558e+000
2.834895e+003,5.810431e+000
2.835859e+003,4.858267e+000
2.836823e+003,3.529233e+000
2.837787e+003,2.797690e+000
2.838752e+003,2.720059e+000
2.839716e+003,2.189764e+000
2.840680e+003,1.336768e+000
2.841644e+003,1.695569e+000
2.842609e+003,2.997601e+000
2.843573e+003,3.837842e+000
2.844537e+003,3.884036e+000
2.845501e+003,2.863800e+000
2.846466e+003,8.958740e-001
2.847430e+003,3.305634e-001
2.848394e+003,1.519724e+000
2.849358e+003,2.633759e+000
2.850323e+003,3.684699e+000
2.851287e+003,5.197782e+000
2.852251e+003,6.785718e+000
2.853215e+003,5.250003e+000
2.854179e+003,1.815094e+000
2.855144e+003,1.628378e+000
2.856108e+003,4.121661e+000
2.857072e+003,4.636072e+000
2.858036e+003,2.747427e+000
2.859000e+003,1.704810e+000
2.859965e+003,1.730853e+000
2.860929e+003,2.716562e+000
2.861893e+003,4.683859e+000
2.862857e+003,4.121451e+000
2.863822e+003,1.819257e+000
2.864786e+003,1.736700e+000
2.865750e+003,3.420914e+000
2.866714e+003,5.356799e+000
2.867679e+003,6.583765e+000
2.868643e+003,5.188708e+000
2.869607e+003,1.889926e+000
2.870571e+003,5.411652e-001
2.871536e+003,1.054272e+000
2.872500e+003,1.858350e+000
2.873464e+003,2.856781e+000
2.874428e+003,2.396643e+000
2.875393e+003,9.856628e-001
2.876357e+003,-7.061768e-002
2.877321e+003,-3.777527e-001
2.878285e+003,1.169492e+000
2.879250e+003,3.457889e+000
2.880214e+003,4.675058e+000
2.881178e+003,4.440778e+000
2.882142e+003,2.145126e+000
2.883106e+003,-1.242142e+000
2.884071e+003,-2.018631e+000
2.885035e+003,-6.156586e-001
2.885999e+003,1.252194e+000
2.886963e+003,2.992841e+000
2.887927e+003,2.866647e+000
2.888892e+003,1.929080e+000
2.889856e+003,1.397318e+000
2.890820e+003,1.632095e+000
2.891784e+003,3.795386e+000
2.892749e+003,6.138474e+000
2.893713e+003,5.683044e+000
2.894677e+003,3.861108e+000
2.895641e+003,4.015189e+000
2.896606e+003,5.160776e+000
2.897570e+003,4.515094e+000
2.898534e+003,3.092728e+000
2.899498e+003,1.995236e+000
2.900463e+003,1.615784e+000
2.901427e+003,3.440134e+000
2.902391e+003,5.055682e+000
2.903355e+003,3.068558e+000
2.904320e+003,6.939148e-001
2.905284e+003,1.268726e+000
2.906248e+003,3.123117e+000
2.907212e+003,3.923346e+000
2.908177e+003,4.067554e+000
2.909141e+003,4.092795e+000
2.910105e+003,3.878046e+000
2.911069e+003,2.920434e+000
2.912033e+003,2.131717e+000
2.912998e+003,2.791974e+000
2.913962e+003,3.052167e+000
2.914926e+003,1.496692e+000
2.915890e+003,1.127655e-001
2.916854e+003,3.722748e-001
2.917819e+003,1.183582e+000
2.918783e+003,1.468069e+000
2.919747e+003,1.627353e+000
2.920711e+003,2.289908e+000
2.921676e+003,2.710507e+000
2.922640e+003,1.851166e+000
2.923604e+003,1.564362e+000
2.924568e+003,3.132922e+000
2.925533e+003,3.862003e+000
2.926497e+003,2.586096e+000
2.927461e+003,2.590057e+000
2.928425e+003,5.584796e+000
2.929390e+003,3.928192e+000
2.930354e+003,-8.991183e+000
2.931318e+003,-1.743164e+001
2.932282e+003,-6.692920e+000
2.933247e+003,2.126324e+000
2.934211e+003,2.730563e+000
2.935175e+003,3.799518e+000
2.936139e+003,5.959589e+000
2.937104e+003,6.903104e+000
2.938068e+003,6.275180e+000
2.939032e+003,5.341913e+000
2.939996e+003,4.619073e+000
2.940960e+003,4.293680e+000
2.941925e+003,4.420813e+000
2.942889e+003,4.775955e+000
2.943853e+003,5.925995e+000
2.944817e+003,5.043433e+000
2.945781e+003,1.454675e+000
2.946746e+003,-4.941406e-001
2.947710e+003,-6.534058e-001
2.948674e+003,-2.278503e-001
2.949638e+003,3.875946e-001
2.950603e+003,3.761078e-001
2.951567e+003,2.627563e-003
2.952531e+003,9.079254e-001
2.953495e+003,3.167047e+000
2.954460e+003,4.560425e+000
2.955424e+003,5.037204e+000
2.956388e+003,3.742615e+000
2.957352e+003,1.008206e+000
2.958317e+003,2.009491e-001
2.959281e+003,9.393646e-001
2.960245e+003,2.665585e+000
2.961209e+003,4.267166e+000
2.962174e+003,3.250931e+000
2.963138e+003,1.082165e+000
2.964102e+003,1.735022e+000
2.965066e+003,3.760776e+000
2.966031e+003,3.599332e+000
2.966995e+003,2.207095e+000
2.967959e+003,2.807974e+000
2.968923e+003,4.349228e+000
2.969887e+003,4.716617e+000
2.970852e+003,4.584152e+000
2.971816e+003,4.982687e+000
2.972780e+003,5.171283e+000
2.973744e+003,3.831052e+000
2.974708e+003,2.701267e+000
2.975673e+003,3.355628e+000
2.976637e+003,4.369885e+000
2.977601e+003,4.053604e+000
2.978565e+003,3.069330e+000
2.979530e+003,1.721060e+000
2.980494e+003,1.012439e+000
2.981458e+003,2.648218e+000
2.982422e+003,3.862225e+000
2.983387e+003,2.805002e+000
2.984351e+003,1.793652e+000
2.985315e+003,1.644897e+000
2.986279e+003,1.690369e+000
2.987244e+003,1.588513e+000
2.988208e+003,1.773019e+000
2.989172e+003,2.531546e+000
2.990136e+003,3.183820e+000
2.991101e+003,3.396020e+000
2.992065e+003,3.404102e+000
2.993029e+003,3.152582e+000
2.993993e+003,2.950708e+000
2.994958e+003,2.807105e+000
2.995922e+003,2.505350e+000
2.996886e+003,2.114194e+000
2.997850e+003,2.395996e+000
2.998814e+003,3.264304e+000
2.999779e+003,2.982520e+000
3.000743e+003,1.117407e+000
3.001707e+003,1.232574e+000
3.002671e+003,3.684937e+000
3.003635e+003,8.044147e+000
3.004600e+003,1.386310e+001
3.005564e+003,1.265319e+001
3.006528e+003,6.637906e+000
3.007492e+003,2.674829e+000
3.008457e+003,1.619992e+000
3.009421e+003,4.910040e+000
3.010385e+003,9.525891e+000
3.011349e+003,7.769488e+000
3.012314e+003,2.275433e+000
3.013278e+003,3.234772e-001
3.014242e+003,8.780182e-001
3.015206e+003,1.130136e+000
3.016171e+003,9.871460e-001
3.017135e+003,-3.005890e-001
3.018099e+003,-1.378436e+000
3.019063e+003,-2.111990e+000
3.020028e+003,2.692017e-001
3.020992e+003,9.932703e+000
3.021956e+003,1.692094e+001
3.022920e+003,1.226250e+001
3.023885e+003,3.909726e+000
3.024849e+003,5.741272e-002
3.025813e+003,-1.259518e+000
3.026777e+003,-7.778595e-001
3.027741e+003,-2.468445e-001
3.028706e+003,-8.367890e-001
3.029670e+003,-9.018432e-001
3.030634e+003,1.623962e-001
3.031598e+003,3.343750e-001
3.032563e+003,-9.466400e-001
3.033527e+003,-1.100940e+000
3.034491e+003,8.525940e-001
3.035455e+003,2.656787e+000
3.036420e+003,3.420703e+000
3.037384e+003,3.226526e+000
3.038348e+003,1.611044e+000
3.039312e+003,4.974152e-001
3.040277e+003,-6.002197e-002
3.041241e+003,3.435699e-001
3.042205e+003,1.270886e+000
3.043169e+003,6.264954e-001
3.044134e+003,-1.037274e+000
3.045098e+003,-1.226901e+000
3.046062e+003,2.695007e-002
3.047026e+003,1.040399e+000
3.047990e+003,1.620804e+000
3.048955e+003,4.614624e-001
3.049919e+003,-1.695395e+000
3.050883e+003,-1.325006e+000
3.051847e+003,1.855957e-001
3.052812e+003,7.540466e-001
3.053776e+003,7.920502e-001
3.054740e+003,7.693481e-001
3.055704e+003,7.173309e-001
3.056668e+003,7.430969e-001
3.057633e+003,4.478119e-001
3.058597e+003,-7.624542e-001
3.059561e+003,-1.617670e+000
3.060525e+003,2.951508e-001
3.061490e+003,1.832428e+000
3.062454e+003,-3.053619e-001
3.063418e+003,-2.046341e+000
3.064382e+003,-1.759360e+000
3.065347e+003,-1.191989e+000
3.066311e+003,-7.897736e-001
3.067275e+003,-4.993225e-001
3.068239e+003,-3.389954e-001
3.069204e+003,-9.874328e-001
3.070168e+003,-2.787177e+000
3.071132e+003,-3.459479e+000
3.072096e+003,-1.622171e+000
3.073061e+003,-2.798828e-001
3.074025e+003,5.590515e-001
3.074989e+003,8.529022e-001
3.075953e+003,6.436127e-001
3.076917e+003,1.552887e-001
3.077882e+003,-4.648560e-001
3.078846e+003,-1.067551e+000
3.079810e+003,-1.487521e+000
3.080774e+003,-1.486203e+000
3.081739e+003,-1.067096e+000
3.082703e+003,-6.280518e-003
3.083667e+003,1.235117e+000
3.084631e+003,9.160248e-001
3.085595e+003,-3.057861e-003
3.086560e+003,-1.691132e-001
3.087524e+003,1.573151e-001
3.088488e+003,1.289926e+000
3.089452e+003,1.787585e+000
3.090417e+003,6.386749e-001
3.091381e+003,-9.911682e-001
3.092345e+003,-2.231586e+000
3.093309e+003,-2.843408e+000
3.094274e+003,-2.558392e+000
3.095238e+003,-1.771704e+000
3.096202e+003,1.042541e-001
3.097166e+003,8.819214e-001
3.098131e+003,-7.249145e-002
3.099095e+003,-7.740997e-001
3.100059e+003,-9.380371e-001
3.101023e+003,-1.850629e+000
3.101988e+003,-3.467078e+000
3.102952e+003,-3.855130e+000
3.103916e+003,-2.691238e+000
3.104880e+003,-2.349152e+000
3.105844e+003,-3.130597e+000
3.106809e+003,-1.720084e+000
3.107773e+003,1.509760e+000
3.108737e+003,1.869327e+000
3.109701e+003,3.920380e-001
3.110666e+003,-5.165161e-001
3.111630e+003,-8.652069e-001
3.112594e+003,-5.053772e-001
3.113558e+003,-6.362152e-001
3.114522e+003,-3.122049e+000
3.115487e+003,-5.405795e+000
3.116451e+003,-3.509973e+000
3.117415e+003,-5.518433e-001
3.118379e+003,-1.324884e+000
3.119344e+003,-2.676691e+000
3.120308e+003,-1.682544e+000
3.121272e+003,-1.625088e+000
3.122236e+003,-4.222809e+000
3.123201e+003,-5.384915e+000
3.124165e+003,-3.845783e+000
3.125129e+003,-1.744254e+000
3.126093e+003,-1.564423e-001
3.127058e+003,1.247345e-001
3.128022e+003,-1.469662e+000
3.128986e+003,-1.994632e+000
3.129950e+003,-6.409424e-001
3.130915e+003,1.905243e-001
3.131879e+003,4.348694e-001
3.132843e+003,-1.348294e+000
3.133807e+003,-3.953635e+000
3.134771e+003,-3.768936e+000
3.135736e+003,-1.688464e+000
3.136700e+003,6.438293e-002
3.137664e+003,8.076965e-001
3.138628e+003,-4.641205e-001
3.139593e+003,-2.771677e+000
3.140557e+003,-4.389096e+000
3.141521e+003,-4.904300e+000
3.142485e+003,-2.752817e+000
3.143449e+003,-4.491516e-001
3.144414e+003,5.783142e-001
3.145378e+003,-6.257324e-002
3.146342e+003,-2.893350e+000
3.147306e+003,-4.578888e+000
3.148271e+003,-3.620019e+000
3.149235e+003,-2.685684e+000
3.150199e+003,-3.281183e+000
3.151163e+003,-3.859921e+000
3.152128e+003,-3.408768e+000
3.153092e+003,-3.973447e+000
3.154056e+003,-5.891489e+000
3.155020e+003,-5.133536e+000
3.155985e+003,-2.299798e+000
3.156949e+003,-1.188190e+000
3.157913e+003,-1.760834e+000
3.158877e+003,-2.866135e+000
3.159842e+003,-3.954718e+000
3.160806e+003,-4.298111e+000
3.161770e+003,-3.920096e+000
3.162734e+003,-2.600302e+000
3.163698e+003,-1.069839e+000
3.164663e+003,-9.824707e-001
3.165627e+003,-1.540811e+000
3.166591e+003,-2.403091e+000
3.167555e+003,-2.796787e+000
3.168520e+003,-2.184326e+000
3.169484e+003,-1.680649e+000
3.170448e+003,-1.797928e+000
3.171412e+003,-2.105472e+000
3.172376e+003,-2.354654e+000
3.173341e+003,-2.645041e+000
3.174305e+003,-2.940350e+000
3.175269e+003,-3.681705e+000
3.176233e+003,-5.131818e+000
3.177198e+003,-5.472445e+000
3.178162e+003,-4.723783e+000
3.179126e+003,-3.081482e+000
3.180090e+003,-1.411121e+000
3.181055e+003,-2.081882e+000
3.182019e+003,-4.361160e+000
3.182983e+003,-5.753940e+000
3.183947e+003,-6.060617e+000
3.184912e+003,-4.728537e+000
3.185876e+003,-2.713040e+000
3.186840e+003,-1.761359e+000
3.187804e+003,-1.859592e+000
3.188769e+003,-3.840472e+000
3.189733e+003,-5.580655e+000
3.190697e+003,-6.178236e+000
3.191661e+003,-5.359479e+000
3.192625e+003,-3.019656e+000
3.193590e+003,-2.078238e+000
3.194554e+003,-3.955194e+000
3.195518e+003,-5.203427e+000
3.196482e+003,-3.933963e+000
3.197447e+003,-2.892084e+000
3.198411e+003,-2.270413e+000
3.199375e+003,-2.733005e+000
3.200339e+003,-3.915955e+000
3.201303e+003,-3.352219e+000
3.202268e+003,-1.973294e+000
3.203232e+003,-2.716318e+000
3.204196e+003,-4.663391e+000
3.205160e+003,-5.364844e+000
3.206125e+003,-4.995664e+000
3.207089e+003,-3.677197e+000
3.208053e+003,-2.325665e+000
3.209017e+003,-2.966412e+000
3.209982e+003,-3.754477e+000
3.210946e+003,-3.033478e+000
3.211910e+003,-2.083035e+000
3.212874e+003,-1.284351e+000
3.213839e+003,-8.349762e-001
3.214803e+003,-8.460236e-001
3.215767e+003,-1.842538e+000
3.216731e+003,-3.898099e+000
3.217696e+003,-5.800667e+000
3.218660e+003,-7.252618e+000
3.219624e+003,-7.458130e+000
3.220588e+003,-6.393224e+000
3.221552e+003,-5.166777e+000
3.222517e+003,-3.871310e+000
3.223481e+003,-2.325375e+000
3.224445e+003,-1.229492e+000
3.225409e+003,-2.198611e+000
3.226374e+003,-3.681943e+000
3.227338e+003,-3.890366e+000
3.228302e+003,-3.536548e+000
3.229266e+003,-3.439002e+000
3.230230e+003,-3.462607e+000
3.231195e+003,-3.505350e+000
3.232159e+003,-3.483591e+000
3.233123e+003,-3.406287e+000
3.234087e+003,-3.089645e+000
3.235052e+003,-2.496219e+000
3.236016e+003,-2.959476e+000
3.236980e+003,-4.386847e+000
3.237944e+003,-4.639098e+000
3.238909e+003,-3.422928e+000
3.239873e+003,-2.808374e+000
3.240837e+003,-2.889407e+000
3.241801e+003,-2.872903e+000
3.242766e+003,-2.811664e+000
3.243730e+003,-2.897317e+000
3.244694e+003,-3.149158e+000
3.245658e+003,-3.950847e+000
3.246623e+003,-4.445184e+000
3.247587e+003,-3.665662e+000
3.248551e+003,-3.232895e+000
3.249515e+003,-4.198678e+000
3.250479e+003,-5.198608e+000
3.251444e+003,-5.284264e+000
3.252408e+003,-4.665887e+000
3.253372e+003,-2.226022e+000
3.254336e+003,-2.120172e+000
3.255301e+003,-4.757266e+000
3.256265e+003,-5.738799e+000
3.257229e+003,-5.067148e+000
3.258193e+003,-4.485161e+000
3.259157e+003,-4.241069e+000
3.260122e+003,-4.113917e+000
3.261086e+003,-3.991975e+000
3.262050e+003,-3.674008e+000
3.263014e+003,-3.428107e+000
3.263979e+003,-4.012202e+000
3.264943e+003,-4.815640e+000
3.265907e+003,-5.530171e+000
3.266871e+003,-5.439046e+000
3.267836e+003,-3.720104e+000
3.268800e+003,-2.462466e+000
3.269764e+003,-2.242809e+000
3.270728e+003,-2.784035e+000
3.271693e+003,-3.836398e+000
3.272657e+003,-4.502994e+000
3.273621e+003,-4.461159e+000
3.274585e+003,-3.881194e+000
3.275550e+003,-2.741110e+000
3.276514e+003,-2.981103e+000
3.277478e+003,-4.040947e+000
3.278442e+003,-4.450587e+000
3.279406e+003,-4.474962e+000
3.280371e+003,-4.779269e+000
3.281335e+003,-4.772534e+000
3.282299e+003,-3.841597e+000
3.283263e+003,-2.826189e+000
3.284228e+003,-2.500606e+000
3.285192e+003,-2.525305e+000
3.286156e+003,-2.725291e+000
3.287120e+003,-3.019428e+000
3.288084e+003,-3.631606e+000
3.289049e+003,-3.112698e+000
3.290013e+003,-1.576921e+000
3.290977e+003,-1.477978e+000
3.291941e+003,-2.597340e+000
3.292906e+003,-2.931328e+000
3.293870e+003,-2.535889e+000
3.294834e+003,-2.796809e+000
3.295798e+003,-3.327664e+000
3.296763e+003,-3.111824e+000
3.297727e+003,-2.452461e+000
3.298691e+003,-1.382851e+000
3.299655e+003,-6.967560e-001
3.300620e+003,-1.286453e+000
3.301584e+003,-2.161226e+000
3.302548e+003,-3.093538e+000
3.303512e+003,-3.196698e+000
3.304477e+003,-2.217714e+000
3.305441e+003,-8.843247e-001
3.306405e+003,5.293640e-001
3.307369e+003,6.051407e-001
3.308333e+003,-7.440583e-001
3.309298e+003,-1.130753e+000
3.310262e+003,-8.958923e-001
3.311226e+003,-1.194937e+000
3.312190e+003,-1.494328e+000
3.313155e+003,-5.948334e-001
3.314119e+003,1.943161e-001
3.315083e+003,-1.985001e-001
3.316047e+003,-8.768600e-001
3.317011e+003,-1.138916e+000
3.317976e+003,-9.976104e-001
3.318940e+003,-2.458694e-001
3.319904e+003,3.983459e-001
3.320868e+003,1.034987e+000
3.321833e+003,1.095474e-001
3.322797e+003,-1.959770e+000
3.323761e+003,-1.920372e+000
3.324725e+003,-4.125992e-001
3.325690e+003,-3.600098e-001
3.326654e+003,-1.091713e+000
3.327618e+003,-3.714142e-001
3.328582e+003,7.605240e-001
3.329547e+003,2.119202e-001
3.330511e+003,-8.145736e-001
3.331475e+003,-1.180914e+000
3.332439e+003,-1.142247e+000
3.333404e+003,-6.583618e-001
3.334368e+003,-3.848144e-001
3.335332e+003,-4.307388e-001
3.336296e+003,-3.987152e-001
3.337260e+003,-2.811081e-001
3.338225e+003,-7.918869e-001
3.339189e+003,-1.896411e+000
3.340153e+003,-1.728661e+000
3.341117e+003,-5.914170e-001
3.342082e+003,-2.487488e-002
3.343046e+003,7.599334e-002
3.344010e+003,-4.269958e-001
3.344974e+003,-8.470947e-001
3.345938e+003,-6.885880e-001
3.346903e+003,-2.649170e-001
3.347867e+003,2.650757e-001
3.348831e+003,7.524292e-001
3.349795e+003,1.128130e+000
3.350760e+003,6.093109e-001
3.351724e+003,-1.771698e+000
3.352688e+003,-1.980226e+000
3.353652e+003,-2.804901e-001
3.354617e+003,6.015655e-001
3.355581e+003,7.915176e-001
3.356545e+003,5.961960e-001
3.357509e+003,5.424774e-001
3.358474e+003,1.430843e+000
3.359438e+003,1.912816e+000
3.360402e+003,5.759186e-001
3.361366e+003,-2.546814e-001
3.362331e+003,2.455718e+000
3.363295e+003,4.124620e+000
3.364259e+003,2.567781e+000
3.365223e+003,1.270865e+000
3.366188e+003,5.017685e-001
3.367152e+003,-2.389267e-001
3.368116e+003,-7.533981e-001
3.369080e+003,6.087036e-002
3.370044e+003,1.589471e+000
3.371009e+003,2.132242e+000
3.371973e+003,1.916534e+000
3.372937e+003,9.815582e-001
3.373901e+003,2.890182e-001
3.374865e+003,1.448085e+000
3.375830e+003,2.534302e+000
3.376794e+003,2.857750e+000
3.377758e+003,2.569357e+000
3.378722e+003,1.813898e+000
3.379687e+003,1.632736e+000
3.380651e+003,2.174733e+000
3.381615e+003,2.715201e+000
3.382579e+003,3.105351e+000
3.383544e+003,3.417265e+000
3.384508e+003,3.591191e+000
3.385472e+003,3.175873e+000
3.386436e+003,2.791554e+000
3.387401e+003,3.323071e+000
3.388365e+003,3.972169e+000
3.389329e+003,4.387131e+000
3.390293e+003,4.435174e+000
3.391258e+003,4.089034e+000
3.392222e+003,3.516914e+000
3.393186e+003,2.804938e+000
3.394150e+003,3.039549e+000
3.395115e+003,4.293890e+000
3.396079e+003,5.193128e+000
3.397043e+003,5.837677e+000
3.398007e+003,6.707639e+000
3.398971e+003,7.426829e+000
3.399936e+003,7.270952e+000
3.400900e+003,6.859294e+000
3.401864e+003,6.567927e+000
3.402828e+003,6.471544e+000
3.403792e+003,6.647806e+000
3.404757e+003,6.677446e+000
3.405721e+003,6.218572e+000
3.406685e+003,5.811234e+000
3.407649e+003,5.474814e+000
3.408614e+003,6.182483e+000
3.409578e+003,7.369269e+000
3.410542e+003,7.475682e+000
3.411506e+003,6.844937e+000
3.412471e+003,5.839429e+000
3.413435e+003,5.777536e+000
3.414399e+003,8.099390e+000
3.415363e+003,1.041130e+001
3.416328e+003,1.045862e+001
3.417292e+003,9.469637e+000
3.418256e+003,7.260293e+000
3.419220e+003,6.430916e+000
3.420185e+003,7.040451e+000
3.421149e+003,8.428279e+000
3.422113e+003,9.807463e+000
3.423077e+003,9.197635e+000
3.424042e+003,7.773326e+000
3.425006e+003,7.910533e+000
3.425970e+003,8.797175e+000
3.426934e+003,9.365750e+000
