7.140112e+001,8.808472e+001
7.236536e+001,8.365666e+001
7.332959e+001,8.267478e+001
7.429382e+001,8.575710e+001
7.525806e+001,9.354266e+001
7.622229e+001,9.771206e+001
7.718652e+001,9.263399e+001
7.815076e+001,7.345821e+001
7.911499e+001,5.994216e+001
8.007922e+001,4.927180e+001
8.104346e+001,4.376460e+001
8.200769e+001,4.620045e+001
8.297192e+001,6.269057e+001
8.393616e+001,8.035982e+001
8.490039e+001,1.006271e+002
8.586462e+001,1.194029e+002
8.682886e+001,1.303370e+002
8.779310e+001,1.192927e+002
8.875733e+001,1.002401e+002
8.972157e+001,7.915218e+001
9.068580e+001,5.898702e+001
9.165003e+001,4.099072e+001
9.261427e+001,3.342986e+001
9.357850e+001,3.304656e+001
9.454273e+001,3.593746e+001
9.550697e+001,3.993247e+001
9.647120e+001,4.659745e+001
9.743543e+001,4.790115e+001
9.839967e+001,4.215826e+001
9.936390e+001,3.303312e+001
1.003281e+002,2.449537e+001
1.012924e+002,1.529388e+001
1.022566e+002,9.464685e+000
1.032208e+002,8.771814e+000
1.041851e+002,1.193485e+001
1.051493e+002,1.597670e+001
1.061135e+002,1.976272e+001
1.070778e+002,2.229205e+001
1.080420e+002,2.269525e+001
1.090062e+002,2.086615e+001
1.099705e+002,1.756248e+001
1.109347e+002,1.356024e+001
1.118989e+002,9.555652e+000
1.128632e+002,7.335620e+000
1.138274e+002,8.241980e+000
1.147916e+002,1.299935e+001
1.157559e+002,1.501018e+001
1.167201e+002,1.339152e+001
1.176843e+002,1.071103e+001
1.186486e+002,1.015386e+001
1.196128e+002,1.389448e+001
1.205770e+002,1.684496e+001
1.215413e+002,1.948041e+001
1.225055e+002,2.113910e+001
1.234697e+002,2.053862e+001
1.244340e+002,1.357928e+001
1.253982e+002,6.521863e+000
1.263624e+002,1.397217e-001
1.273267e+002,-4.679090e+000
1.282909e+002,-6.609802e+000
1.292551e+002,1.252246e+000
1.302194e+002,1.216165e+001
1.311836e+002,2.023529e+001
1.321478e+002,2.170081e+001
1.331121e+002,1.632940e+001
1.340763e+002,1.031282e+001
1.350405e+002,3.346582e+000
1.360048e+002,-2.678699e+000
1.369690e+002,-5.802173e+000
1.379332e+002,-4.567908e+000
1.388975e+002,-1.680200e+000
1.398617e+002,4.355481e+000
1.408259e+002,1.133904e+001
1.417902e+002,1.588058e+001
1.427544e+002,1.562142e+001
1.437186e+002,1.342639e+001
1.446829e+002,8.565869e+000
1.456471e+002,2.083069e+000
1.466113e+002,-3.714795e+000
1.475756e+002,-5.959851e+000
1.485398e+002,-5.525171e+000
1.495040e+002,-7.965820e-001
1.504683e+002,8.161206e+000
1.514325e+002,1.948007e+001
1.523967e+002,2.178540e+001
1.533610e+002,1.718977e+001
1.543252e+002,1.035532e+001
1.552894e+002,4.349780e+000
1.562537e+002,-7.888428e-001
1.572179e+002,-4.513709e+000
1.581821e+002,-8.195862e+000
1.591464e+002,-1.011331e+001
1.601106e+002,-7.714014e+000
1.610748e+002,4.596069e+000
1.620391e+002,1.250629e+001
1.630033e+002,1.064658e+001
1.639676e+002,3.142602e+000
1.649318e+002,-3.482996e+000
1.658960e+002,-1.797620e+000
1.668603e+002,1.804993e+000
1.678245e+002,3.263635e+000
1.687887e+002,2.265820e+000
1.697530e+002,4.101562e-003
1.707172e+002,-4.289673e-001
1.716814e+002,2.927368e-001
1.726457e+002,6.696289e-001
1.736099e+002,1.381958e-001
1.745741e+002,-1.350708e+000
1.755384e+002,-2.826904e+000
1.765026e+002,-4.700940e+000
1.774668e+002,-6.186511e+000
1.784311e+002,-6.487414e+000
1.793953e+002,-4.742627e+000
1.803595e+002,-4.356275e+000
1.813238e+002,-7.095520e+000
1.822880e+002,-1.043934e+001
1.832522e+002,-1.208108e+001
1.842165e+002,-9.712964e+000
1.851807e+002,-7.744104e+000
1.861449e+002,-1.044036e+001
1.871092e+002,-1.538788e+001
1.880734e+002,-1.938835e+001
1.890376e+002,-1.779432e+001
1.900019e+002,-1.216683e+001
1.909661e+002,-7.524512e+000
1.919303e+002,-4.235974e+000
1.928946e+002,-2.068310e+000
1.938588e+002,-4.446289e-001
1.948230e+002,3.194214e-001
1.957873e+002,1.193359e+000
1.967515e+002,1.502649e+000
1.977157e+002,1.406946e+000
1.986800e+002,4.656396e+000
1.996442e+002,1.278058e+001
2.006084e+002,2.254105e+001
2.015727e+002,3.566066e+001
2.025369e+002,5.238413e+001
2.035011e+002,6.369303e+001
2.044654e+002,6.156966e+001
2.054296e+002,5.364938e+001
2.063938e+002,4.222094e+001
2.073581e+002,2.901268e+001
2.083223e+002,1.714320e+001
2.092865e+002,1.332612e+001
2.102508e+002,1.566902e+001
2.112150e+002,2.269388e+001
2.121792e+002,3.307194e+001
2.131435e+002,4.839985e+001
2.141077e+002,5.547465e+001
2.150719e+002,5.118153e+001
2.160362e+002,4.167666e+001
2.170004e+002,3.595310e+001
2.179646e+002,3.644475e+001
2.189289e+002,3.819738e+001
2.198931e+002,3.955112e+001
2.208573e+002,4.169587e+001
2.218216e+002,4.722715e+001
2.227858e+002,6.215808e+001
2.237500e+002,7.658620e+001
2.247143e+002,8.950472e+001
2.256785e+002,9.889030e+001
2.266427e+002,1.016837e+002
2.276070e+002,8.660760e+001
2.285712e+002,6.267517e+001
2.295354e+002,4.073582e+001
2.304997e+002,2.409449e+001
2.314639e+002,1.239990e+001
2.324281e+002,4.423450e+000
2.333924e+002,3.175781e-001
2.343566e+002,-2.215332e+000
2.353208e+002,-3.489856e+000
2.362851e+002,-3.193774e+000
2.372493e+002,-3.766394e+000
2.382135e+002,-5.965747e+000
2.391778e+002,-8.338587e+000
2.401420e+002,-1.021256e+001
2.411062e+002,-1.132758e+001
2.420705e+002,-1.220853e+001
2.430347e+002,-1.312632e+001
2.439989e+002,-1.410737e+001
2.449632e+002,-1.523312e+001
2.459274e+002,-1.657831e+001
2.468916e+002,-1.777970e+001
2.478559e+002,-1.822272e+001
2.488201e+002,-1.809865e+001
2.497843e+002,-1.775907e+001
2.507486e+002,-1.762023e+001
2.517128e+002,-1.774153e+001
2.526770e+002,-1.679507e+001
2.536413e+002,-1.439053e+001
2.546055e+002,-1.144361e+001
2.555697e+002,-9.369702e+000
2.565340e+002,-8.918030e+000
2.574982e+002,-8.362951e+000
2.584625e+002,-7.399793e+000
2.594267e+002,-6.140076e+000
2.603909e+002,-4.790625e+000
2.613552e+002,-3.021326e+000
2.623194e+002,-2.084363e+000
2.632836e+002,-2.914795e+000
2.642479e+002,-5.031409e+000
2.652121e+002,-7.392432e+000
2.661763e+002,-8.537989e+000
2.671406e+002,-8.759875e+000
2.681048e+002,-8.461828e+000
2.690690e+002,-7.736377e+000
2.700333e+002,-6.639673e+000
2.709975e+002,-5.283472e+000
2.719617e+002,-3.120618e+000
2.729260e+002,-2.281775e+000
2.738902e+002,-4.101587e+000
2.748544e+002,-8.524511e+000
2.758187e+002,-1.124837e+001
2.767829e+002,-1.045622e+001
2.777471e+002,-9.786120e+000
2.787114e+002,-1.048649e+001
2.796756e+002,-1.267092e+001
2.806398e+002,-1.445502e+001
2.816041e+002,-1.412923e+001
2.825683e+002,-1.334380e+001
2.835325e+002,-1.296979e+001
2.844968e+002,-1.336989e+001
2.854610e+002,-1.404626e+001
2.864252e+002,-1.379677e+001
2.873895e+002,-1.299098e+001
2.883537e+002,-1.191772e+001
2.893179e+002,-1.072668e+001
2.902822e+002,-9.346991e+000
2.912464e+002,-9.113904e+000
2.922106e+002,-1.012002e+001
2.931749e+002,-1.160624e+001
2.941391e+002,-1.332368e+001
2.951033e+002,-1.565992e+001
2.960676e+002,-1.711685e+001
2.970318e+002,-1.727639e+001
2.979960e+002,-1.682909e+001
2.989603e+002,-1.629241e+001
2.999245e+002,-1.598846e+001
3.008887e+002,-1.530087e+001
3.018530e+002,-1.334556e+001
3.028172e+002,-1.107724e+001
3.037814e+002,-9.483582e+000
3.047457e+002,-9.419726e+000
3.057099e+002,-1.026286e+001
3.066741e+002,-9.722186e+000
3.076384e+002,-8.195093e+000
3.086026e+002,-7.065497e+000
3.095668e+002,-7.919855e+000
3.105311e+002,-1.170105e+001
3.114953e+002,-1.384760e+001
3.124595e+002,-1.370252e+001
3.134238e+002,-1.264215e+001
3.143880e+002,-1.233780e+001
3.153522e+002,-1.372151e+001
3.163165e+002,-1.440377e+001
3.172807e+002,-1.366447e+001
3.182449e+002,-1.209561e+001
3.192092e+002,-1.042724e+001
3.201734e+002,-9.256140e+000
3.211376e+002,-7.954572e+000
3.221019e+002,-5.467010e+000
3.230661e+002,-2.504944e+000
3.240303e+002,-1.588257e-001
3.249946e+002,2.056763e-001
3.259588e+002,-1.423267e+000
3.269230e+002,-2.984119e+000
3.278873e+002,-4.474115e+000
3.288515e+002,-6.014300e+000
3.298157e+002,-7.846051e+000
3.307800e+002,-1.097009e+001
3.317442e+002,-1.204630e+001
3.327084e+002,-1.064637e+001
3.336727e+002,-7.547803e+000
3.346369e+002,-3.856439e+000
3.356011e+002,1.687353e+000
3.365654e+002,5.668200e+000
3.375296e+002,6.825110e+000
3.384938e+002,6.146765e+000
3.394581e+002,4.995374e+000
3.404223e+002,3.867627e+000
3.413865e+002,3.655029e+000
3.423508e+002,4.938281e+000
3.433150e+002,7.711524e+000
3.442792e+002,1.189042e+001
3.452435e+002,1.753801e+001
3.462077e+002,2.469620e+001
3.471719e+002,3.083253e+001
3.481362e+002,3.492129e+001
3.491004e+002,3.920454e+001
3.500646e+002,4.871914e+001
3.510289e+002,6.420573e+001
3.519931e+002,8.633614e+001
3.529573e+002,1.159984e+002
3.539216e+002,1.518528e+002
3.548858e+002,1.937226e+002
3.558500e+002,2.576176e+002
3.568143e+002,3.034626e+002
3.577785e+002,3.172867e+002
3.587427e+002,3.043924e+002
3.597070e+002,2.739248e+002
3.606712e+002,2.278592e+002
3.616354e+002,1.770008e+002
3.625997e+002,1.340116e+002
3.635639e+002,9.987321e+001
3.645281e+002,7.401528e+001
3.654924e+002,5.524227e+001
3.664566e+002,4.563389e+001
3.674208e+002,3.764787e+001
3.683851e+002,3.162930e+001
3.693493e+002,2.701880e+001
3.703135e+002,2.268722e+001
3.712778e+002,1.855911e+001
3.722420e+002,1.530649e+001
3.732062e+002,1.326753e+001
3.741705e+002,1.202214e+001
3.751347e+002,1.095646e+001
3.760989e+002,9.819641e+000
3.770632e+002,8.732935e+000
3.780274e+002,7.563257e+000
3.789916e+002,6.379321e+000
3.799559e+002,5.329150e+000
3.809201e+002,4.632056e+000
3.818844e+002,4.302356e+000
3.828486e+002,3.906372e+000
3.838128e+002,3.504443e+000
3.847771e+002,3.549365e+000
3.857413e+002,4.762274e+000
3.867055e+002,8.124598e+000
3.876698e+002,9.934265e+000
3.886340e+002,8.455652e+000
3.895982e+002,6.169458e+000
3.905625e+002,6.762769e+000
3.915267e+002,1.306876e+001
3.924909e+002,1.787488e+001
3.934552e+002,2.044817e+001
3.944194e+002,2.093584e+001
3.953836e+002,1.896930e+001
3.963479e+002,1.321538e+001
3.973121e+002,7.821875e+000
3.982763e+002,6.784656e+000
3.992406e+002,8.449353e+000
4.002048e+002,1.058986e+001
4.011690e+002,1.105746e+001
4.021333e+002,1.017516e+001
4.030975e+002,1.079285e+001
4.040617e+002,1.288585e+001
4.050260e+002,1.569221e+001
4.059902e+002,1.845433e+001
4.069544e+002,2.101696e+001
4.079187e+002,2.393530e+001
4.088829e+002,2.677435e+001
4.098471e+002,3.009435e+001
4.108114e+002,3.428878e+001
4.117756e+002,3.946058e+001
4.127398e+002,4.561962e+001
4.137041e+002,5.499901e+001
4.146683e+002,6.376490e+001
4.156325e+002,6.912755e+001
4.165968e+002,6.960551e+001
4.175610e+002,6.639982e+001
4.185252e+002,6.002868e+001
4.194895e+002,5.244172e+001
4.204537e+002,4.604218e+001
4.214179e+002,4.235597e+001
4.223822e+002,4.125843e+001
4.233464e+002,4.039407e+001
4.243106e+002,3.915497e+001
4.252749e+002,3.899741e+001
4.262391e+002,4.035112e+001
4.272033e+002,4.321658e+001
4.281676e+002,4.893251e+001
4.291318e+002,5.757941e+001
4.300960e+002,6.876350e+001
4.310603e+002,8.228981e+001
4.320245e+002,9.803203e+001
4.329887e+002,1.164154e+002
4.339530e+002,1.394059e+002
4.349172e+002,1.643670e+002
4.358814e+002,1.935893e+002
4.368457e+002,2.252261e+002
4.378099e+002,2.538370e+002
4.387741e+002,2.681722e+002
4.397384e+002,2.695742e+002
4.407026e+002,2.607906e+002
4.416668e+002,2.413544e+002
4.426311e+002,2.146082e+002
4.435953e+002,1.917884e+002
4.445595e+002,1.745902e+002
4.455238e+002,1.599963e+002
4.464880e+002,1.480840e+002
4.474522e+002,1.387092e+002
4.484165e+002,1.321352e+002
4.493807e+002,1.321908e+002
4.503449e+002,1.302568e+002
4.513092e+002,1.232151e+002
4.522734e+002,1.126196e+002
4.532376e+002,1.006263e+002
4.542019e+002,8.843105e+001
4.551661e+002,7.709028e+001
4.561303e+002,6.730909e+001
4.570946e+002,5.909861e+001
4.580588e+002,5.246923e+001
4.590230e+002,4.744426e+001
4.599873e+002,4.425008e+001
4.609515e+002,4.104636e+001
4.619157e+002,3.695466e+001
4.628800e+002,3.408075e+001
4.638442e+002,3.484045e+001
4.648084e+002,4.103838e+001
4.657727e+002,4.541709e+001
4.667369e+002,4.637661e+001
4.677011e+002,4.708170e+001
4.686654e+002,5.007900e+001
4.696296e+002,5.620979e+001
4.705938e+002,6.088251e+001
4.715581e+002,5.970413e+001
4.725223e+002,5.636803e+001
4.734865e+002,5.296228e+001
4.744508e+002,5.043337e+001
4.754150e+002,4.834279e+001
4.763792e+002,4.557290e+001
4.773435e+002,4.227189e+001
4.783077e+002,3.856672e+001
4.792719e+002,3.439704e+001
4.802362e+002,3.002670e+001
4.812004e+002,2.685693e+001
4.821646e+002,2.667950e+001
4.831289e+002,2.536745e+001
4.840931e+002,2.157726e+001
4.850573e+002,1.623125e+001
4.860216e+002,1.180853e+001
4.869858e+002,9.350446e+000
4.879500e+002,8.211578e+000
4.889143e+002,8.798205e+000
4.898785e+002,1.030087e+001
4.908427e+002,1.160140e+001
4.918070e+002,1.173942e+001
4.927712e+002,1.110668e+001
4.937354e+002,1.047665e+001
4.946997e+002,9.922272e+000
4.956639e+002,9.571753e+000
4.966281e+002,9.550024e+000
4.975924e+002,9.895679e+000
4.985566e+002,1.054117e+001
4.995208e+002,1.105198e+001
5.004851e+002,1.226568e+001
5.014493e+002,1.490035e+001
5.024135e+002,1.919872e+001
5.033778e+002,2.395449e+001
5.043420e+002,3.048964e+001
5.053063e+002,3.630167e+001
5.062705e+002,4.030971e+001
5.072347e+002,4.216282e+001
5.081990e+002,4.199656e+001
5.091632e+002,3.855479e+001
5.101274e+002,3.392701e+001
5.110917e+002,2.897206e+001
5.120559e+002,2.406492e+001
5.130201e+002,1.924306e+001
5.139844e+002,1.435016e+001
5.149486e+002,9.492956e+000
5.159128e+002,6.020679e+000
5.168771e+002,4.489203e+000
5.178413e+002,3.927692e+000
5.188055e+002,2.096637e+000
5.197698e+002,-2.958441e+000
5.207340e+002,-6.238037e+000
5.216982e+002,-6.728442e+000
5.226625e+002,-6.011450e+000
5.236267e+002,-5.753882e+000
5.245909e+002,-6.475531e+000
5.255552e+002,-7.650500e+000
5.265194e+002,-9.619720e+000
5.274836e+002,-1.140763e+001
5.284479e+002,-1.179104e+001
5.294121e+002,-1.015438e+001
5.303763e+002,-7.794580e+000
5.313406e+002,-8.167200e+000
5.323048e+002,-1.020190e+001
5.332690e+002,-1.201199e+001
5.342333e+002,-1.268267e+001
5.351975e+002,-1.233597e+001
5.361617e+002,-1.205156e+001
5.371260e+002,-1.194178e+001
5.380902e+002,-1.163326e+001
5.390544e+002,-1.112867e+001
5.400187e+002,-1.045820e+001
5.409829e+002,-9.556335e+000
5.419471e+002,-7.517609e+000
5.429114e+002,-6.304492e+000
5.438756e+002,-6.830035e+000
5.448398e+002,-8.443182e+000
5.458041e+002,-1.024140e+001
5.467683e+002,-1.170595e+001
5.477325e+002,-1.262816e+001
5.486968e+002,-1.292171e+001
5.496610e+002,-1.269321e+001
5.506252e+002,-1.198160e+001
5.515895e+002,-1.081359e+001
5.525537e+002,-9.228083e+000
5.535179e+002,-8.943744e+000
5.544822e+002,-1.018693e+001
5.554464e+002,-1.134888e+001
5.564106e+002,-1.140069e+001
5.573749e+002,-1.035730e+001
5.583391e+002,-1.024603e+001
5.593033e+002,-1.272160e+001
5.602676e+002,-1.456215e+001
5.612318e+002,-1.461775e+001
5.621960e+002,-1.323432e+001
5.631603e+002,-1.162450e+001
5.641245e+002,-1.012838e+001
5.650887e+002,-9.473785e+000
5.660530e+002,-1.083212e+001
5.670172e+002,-1.345369e+001
5.679814e+002,-1.574731e+001
5.689457e+002,-1.597898e+001
5.699099e+002,-1.426360e+001
5.708741e+002,-1.317357e+001
5.718384e+002,-1.263177e+001
5.728026e+002,-1.252677e+001
5.737668e+002,-1.289999e+001
5.747311e+002,-1.390957e+001
5.756953e+002,-1.473821e+001
5.766595e+002,-1.534809e+001
5.776238e+002,-1.582849e+001
5.785880e+002,-1.620993e+001
5.795522e+002,-1.649044e+001
5.805165e+002,-1.663024e+001
5.814807e+002,-1.624840e+001
5.824449e+002,-1.599386e+001
5.834092e+002,-1.666850e+001
5.843734e+002,-1.789833e+001
5.853376e+002,-1.861573e+001
5.863019e+002,-1.741752e+001
5.872661e+002,-1.474587e+001
5.882303e+002,-1.347070e+001
5.891946e+002,-1.361638e+001
5.901588e+002,-1.405987e+001
5.911230e+002,-1.358052e+001
5.920873e+002,-1.175363e+001
5.930515e+002,-1.079688e+001
5.940157e+002,-1.026630e+001
5.949800e+002,-1.063975e+001
5.959442e+002,-1.296150e+001
5.969084e+002,-1.711467e+001
5.978727e+002,-2.001334e+001
5.988369e+002,-1.838480e+001
5.998011e+002,-1.626104e+001
6.007654e+002,-1.495648e+001
6.017296e+002,-1.465845e+001
6.026938e+002,-1.505327e+001
6.036581e+002,-1.599097e+001
6.046223e+002,-1.716403e+001
6.055865e+002,-1.765542e+001
6.065508e+002,-1.746268e+001
6.075150e+002,-1.694081e+001
6.084792e+002,-1.650248e+001
6.094435e+002,-1.627878e+001
6.104077e+002,-1.524421e+001
6.113719e+002,-1.249926e+001
6.123362e+002,-1.019692e+001
6.133004e+002,-9.800092e+000
6.142646e+002,-1.131229e+001
6.152289e+002,-1.231060e+001
6.161931e+002,-1.110002e+001
6.171573e+002,-9.834033e+000
6.181216e+002,-9.326086e+000
6.190858e+002,-9.383008e+000
6.200500e+002,-9.328253e+000
6.210143e+002,-8.600800e+000
6.219785e+002,-7.284619e+000
6.229427e+002,-5.511792e+000
6.239070e+002,-3.435535e+000
6.248712e+002,-1.555731e+000
6.258354e+002,-3.199402e-001
6.267997e+002,3.172241e-001
6.277639e+002,6.223084e-001
6.287281e+002,-2.674255e-001
6.296924e+002,-6.345032e-001
6.306566e+002,8.723511e-001
6.316208e+002,3.997864e+000
6.325851e+002,5.852386e+000
6.335493e+002,4.435480e+000
6.345135e+002,2.772137e+000
6.354778e+002,1.414386e+000
6.364420e+002,4.190491e-001
6.374063e+002,-3.161865e-001
6.383705e+002,-7.935181e-001
6.393347e+002,-1.216071e+000
6.402990e+002,-2.087701e+000
6.412632e+002,-3.137134e+000
6.422274e+002,-3.703003e+000
6.431917e+002,-3.284698e+000
6.441559e+002,-1.968445e+000
6.451201e+002,-1.468250e+000
6.460844e+002,-1.894403e+000
6.470486e+002,-2.683197e+000
6.480128e+002,-3.715369e+000
6.489771e+002,-4.976038e+000
6.499413e+002,-6.475958e+000
6.509055e+002,-8.894953e+000
6.518698e+002,-1.065326e+001
6.528340e+002,-1.117356e+001
6.537982e+002,-1.086158e+001
6.547625e+002,-1.017833e+001
6.557267e+002,-9.350836e+000
6.566909e+002,-8.561536e+000
6.576552e+002,-7.966388e+000
6.586194e+002,-7.607996e+000
6.595836e+002,-7.638306e+000
6.605479e+002,-8.091125e+000
6.615121e+002,-8.770703e+000
6.624763e+002,-8.988330e+000
6.634406e+002,-8.589398e+000
6.644048e+002,-8.167554e+000
6.653690e+002,-7.839923e+000
6.663333e+002,-7.634100e+000
6.672975e+002,-7.535095e+000
6.682617e+002,-7.513476e+000
6.692260e+002,-7.399951e+000
6.701902e+002,-6.923560e+000
6.711544e+002,-6.517365e+000
6.721187e+002,-6.704742e+000
6.730829e+002,-7.651245e+000
6.740471e+002,-8.728363e+000
6.750114e+002,-8.930469e+000
6.759756e+002,-8.700488e+000
6.769398e+002,-8.329309e+000
6.779041e+002,-7.948657e+000
6.788683e+002,-7.782514e+000
6.798325e+002,-8.274897e+000
6.807968e+002,-9.800665e+000
6.817610e+002,-1.027092e+001
6.827252e+002,-8.816687e+000
6.836895e+002,-7.069366e+000
6.846537e+002,-6.683276e+000
6.856179e+002,-8.045904e+000
6.865822e+002,-8.717603e+000
6.875464e+002,-7.389642e+000
6.885106e+002,-5.994342e+000
6.894749e+002,-5.346148e+000
6.904391e+002,-5.442468e+000
6.914034e+002,-5.752197e+000
6.923676e+002,-5.893085e+000
6.933318e+002,-5.835156e+000
6.942961e+002,-5.692517e+000
6.952603e+002,-5.408484e+000
6.962245e+002,-4.813660e+000
6.971888e+002,-3.753882e+000
6.981530e+002,-2.253882e+000
6.991172e+002,-7.898377e-001
7.000815e+002,6.318542e-001
7.010457e+002,1.977283e+000
7.020099e+002,3.283099e+000
7.029742e+002,4.588348e+000
7.039384e+002,5.950025e+000
7.049026e+002,7.765411e+000
7.058669e+002,8.921789e+000
7.068311e+002,8.739026e+000
7.077953e+002,7.897583e+000
7.087596e+002,7.251508e+000
7.097238e+002,7.288306e+000
7.106880e+002,7.596320e+000
7.116523e+002,7.150983e+000
7.126165e+002,6.447248e+000
7.135807e+002,6.522583e+000
7.145450e+002,7.766974e+000
7.155092e+002,9.562347e+000
7.164734e+002,1.014863e+001
7.174377e+002,8.765875e+000
7.184019e+002,7.592364e+000
7.193661e+002,6.522143e+000
7.203304e+002,5.623309e+000
7.212946e+002,5.099725e+000
7.222589e+002,5.133514e+000
7.232231e+002,4.996332e+000
7.241873e+002,4.410889e+000
7.251516e+002,3.623981e+000
7.261158e+002,2.569531e+000
7.270800e+002,1.332568e+000
7.280443e+002,1.570313e-001
7.290085e+002,-6.509339e-001
7.299727e+002,-1.134436e+000
7.309370e+002,-1.427057e+000
7.319012e+002,-1.568018e+000
7.328654e+002,-1.815845e+000
7.338297e+002,-2.437085e+000
7.347939e+002,-3.473553e+000
7.357581e+002,-4.187854e+000
7.367224e+002,-4.728314e+000
7.376866e+002,-4.851129e+000
7.386508e+002,-4.152405e+000
7.396151e+002,-2.977624e+000
7.405793e+002,-2.311523e+000
7.415435e+002,-2.704169e+000
7.425078e+002,-3.059967e+000
7.434720e+002,-2.883160e+000
7.444362e+002,-2.528522e+000
7.454005e+002,-2.408740e+000
7.463647e+002,-2.690820e+000
7.473289e+002,-3.083386e+000
7.482932e+002,-2.923377e+000
7.492574e+002,-2.369531e+000
7.502216e+002,-1.901782e+000
7.511859e+002,-1.668384e+000
7.521501e+002,-1.620654e+000
7.531143e+002,-1.564874e+000
7.540786e+002,-1.162958e+000
7.550428e+002,-1.534155e+000
7.560070e+002,-3.745258e+000
7.569713e+002,-5.584802e+000
7.579355e+002,-5.447150e+000
7.588997e+002,-3.386585e+000
7.598640e+002,-1.411804e+000
7.608282e+002,-5.555420e-001
7.617924e+002,-8.690186e-002
7.627567e+002,2.872986e-001
7.637209e+002,5.740539e-001
7.646851e+002,6.054016e-001
7.656494e+002,2.261475e-001
7.666136e+002,-2.996216e-001
7.675778e+002,3.659729e-001
7.685421e+002,2.044598e+000
7.695063e+002,3.372931e+000
7.704705e+002,3.622040e+000
7.714348e+002,3.100983e+000
7.723990e+002,3.057873e+000
7.733632e+002,3.882129e+000
7.743275e+002,4.541156e+000
7.752917e+002,4.965137e+000
7.762559e+002,5.269928e+000
7.772202e+002,5.386706e+000
7.781844e+002,5.290753e+000
7.791486e+002,5.546271e+000
7.801129e+002,7.194067e+000
7.810771e+002,9.056519e+000
7.820413e+002,1.036835e+001
7.830056e+002,1.110842e+001
7.839698e+002,1.166800e+001
7.849340e+002,1.248625e+001
7.858983e+002,1.353636e+001
7.868625e+002,1.430573e+001
7.878267e+002,1.463979e+001
7.887910e+002,1.513434e+001
7.897552e+002,1.659525e+001
7.907194e+002,1.878756e+001
7.916837e+002,1.950933e+001
7.926479e+002,1.655925e+001
7.936121e+002,1.467427e+001
7.945764e+002,1.497713e+001
7.955406e+002,1.660127e+001
7.965048e+002,1.883150e+001
7.974691e+002,2.141922e+001
7.984333e+002,2.399570e+001
7.993975e+002,2.573926e+001
8.003618e+002,2.709969e+001
8.013260e+002,2.859828e+001
8.022902e+002,3.031143e+001
8.032545e+002,3.188080e+001
8.042187e+002,3.274989e+001
8.051829e+002,3.266896e+001
8.061472e+002,3.374348e+001
8.071114e+002,3.646221e+001
8.080756e+002,3.940260e+001
8.090399e+002,4.168285e+001
8.100041e+002,4.351797e+001
8.109683e+002,4.620238e+001
8.119326e+002,5.017922e+001
8.128968e+002,5.501553e+001
8.138610e+002,6.082105e+001
8.148253e+002,6.718346e+001
8.157895e+002,7.364473e+001
8.167537e+002,8.001246e+001
8.177180e+002,8.625739e+001
8.186822e+002,9.246487e+001
8.196464e+002,9.857048e+001
8.206107e+002,1.045630e+002
8.215749e+002,1.104335e+002
8.225391e+002,1.155057e+002
8.235034e+002,1.187289e+002
8.244676e+002,1.198280e+002
8.254318e+002,1.194529e+002
8.263961e+002,1.181951e+002
8.273603e+002,1.157273e+002
8.283245e+002,1.114681e+002
8.292888e+002,1.056546e+002
8.302530e+002,9.921082e+001
8.312172e+002,9.194991e+001
8.321815e+002,8.525040e+001
8.331457e+002,8.010081e+001
8.341099e+002,7.609921e+001
8.350742e+002,7.271801e+001
8.360384e+002,6.964777e+001
8.370026e+002,6.684663e+001
8.379669e+002,6.427174e+001
8.389311e+002,6.189869e+001
8.398953e+002,5.897438e+001
8.408596e+002,5.493333e+001
8.418238e+002,5.097860e+001
8.427880e+002,4.898745e+001
8.437523e+002,4.966817e+001
8.447165e+002,4.871351e+001
8.456807e+002,4.360294e+001
8.466450e+002,3.905266e+001
8.476092e+002,3.738871e+001
8.485734e+002,3.741744e+001
8.495377e+002,3.619534e+001
8.505019e+002,3.172001e+001
8.514661e+002,2.676163e+001
8.524304e+002,2.535545e+001
8.533946e+002,2.590354e+001
8.543588e+002,2.614428e+001
8.553231e+002,2.518589e+001
8.562873e+002,2.352961e+001
8.572515e+002,2.225612e+001
8.582158e+002,2.132410e+001
8.591800e+002,2.111817e+001
8.601442e+002,2.233598e+001
8.611085e+002,2.341729e+001
8.620727e+002,2.320259e+001
8.630369e+002,2.182892e+001
8.640012e+002,2.072496e+001
8.649654e+002,2.002862e+001
8.659296e+002,2.012320e+001
8.668939e+002,2.163980e+001
8.678581e+002,2.383158e+001
8.688223e+002,2.587853e+001
8.697866e+002,2.730452e+001
8.707508e+002,2.810447e+001
8.717150e+002,2.804273e+001
8.726793e+002,2.724631e+001
8.736435e+002,2.635418e+001
8.746077e+002,2.549442e+001
8.755720e+002,2.453718e+001
8.765362e+002,2.331381e+001
8.775004e+002,2.181766e+001
8.784647e+002,2.010856e+001
8.794289e+002,1.745128e+001
8.803931e+002,1.537192e+001
8.813574e+002,1.468320e+001
8.823216e+002,1.485405e+001
8.832858e+002,1.494142e+001
8.842501e+002,1.469006e+001
8.852143e+002,1.386793e+001
8.861785e+002,1.166329e+001
8.871428e+002,8.944677e+000
8.881070e+002,6.654089e+000
8.890712e+002,5.112970e+000
8.900355e+002,4.163086e+000
8.909997e+002,3.578442e+000
8.919639e+002,3.412537e+000
8.929282e+002,3.655017e+000
8.938924e+002,5.252942e+000
8.948566e+002,6.000318e+000
8.958209e+002,4.248224e+000
8.967851e+002,6.204163e-001
8.977493e+002,-2.271289e+000
8.987136e+002,-3.902442e+000
8.996778e+002,-4.709149e+000
9.006420e+002,-4.542920e+000
9.016063e+002,-3.971027e+000
9.025705e+002,-3.160034e+000
9.035347e+002,-2.351099e+000
9.044990e+002,-2.260968e+000
9.054632e+002,-4.263434e+000
9.064274e+002,-7.668060e+000
9.073917e+002,-9.031329e+000
9.083559e+002,-8.171216e+000
9.093201e+002,-7.362396e+000
9.102844e+002,-8.687268e+000
9.112486e+002,-1.197014e+001
9.122128e+002,-1.364856e+001
9.131771e+002,-1.205702e+001
9.141413e+002,-1.088725e+001
9.151055e+002,-1.033809e+001
9.160698e+002,-1.040843e+001
9.170340e+002,-1.136321e+001
9.179982e+002,-1.321383e+001
9.189625e+002,-1.497108e+001
9.199267e+002,-1.591315e+001
9.208909e+002,-1.616784e+001
9.218552e+002,-1.525769e+001
9.228194e+002,-1.369812e+001
9.237836e+002,-1.307555e+001
9.247479e+002,-1.466996e+001
9.257121e+002,-1.785538e+001
9.266763e+002,-1.885889e+001
9.276406e+002,-1.619501e+001
9.286048e+002,-1.469532e+001
9.295690e+002,-1.564922e+001
9.305333e+002,-1.742123e+001
9.314975e+002,-1.814384e+001
9.324617e+002,-1.758245e+001
9.334260e+002,-1.703355e+001
9.343902e+002,-1.690076e+001
9.353545e+002,-1.705651e+001
9.363187e+002,-1.773408e+001
9.372830e+002,-1.862636e+001
9.382472e+002,-1.923610e+001
9.392114e+002,-1.923130e+001
9.401757e+002,-1.871194e+001
9.411399e+002,-1.785288e+001
9.421041e+002,-1.675196e+001
9.430684e+002,-1.581323e+001
9.440326e+002,-1.504542e+001
9.449968e+002,-1.470137e+001
9.459611e+002,-1.533941e+001
9.469253e+002,-1.721323e+001
9.478895e+002,-1.793284e+001
9.488538e+002,-1.605124e+001
9.498180e+002,-1.452466e+001
9.507822e+002,-1.439752e+001
9.517465e+002,-1.508068e+001
9.527107e+002,-1.566872e+001
9.536749e+002,-1.578420e+001
9.546392e+002,-1.557244e+001
9.556034e+002,-1.508667e+001
9.565676e+002,-1.450160e+001
9.575319e+002,-1.392863e+001
9.584961e+002,-1.337691e+001
9.594603e+002,-1.302954e+001
9.604246e+002,-1.323362e+001
9.613888e+002,-1.402819e+001
9.623530e+002,-1.294798e+001
9.633173e+002,-8.108862e+000
9.642815e+002,-4.052924e+000
9.652457e+002,-2.299872e+000
9.662100e+002,-9.629761e-001
9.671742e+002,1.593433e+000
9.681384e+002,5.542914e+000
9.691027e+002,1.237780e+001
9.700669e+002,2.468906e+001
9.710311e+002,3.920587e+001
9.719954e+002,5.813299e+001
9.729596e+002,7.741652e+001
9.739238e+002,8.855275e+001
9.748881e+002,8.586506e+001
9.758523e+002,7.288298e+001
9.768165e+002,6.079839e+001
9.777808e+002,4.961793e+001
9.787450e+002,3.976231e+001
9.797092e+002,3.179905e+001
9.806735e+002,2.479346e+001
9.816377e+002,1.741365e+001
9.826019e+002,9.624219e+000
9.835662e+002,4.211676e+000
9.845304e+002,3.538287e+000
9.854946e+002,3.676758e+000
9.864589e+002,3.647382e+000
9.874231e+002,3.494666e+000
9.883873e+002,3.082080e+000
9.893516e+002,2.473566e+000
9.903158e+002,2.510907e+000
9.912800e+002,4.768384e+000
9.922443e+002,8.810498e+000
9.932085e+002,1.151707e+001
9.941727e+002,1.260655e+001
9.951370e+002,1.480845e+001
9.961012e+002,1.993288e+001
9.970654e+002,2.768014e+001
9.980297e+002,3.670316e+001
9.989939e+002,4.434083e+001
9.999581e+002,5.868634e+001
1.000922e+003,7.429808e+001
1.001887e+003,1.013620e+002
1.002851e+003,1.530793e+002
1.003815e+003,2.258236e+002
1.004779e+003,3.030799e+002
1.005744e+003,3.841297e+002
1.006708e+003,4.422581e+002
1.007672e+003,4.350042e+002
1.008636e+003,3.805566e+002
1.009600e+003,3.135649e+002
1.010565e+003,2.484023e+002
1.011529e+003,1.882093e+002
1.012493e+003,1.404278e+002
1.013457e+003,1.076478e+002
1.014422e+003,8.141287e+001
1.015386e+003,6.191849e+001
1.016350e+003,4.679340e+001
1.017314e+003,3.649120e+001
1.018279e+003,2.944709e+001
1.019243e+003,2.293569e+001
1.020207e+003,1.601310e+001
1.021171e+003,1.013074e+001
1.022135e+003,6.896777e+000
1.023100e+003,5.050067e+000
1.024064e+003,3.916705e+000
1.025028e+003,3.172003e+000
1.025992e+003,2.475348e+000
1.026957e+003,1.537262e+000
1.027921e+003,4.823181e-001
1.028885e+003,-1.259399e-001
1.029849e+003,1.683533e-001
1.030814e+003,-1.464905e-001
1.031778e+003,-1.879224e+000
1.032742e+003,-3.952838e+000
1.033706e+003,-5.193604e+000
1.034671e+003,-5.500421e+000
1.035635e+003,-5.869897e+000
1.036599e+003,-6.743262e+000
1.037563e+003,-7.692670e+000
1.038527e+003,-8.979895e+000
1.039492e+003,-1.002314e+001
1.040456e+003,-9.723242e+000
1.041420e+003,-7.909912e+000
1.042384e+003,-5.963477e+000
1.043349e+003,-6.022656e+000
1.044313e+003,-8.065167e+000
1.045277e+003,-8.901184e+000
1.046241e+003,-8.158484e+000
1.047206e+003,-7.506439e+000
1.048170e+003,-7.865668e+000
1.049134e+003,-8.836676e+000
1.050098e+003,-9.419092e+000
1.051063e+003,-9.368109e+000
1.052027e+003,-9.300817e+000
1.052991e+003,-9.580969e+000
1.053955e+003,-9.912622e+000
1.054919e+003,-1.001044e+001
1.055884e+003,-1.002972e+001
1.056848e+003,-1.042252e+001
1.057812e+003,-1.142590e+001
1.058776e+003,-1.246821e+001
1.059741e+003,-1.241031e+001
1.060705e+003,-1.140076e+001
1.061669e+003,-1.011163e+001
1.062633e+003,-8.369715e+000
1.063598e+003,-7.133026e+000
1.064562e+003,-7.705902e+000
1.065526e+003,-9.847919e+000
1.066490e+003,-1.056060e+001
1.067454e+003,-8.249115e+000
1.068419e+003,-6.775513e+000
1.069383e+003,-8.016718e+000
1.070347e+003,-9.661029e+000
1.071311e+003,-9.634912e+000
1.072276e+003,-7.930951e+000
1.073240e+003,-6.057965e+000
1.074204e+003,-5.089215e+000
1.075168e+003,-4.861029e+000
1.076133e+003,-5.285327e+000
1.077097e+003,-6.147186e+000
1.078061e+003,-6.629517e+000
1.079025e+003,-6.464569e+000
1.079990e+003,-5.912005e+000
1.080954e+003,-5.140674e+000
1.081918e+003,-3.994757e+000
1.082882e+003,-3.719824e+000
1.083846e+003,-6.008966e+000
1.084811e+003,-7.276093e+000
1.085775e+003,-5.523913e+000
1.086739e+003,-3.192572e+000
1.087703e+003,-3.259521e+000
1.088668e+003,-6.062488e+000
1.089632e+003,-8.743805e+000
1.090596e+003,-8.808807e+000
1.091560e+003,-7.407611e+000
1.092525e+003,-7.020837e+000
1.093489e+003,-7.398675e+000
1.094453e+003,-7.418488e+000
1.095417e+003,-6.540124e+000
1.096381e+003,-5.063098e+000
1.097346e+003,-3.472754e+000
1.098310e+003,-1.477728e+000
1.099274e+003,-4.285461e-001
1.100238e+003,-5.714294e-001
1.101203e+003,-1.200470e+000
1.102167e+003,-2.598773e+000
1.103131e+003,-4.200116e+000
1.104095e+003,-5.386957e+000
1.105060e+003,-5.982428e+000
1.106024e+003,-6.036328e+000
1.106988e+003,-5.400397e+000
1.107952e+003,-4.233521e+000
1.108917e+003,-2.695886e+000
1.109881e+003,-9.751343e-001
1.110845e+003,2.758728e-001
1.111809e+003,6.720520e-001
1.112773e+003,4.281372e-001
1.113738e+003,3.361816e-002
1.114702e+003,-5.962219e-001
1.115666e+003,-8.569885e-001
1.116630e+003,-7.776489e-001
1.117595e+003,-4.971313e-001
1.118559e+003,3.690186e-001
1.119523e+003,1.236822e+000
1.120487e+003,1.026654e+000
1.121452e+003,-5.102661e-001
1.122416e+003,-1.840326e+000
1.123380e+003,-1.376959e+000
1.124344e+003,-2.460266e-001
1.125308e+003,-1.155518e-001
1.126273e+003,-6.920776e-001
1.127237e+003,-7.376709e-001
1.128201e+003,4.612305e-001
1.129165e+003,2.241980e+000
1.130130e+003,3.001129e+000
1.131094e+003,2.279663e+000
1.132058e+003,1.730145e+000
1.133022e+003,1.202350e+000
1.133987e+003,1.037610e+000
1.134951e+003,1.886822e+000
1.135915e+003,3.000617e+000
1.136879e+003,3.135968e+000
1.137844e+003,2.009808e+000
1.138808e+003,8.164917e-001
1.139772e+003,2.279236e-001
1.140736e+003,2.942749e-001
1.141700e+003,1.565631e+000
1.142665e+003,3.602521e+000
1.143629e+003,4.869256e+000
1.144593e+003,4.590320e+000
1.145557e+003,3.624359e+000
1.146522e+003,3.558319e+000
1.147486e+003,4.436865e+000
1.148450e+003,5.611450e+000
1.149414e+003,7.927460e+000
1.150379e+003,9.649652e+000
1.151343e+003,1.017086e+001
1.152307e+003,9.994568e+000
1.153271e+003,9.648932e+000
1.154235e+003,9.195642e+000
1.155200e+003,8.296967e+000
1.156164e+003,6.256830e+000
1.157128e+003,4.562518e+000
1.158092e+003,5.763110e+000
1.159057e+003,8.735662e+000
1.160021e+003,1.059773e+001
1.160985e+003,1.023054e+001
1.161949e+003,8.798144e+000
1.162914e+003,7.886023e+000
1.163878e+003,7.468506e+000
1.164842e+003,8.255170e+000
1.165806e+003,1.161279e+001
1.166771e+003,1.439399e+001
1.167735e+003,1.621671e+001
1.168699e+003,1.733239e+001
1.169663e+003,1.766278e+001
1.170627e+003,1.745383e+001
1.171592e+003,1.760960e+001
1.172556e+003,1.881578e+001
1.173520e+003,2.032999e+001
1.174484e+003,2.076260e+001
1.175449e+003,2.066650e+001
1.176413e+003,2.121297e+001
1.177377e+003,2.264792e+001
1.178341e+003,2.432366e+001
1.179306e+003,2.569632e+001
1.180270e+003,2.679921e+001
1.181234e+003,2.751520e+001
1.182198e+003,2.720493e+001
1.183162e+003,2.753661e+001
1.184127e+003,2.935433e+001
1.185091e+003,3.107183e+001
1.186055e+003,3.180202e+001
1.187019e+003,3.173002e+001
1.187984e+003,3.144213e+001
1.188948e+003,3.116640e+001
1.189912e+003,3.053185e+001
1.190876e+003,2.880056e+001
1.191841e+003,2.653650e+001
1.192805e+003,2.515454e+001
1.193769e+003,2.473286e+001
1.194733e+003,2.451010e+001
1.195698e+003,2.407099e+001
1.196662e+003,2.341403e+001
1.197626e+003,2.244987e+001
1.198590e+003,2.087955e+001
1.199554e+003,2.001603e+001
1.200519e+003,2.072145e+001
1.201483e+003,2.148425e+001
1.202447e+003,2.209510e+001
1.203411e+003,2.233282e+001
1.204376e+003,2.156502e+001
1.205340e+003,1.986075e+001
1.206304e+003,1.868044e+001
1.207268e+003,1.970081e+001
1.208233e+003,2.192847e+001
1.209197e+003,2.145891e+001
1.210161e+003,1.863720e+001
1.211125e+003,1.714683e+001
1.212089e+003,1.837350e+001
1.213054e+003,2.040773e+001
1.214018e+003,2.112064e+001
1.214982e+003,2.075292e+001
1.215946e+003,2.135051e+001
1.216911e+003,2.411082e+001
1.217875e+003,2.572963e+001
1.218839e+003,2.421219e+001
1.219803e+003,2.220889e+001
1.220768e+003,2.206248e+001
1.221732e+003,2.328101e+001
1.222696e+003,2.382988e+001
1.223660e+003,2.255450e+001
1.224625e+003,2.035160e+001
1.225589e+003,1.864306e+001
1.226553e+003,1.747359e+001
1.227517e+003,1.798940e+001
1.228481e+003,2.102015e+001
1.229446e+003,2.371732e+001
1.230410e+003,2.525296e+001
1.231374e+003,2.544193e+001
1.232338e+003,2.317639e+001
1.233303e+003,1.820200e+001
1.234267e+003,1.531832e+001
1.235231e+003,1.763950e+001
1.236195e+003,2.056426e+001
1.237160e+003,2.129242e+001
1.238124e+003,2.113956e+001
1.239088e+003,2.220596e+001
1.240052e+003,2.461266e+001
1.241016e+003,2.629876e+001
1.241981e+003,2.523082e+001
1.242945e+003,2.220957e+001
1.243909e+003,2.101547e+001
1.244873e+003,2.288666e+001
1.245838e+003,2.378240e+001
1.246802e+003,2.250892e+001
1.247766e+003,2.151442e+001
1.248730e+003,2.257755e+001
1.249695e+003,2.482678e+001
1.250659e+003,2.625284e+001
1.251623e+003,2.635730e+001
1.252587e+003,2.629775e+001
1.253552e+003,2.718314e+001
1.254516e+003,2.782741e+001
1.255480e+003,2.645298e+001
1.256444e+003,2.403052e+001
1.257408e+003,2.294849e+001
1.258373e+003,2.412730e+001
1.259337e+003,2.639394e+001
1.260301e+003,2.823952e+001
1.261265e+003,2.971240e+001
1.262230e+003,3.045123e+001
1.263194e+003,2.992156e+001
1.264158e+003,2.901212e+001
1.265122e+003,2.740088e+001
1.266087e+003,2.585501e+001
1.267051e+003,2.472147e+001
1.268015e+003,2.415076e+001
1.268979e+003,2.438006e+001
1.269943e+003,2.550262e+001
1.270908e+003,2.683567e+001
1.271872e+003,2.748103e+001
1.272836e+003,2.796190e+001
1.273800e+003,2.972579e+001
1.274765e+003,3.265589e+001
1.275729e+003,3.502012e+001
1.276693e+003,3.597676e+001
1.277657e+003,3.603078e+001
1.278622e+003,3.577457e+001
1.279586e+003,3.514089e+001
1.280550e+003,3.470432e+001
1.281514e+003,3.473998e+001
1.282479e+003,3.494121e+001
1.283443e+003,3.546974e+001
1.284407e+003,3.581364e+001
1.285371e+003,3.517867e+001
1.286335e+003,3.395828e+001
1.287300e+003,3.337401e+001
1.288264e+003,3.409720e+001
1.289228e+003,3.546143e+001
1.290192e+003,3.645386e+001
1.291157e+003,3.701118e+001
1.292121e+003,3.648588e+001
1.293085e+003,3.409740e+001
1.294049e+003,3.271603e+001
1.295014e+003,3.453856e+001
1.295978e+003,3.712233e+001
1.296942e+003,3.703175e+001
1.297906e+003,3.458357e+001
1.298870e+003,3.372570e+001
1.299835e+003,3.613768e+001
1.300799e+003,3.877715e+001
1.301763e+003,3.972043e+001
1.302727e+003,3.990980e+001
1.303692e+003,4.029098e+001
1.304656e+003,4.088105e+001
1.305620e+003,4.088580e+001
1.306584e+003,3.983581e+001
1.307549e+003,3.879480e+001
1.308513e+003,4.006722e+001
1.309477e+003,4.425096e+001
1.310441e+003,4.569802e+001
1.311406e+003,4.160973e+001
1.312370e+003,3.898375e+001
1.313334e+003,3.950286e+001
1.314298e+003,4.126389e+001
1.315263e+003,4.289837e+001
1.316227e+003,4.430290e+001
1.317191e+003,4.591452e+001
1.318155e+003,4.795731e+001
1.319120e+003,4.974772e+001
1.320084e+003,5.056295e+001
1.321048e+003,5.051466e+001
1.322012e+003,4.992797e+001
1.322976e+003,4.883550e+001
1.323941e+003,4.750419e+001
1.324905e+003,4.593711e+001
1.325869e+003,4.458691e+001
1.326833e+003,4.403901e+001
1.327798e+003,4.426390e+001
1.328762e+003,4.500237e+001
1.329726e+003,4.675819e+001
1.330690e+003,4.793865e+001
1.331655e+003,4.773259e+001
1.332619e+003,4.730073e+001
1.333583e+003,4.760149e+001
1.334547e+003,4.824445e+001
1.335511e+003,4.819520e+001
1.336476e+003,4.710638e+001
1.337440e+003,4.584156e+001
1.338404e+003,4.550823e+001
1.339368e+003,4.602156e+001
1.340333e+003,4.641475e+001
1.341297e+003,4.685323e+001
1.342261e+003,4.648829e+001
1.343225e+003,4.428598e+001
1.344190e+003,4.228450e+001
1.345154e+003,4.173638e+001
1.346118e+003,4.248452e+001
1.347082e+003,4.442895e+001
1.348047e+003,4.764039e+001
1.349011e+003,5.004651e+001
1.349975e+003,4.974628e+001
1.350939e+003,4.892451e+001
1.351903e+003,5.030809e+001
1.352868e+003,5.285225e+001
1.353832e+003,5.441623e+001
1.354796e+003,5.443533e+001
1.355760e+003,5.362492e+001
1.356725e+003,5.246628e+001
1.357689e+003,5.118258e+001
1.358653e+003,5.085691e+001
1.359617e+003,5.188279e+001
1.360582e+003,5.273932e+001
1.361546e+003,5.359155e+001
1.362510e+003,5.384496e+001
1.363474e+003,5.243794e+001
1.364438e+003,5.108065e+001
1.365403e+003,5.200053e+001
1.366367e+003,5.480018e+001
1.367331e+003,5.686521e+001
1.368295e+003,5.651630e+001
1.369260e+003,5.510135e+001
1.370224e+003,5.510222e+001
1.371188e+003,5.662552e+001
1.372152e+003,5.743293e+001
1.373117e+003,5.700420e+001
1.374081e+003,5.681185e+001
1.375045e+003,5.776885e+001
1.376009e+003,5.894209e+001
1.376974e+003,5.939232e+001
1.377938e+003,5.917103e+001
1.378902e+003,5.841507e+001
1.379866e+003,5.682441e+001
1.380830e+003,5.559568e+001
1.381795e+003,5.576351e+001
1.382759e+003,5.657717e+001
1.383723e+003,5.775216e+001
1.384687e+003,5.906572e+001
1.385652e+003,5.985628e+001
1.386616e+003,5.988024e+001
1.387580e+003,5.991238e+001
1.388544e+003,6.102058e+001
1.389509e+003,6.294894e+001
1.390473e+003,6.355936e+001
1.391437e+003,6.184254e+001
1.392401e+003,6.139098e+001
1.393365e+003,6.373547e+001
1.394330e+003,6.563938e+001
1.395294e+003,6.542714e+001
1.396258e+003,6.413042e+001
1.397222e+003,6.300677e+001
1.398187e+003,6.249588e+001
1.399151e+003,6.254663e+001
1.400115e+003,6.305220e+001
1.401079e+003,6.365623e+001
1.402044e+003,6.370698e+001
1.403008e+003,6.323081e+001
1.403972e+003,6.383208e+001
1.404936e+003,6.598836e+001
1.405901e+003,6.818388e+001
1.406865e+003,7.054895e+001
1.407829e+003,7.214490e+001
1.408793e+003,7.124023e+001
1.409757e+003,6.861701e+001
1.410722e+003,6.793542e+001
1.411686e+003,7.049007e+001
1.412650e+003,7.247432e+001
1.413614e+003,7.032199e+001
1.414579e+003,6.740012e+001
1.415543e+003,6.755222e+001
1.416507e+003,6.998664e+001
1.417471e+003,7.265224e+001
1.418436e+003,7.483675e+001
1.419400e+003,7.585890e+001
1.420364e+003,7.461330e+001
1.421328e+003,7.201882e+001
1.422292e+003,7.195711e+001
1.423257e+003,7.536278e+001
1.424221e+003,7.746806e+001
1.425185e+003,7.669977e+001
1.426149e+003,7.543068e+001
1.427114e+003,7.365783e+001
1.428078e+003,7.251582e+001
1.429042e+003,7.301488e+001
1.430006e+003,7.491134e+001
1.430971e+003,7.766115e+001
1.431935e+003,8.085400e+001
1.432899e+003,8.344939e+001
1.433863e+003,8.389953e+001
1.434828e+003,8.246120e+001
1.435792e+003,8.156507e+001
1.436756e+003,8.122423e+001
1.437720e+003,8.083372e+001
1.438684e+003,8.028966e+001
1.439649e+003,8.007606e+001
1.440613e+003,8.093967e+001
1.441577e+003,8.210896e+001
1.442541e+003,8.174086e+001
1.443506e+003,7.976368e+001
1.444470e+003,7.904112e+001
1.445434e+003,8.167266e+001
1.446398e+003,8.510049e+001
1.447363e+003,8.522211e+001
1.448327e+003,8.337518e+001
1.449291e+003,8.318955e+001
1.450255e+003,8.497755e+001
1.451219e+003,8.725284e+001
1.452184e+003,8.965959e+001
1.453148e+003,9.169319e+001
1.454112e+003,9.229938e+001
1.455076e+003,9.180570e+001
1.456041e+003,9.267468e+001
1.457005e+003,9.594243e+001
1.457969e+003,9.817913e+001
1.458933e+003,9.696463e+001
1.459898e+003,9.521610e+001
1.460862e+003,9.482961e+001
1.461826e+003,9.497727e+001
1.462790e+003,9.373129e+001
1.463755e+003,9.125188e+001
1.464719e+003,9.057622e+001
1.465683e+003,9.410921e+001
1.466647e+003,9.954140e+001
1.467611e+003,1.013652e+002
1.468576e+003,9.896552e+001
1.469540e+003,9.705739e+001
1.470504e+003,9.539037e+001
1.471468e+003,9.489203e+001
1.472433e+003,9.714338e+001
1.473397e+003,9.898934e+001
1.474361e+003,9.778096e+001
1.475325e+003,9.518105e+001
1.476290e+003,9.394082e+001
1.477254e+003,9.468338e+001
1.478218e+003,9.623158e+001
1.479182e+003,9.773042e+001
1.480146e+003,9.888062e+001
1.481111e+003,9.880250e+001
1.482075e+003,9.727090e+001
1.483039e+003,9.615981e+001
1.484003e+003,9.568160e+001
1.484968e+003,9.518669e+001
1.485932e+003,9.418903e+001
1.486896e+003,9.368869e+001
1.487860e+003,9.484228e+001
1.488825e+003,9.690654e+001
1.489789e+003,9.813011e+001
1.490753e+003,9.814932e+001
1.491717e+003,9.829015e+001
1.492682e+003,9.969136e+001
1.493646e+003,1.011037e+002
1.494610e+003,9.980427e+001
1.495574e+003,9.679117e+001
1.496538e+003,9.544532e+001
1.497503e+003,9.633141e+001
1.498467e+003,9.735768e+001
1.499431e+003,9.725045e+001
1.500395e+003,9.678255e+001
1.501360e+003,9.739666e+001
1.502324e+003,9.876950e+001
1.503288e+003,9.857549e+001
1.504252e+003,9.592043e+001
1.505217e+003,9.398164e+001
1.506181e+003,9.512497e+001
1.507145e+003,9.657100e+001
1.508109e+003,9.577556e+001
1.509073e+003,9.391801e+001
1.510038e+003,9.265836e+001
1.511002e+003,9.234187e+001
1.511966e+003,9.303247e+001
1.512930e+003,9.499495e+001
1.513895e+003,9.727845e+001
1.514859e+003,9.782084e+001
1.515823e+003,9.655589e+001
1.516787e+003,9.664277e+001
1.517752e+003,9.920847e+001
1.518716e+003,1.008222e+002
1.519680e+003,9.968302e+001
1.520644e+003,9.823018e+001
1.521609e+003,9.799100e+001
1.522573e+003,9.775951e+001
1.523537e+003,9.549117e+001
1.524501e+003,9.177611e+001
1.525465e+003,8.937008e+001
1.526430e+003,8.974977e+001
1.527394e+003,9.127895e+001
1.528358e+003,9.150169e+001
1.529322e+003,9.055762e+001
1.530287e+003,9.073189e+001
1.531251e+003,9.363532e+001
1.532215e+003,9.463661e+001
1.533179e+003,9.154611e+001
1.534144e+003,8.922273e+001
1.535108e+003,9.070487e+001
1.536072e+003,9.295923e+001
1.537036e+003,9.238298e+001
1.538000e+003,8.950235e+001
1.538965e+003,8.727179e+001
1.539929e+003,8.694270e+001
1.540893e+003,8.697100e+001
1.541857e+003,8.559750e+001
1.542822e+003,8.342004e+001
1.543786e+003,8.255228e+001
1.544750e+003,8.334264e+001
1.545714e+003,8.405022e+001
1.546679e+003,8.515552e+001
1.547643e+003,8.542378e+001
1.548607e+003,8.357781e+001
1.549571e+003,8.163924e+001
1.550536e+003,8.172324e+001
1.551500e+003,8.318144e+001
1.552464e+003,8.430676e+001
1.553428e+003,8.461479e+001
1.554392e+003,8.409191e+001
1.555357e+003,8.245389e+001
1.556321e+003,8.032774e+001
1.557285e+003,7.901986e+001
1.558249e+003,7.862701e+001
1.559214e+003,7.900984e+001
1.560178e+003,8.078819e+001
1.561142e+003,8.163602e+001
1.562106e+003,8.011337e+001
1.563071e+003,7.779327e+001
1.564035e+003,7.564982e+001
1.564999e+003,7.409013e+001
1.565963e+003,7.405597e+001
1.566927e+003,7.553844e+001
1.567892e+003,7.666358e+001
1.568856e+003,7.650359e+001
1.569820e+003,7.567761e+001
1.570784e+003,7.488053e+001
1.571749e+003,7.390562e+001
1.572713e+003,7.211551e+001
1.573677e+003,6.960779e+001
1.574641e+003,6.766103e+001
1.575606e+003,6.657579e+001
1.576570e+003,6.613554e+001
1.577534e+003,6.670831e+001
1.578498e+003,6.768070e+001
1.579463e+003,6.801207e+001
1.580427e+003,6.757228e+001
1.581391e+003,6.567130e+001
1.582355e+003,6.159264e+001
1.583319e+003,5.821989e+001
1.584284e+003,5.779063e+001
1.585248e+003,5.893202e+001
1.586212e+003,6.026104e+001
1.587176e+003,6.134447e+001
1.588141e+003,6.125088e+001
1.589105e+003,5.989365e+001
1.590069e+003,5.834603e+001
1.591033e+003,5.708733e+001
1.591998e+003,5.609650e+001
1.592962e+003,5.540784e+001
1.593926e+003,5.497718e+001
1.594890e+003,5.461050e+001
1.595854e+003,5.432080e+001
1.596819e+003,5.436686e+001
1.597783e+003,5.536945e+001
1.598747e+003,5.571709e+001
1.599711e+003,5.368024e+001
1.600676e+003,5.068979e+001
1.601640e+003,4.816215e+001
1.602604e+003,4.641340e+001
1.603568e+003,4.596697e+001
1.604533e+003,4.708181e+001
1.605497e+003,4.813798e+001
1.606461e+003,4.753221e+001
1.607425e+003,4.570589e+001
1.608390e+003,4.351491e+001
1.609354e+003,4.098640e+001
1.610318e+003,4.004982e+001
1.611282e+003,4.165210e+001
1.612246e+003,4.282836e+001
1.613211e+003,4.211149e+001
1.614175e+003,4.058254e+001
1.615139e+003,3.851052e+001
1.616103e+003,3.644999e+001
1.617068e+003,3.523284e+001
1.618032e+003,3.491096e+001
1.618996e+003,3.494168e+001
1.619960e+003,3.504815e+001
1.620925e+003,3.490525e+001
1.621889e+003,3.393661e+001
1.622853e+003,3.235444e+001
1.623817e+003,3.137352e+001
1.624781e+003,3.119056e+001
1.625746e+003,3.077125e+001
1.626710e+003,2.952337e+001
1.627674e+003,2.849784e+001
1.628638e+003,2.849037e+001
1.629603e+003,2.850564e+001
1.630567e+003,2.776594e+001
1.631531e+003,2.647662e+001
1.632495e+003,2.514139e+001
1.633460e+003,2.393676e+001
1.634424e+003,2.276068e+001
1.635388e+003,2.145619e+001
1.636352e+003,2.025168e+001
1.637317e+003,1.978850e+001
1.638281e+003,1.997195e+001
1.639245e+003,1.931994e+001
1.640209e+003,1.742114e+001
1.641173e+003,1.613712e+001
1.642138e+003,1.671744e+001
1.643102e+003,1.696530e+001
1.644066e+003,1.510530e+001
1.645030e+003,1.294352e+001
1.645995e+003,1.245923e+001
1.646959e+003,1.316609e+001
1.647923e+003,1.343160e+001
1.648887e+003,1.275740e+001
1.649852e+003,1.183380e+001
1.650816e+003,1.117865e+001
1.651780e+003,1.072180e+001
1.652744e+003,1.030644e+001
1.653708e+003,9.934283e+000
1.654673e+003,9.886127e+000
1.655637e+003,1.036412e+001
1.656601e+003,1.043881e+001
1.657565e+003,9.361425e+000
1.658530e+003,8.502460e+000
1.659494e+003,9.418195e+000
1.660458e+003,1.030516e+001
1.661422e+003,8.784595e+000
1.662387e+003,5.503052e+000
1.663351e+003,2.725623e+000
1.664315e+003,1.258795e+000
1.665279e+003,7.789307e-001
1.666244e+003,1.204419e+000
1.667208e+003,2.196515e+000
1.668172e+003,3.362787e+000
1.669136e+003,4.582269e+000
1.670100e+003,4.027655e+000
1.671065e+003,8.476013e-001
1.672029e+003,-9.597961e-001
1.672993e+003,1.350037e+000
1.673957e+003,3.342334e+000
1.674922e+003,1.275073e+000
1.675886e+003,-2.029175e+000
1.676850e+003,-3.388953e+000
1.677814e+003,-3.067944e+000
1.678779e+003,-2.882666e+000
1.679743e+003,-3.398749e+000
1.680707e+003,-4.051562e+000
1.681671e+003,-4.449060e+000
1.682635e+003,-4.687073e+000
1.683600e+003,-5.038373e+000
1.684564e+003,-5.381555e+000
1.685528e+003,-4.874933e+000
1.686492e+003,-3.302887e+000
1.687457e+003,-2.450092e+000
1.688421e+003,-3.037170e+000
1.689385e+003,-4.189056e+000
1.690349e+003,-5.738440e+000
1.691314e+003,-7.090836e+000
1.692278e+003,-7.282480e+000
1.693242e+003,-6.700479e+000
1.694206e+003,-6.865637e+000
1.695171e+003,-8.206961e+000
1.696135e+003,-9.528104e+000
1.697099e+003,-1.013691e+001
1.698063e+003,-1.027667e+001
1.699027e+003,-1.025524e+001
1.699992e+003,-9.999927e+000
1.700956e+003,-9.125732e+000
1.701920e+003,-7.647153e+000
1.702884e+003,-6.701630e+000
1.703849e+003,-6.651239e+000
1.704813e+003,-7.430285e+000
1.705777e+003,-9.484042e+000
1.706741e+003,-1.183438e+001
1.707706e+003,-1.274481e+001
1.708670e+003,-1.253543e+001
1.709634e+003,-1.250149e+001
1.710598e+003,-1.286133e+001
1.711563e+003,-1.306100e+001
1.712527e+003,-1.270695e+001
1.713491e+003,-1.229587e+001
1.714455e+003,-1.207255e+001
1.715419e+003,-1.212804e+001
1.716384e+003,-1.275715e+001
1.717348e+003,-1.386305e+001
1.718312e+003,-1.501925e+001
1.719276e+003,-1.610209e+001
1.720241e+003,-1.638539e+001
1.721205e+003,-1.506837e+001
1.722169e+003,-1.346159e+001
1.723133e+003,-1.387894e+001
1.724098e+003,-1.595251e+001
1.725062e+003,-1.680367e+001
1.726026e+003,-1.604119e+001
1.726990e+003,-1.597052e+001
1.727954e+003,-1.803258e+001
1.728919e+003,-1.944014e+001
1.729883e+003,-1.819724e+001
1.730847e+003,-1.633136e+001
1.731811e+003,-1.580938e+001
1.732776e+003,-1.638555e+001
1.733740e+003,-1.732659e+001
1.734704e+003,-1.829054e+001
1.735668e+003,-1.878436e+001
1.736633e+003,-1.853032e+001
1.737597e+003,-1.785392e+001
1.738561e+003,-1.708734e+001
1.739525e+003,-1.636543e+001
1.740490e+003,-1.647065e+001
1.741454e+003,-1.773969e+001
1.742418e+003,-1.868013e+001
1.743382e+003,-1.937037e+001
1.744346e+003,-1.964649e+001
1.745311e+003,-1.906633e+001
1.746275e+003,-1.853114e+001
1.747239e+003,-1.889946e+001
1.748203e+003,-1.935754e+001
1.749168e+003,-1.839195e+001
1.750132e+003,-1.657995e+001
1.751096e+003,-1.612730e+001
1.752060e+003,-1.773901e+001
1.753025e+003,-1.975918e+001
1.753989e+003,-2.066516e+001
1.754953e+003,-2.075802e+001
1.755917e+003,-2.062577e+001
1.756881e+003,-2.025867e+001
1.757846e+003,-2.060943e+001
1.758810e+003,-2.222289e+001
1.759774e+003,-2.291178e+001
1.760738e+003,-2.196325e+001
1.761703e+003,-2.066257e+001
1.762667e+003,-1.883327e+001
1.763631e+003,-1.743486e+001
1.764595e+003,-1.735253e+001
1.765560e+003,-1.815407e+001
1.766524e+003,-1.927966e+001
1.767488e+003,-2.046861e+001
1.768452e+003,-2.110283e+001
1.769417e+003,-2.078616e+001
1.770381e+003,-2.024914e+001
1.771345e+003,-2.032862e+001
1.772309e+003,-2.082213e+001
1.773273e+003,-2.147680e+001
1.774238e+003,-2.220584e+001
1.775202e+003,-2.162199e+001
1.776166e+003,-1.928209e+001
1.777130e+003,-1.747906e+001
1.778095e+003,-1.721568e+001
1.779059e+003,-1.744901e+001
1.780023e+003,-1.749485e+001
1.780987e+003,-1.738553e+001
1.781952e+003,-1.702259e+001
1.782916e+003,-1.656359e+001
1.783880e+003,-1.676098e+001
1.784844e+003,-1.786893e+001
1.785808e+003,-1.875499e+001
1.786773e+003,-1.856283e+001
1.787737e+003,-1.843205e+001
1.788701e+003,-1.981492e+001
1.789665e+003,-2.145258e+001
1.790630e+003,-2.112309e+001
1.791594e+003,-1.931698e+001
1.792558e+003,-1.805767e+001
1.793522e+003,-1.793948e+001
1.794487e+003,-1.893218e+001
1.795451e+003,-2.109555e+001
1.796415e+003,-2.305240e+001
1.797379e+003,-2.285615e+001
1.798344e+003,-2.100754e+001
1.799308e+003,-1.987310e+001
1.800272e+003,-1.961728e+001
1.801236e+003,-1.956779e+001
1.802201e+003,-1.993169e+001
1.803165e+003,-2.006763e+001
1.804129e+003,-1.971732e+001
1.805093e+003,-1.930594e+001
1.806057e+003,-1.913212e+001
1.807022e+003,-1.899072e+001
1.807986e+003,-1.856871e+001
1.808950e+003,-1.796107e+001
1.809914e+003,-1.749092e+001
1.810879e+003,-1.724365e+001
1.811843e+003,-1.693329e+001
1.812807e+003,-1.634084e+001
1.813771e+003,-1.606505e+001
1.814736e+003,-1.731527e+001
1.815700e+003,-1.962274e+001
1.816664e+003,-2.011689e+001
1.817628e+003,-1.853907e+001
1.818593e+003,-1.804304e+001
1.819557e+003,-1.945551e+001
1.820521e+003,-2.041619e+001
1.821485e+003,-1.972362e+001
1.822449e+003,-1.881802e+001
1.823414e+003,-1.894387e+001
1.824378e+003,-1.941164e+001
1.825342e+003,-1.920915e+001
1.826306e+003,-1.848438e+001
1.827271e+003,-1.805035e+001
1.828235e+003,-1.809147e+001
1.829199e+003,-1.838500e+001
1.830163e+003,-1.902960e+001
1.831128e+003,-1.959527e+001
1.832092e+003,-1.971314e+001
1.833056e+003,-1.953948e+001
1.834020e+003,-1.922002e+001
1.834984e+003,-1.885979e+001
1.835949e+003,-1.873927e+001
1.836913e+003,-1.885614e+001
1.837877e+003,-1.881648e+001
1.838841e+003,-1.842545e+001
1.839806e+003,-1.775969e+001
1.840770e+003,-1.683816e+001
1.841734e+003,-1.586339e+001
1.842698e+003,-1.539866e+001
1.843663e+003,-1.541998e+001
1.844627e+003,-1.583162e+001
1.845591e+003,-1.774044e+001
1.846555e+003,-1.830132e+001
1.847520e+003,-1.639336e+001
1.848484e+003,-1.456029e+001
1.849448e+003,-1.323876e+001
1.850412e+003,-1.277384e+001
1.851376e+003,-1.424503e+001
1.852341e+003,-1.633964e+001
1.853305e+003,-1.653647e+001
1.854269e+003,-1.504411e+001
1.855233e+003,-1.487113e+001
1.856198e+003,-1.730012e+001
1.857162e+003,-1.925659e+001
1.858126e+003,-1.735176e+001
1.859090e+003,-1.358946e+001
1.860055e+003,-1.198609e+001
1.861019e+003,-1.230330e+001
1.861983e+003,-1.292416e+001
1.862947e+003,-1.374666e+001
1.863911e+003,-1.527404e+001
1.864876e+003,-1.801054e+001
1.865840e+003,-1.948873e+001
1.866804e+003,-1.777435e+001
1.867768e+003,-1.522534e+001
1.868733e+003,-1.476293e+001
1.869697e+003,-1.548959e+001
1.870661e+003,-1.444896e+001
1.871625e+003,-1.162609e+001
1.872590e+003,-1.013515e+001
1.873554e+003,-1.087359e+001
1.874518e+003,-1.176385e+001
1.875482e+003,-1.256821e+001
1.876447e+003,-1.293881e+001
1.877411e+003,-1.223759e+001
1.878375e+003,-1.131191e+001
1.879339e+003,-1.144143e+001
1.880303e+003,-1.209570e+001
1.881268e+003,-1.171544e+001
1.882232e+003,-1.022137e+001
1.883196e+003,-8.933752e+000
1.884160e+003,-8.592962e+000
1.885125e+003,-9.252924e+000
1.886089e+003,-1.120636e+001
1.887053e+003,-1.346588e+001
1.888017e+003,-1.272755e+001
1.888982e+003,-8.919696e+000
1.889946e+003,-7.168994e+000
1.890910e+003,-7.857574e+000
1.891874e+003,-8.695889e+000
1.892839e+003,-9.408984e+000
1.893803e+003,-1.001041e+001
1.894767e+003,-1.069200e+001
1.895731e+003,-1.099145e+001
1.896695e+003,-1.011904e+001
1.897660e+003,-8.801435e+000
1.898624e+003,-8.275848e+000
1.899588e+003,-8.510635e+000
1.900552e+003,-8.784589e+000
1.901517e+003,-9.015570e+000
1.902481e+003,-9.189581e+000
1.903445e+003,-9.246695e+000
1.904409e+003,-9.254336e+000
1.905374e+003,-9.372202e+000
1.906338e+003,-9.324527e+000
1.907302e+003,-8.644073e+000
1.908266e+003,-7.685852e+000
1.909230e+003,-7.077619e+000
1.910195e+003,-6.965109e+000
1.911159e+003,-7.446219e+000
1.912123e+003,-8.436234e+000
1.913087e+003,-8.861506e+000
1.914052e+003,-7.641434e+000
1.915016e+003,-6.092898e+000
1.915980e+003,-7.201150e+000
1.916944e+003,-1.065132e+001
1.917909e+003,-1.211784e+001
1.918873e+003,-1.125591e+001
1.919837e+003,-1.030575e+001
1.920801e+003,-9.368057e+000
1.921766e+003,-8.741458e+000
1.922730e+003,-8.864471e+000
1.923694e+003,-8.907245e+000
1.924658e+003,-7.882706e+000
1.925622e+003,-6.685788e+000
1.926587e+003,-6.291654e+000
1.927551e+003,-6.637665e+000
1.928515e+003,-7.726297e+000
1.929479e+003,-9.684814e+000
1.930444e+003,-1.073659e+001
1.931408e+003,-9.664371e+000
1.932372e+003,-8.746714e+000
1.933336e+003,-9.485171e+000
1.934301e+003,-1.030791e+001
1.935265e+003,-9.751282e+000
1.936229e+003,-8.545563e+000
1.937193e+003,-7.660336e+000
1.938157e+003,-7.245718e+000
1.939122e+003,-7.247476e+000
1.940086e+003,-7.559613e+000
1.941050e+003,-7.999155e+000
1.942014e+003,-8.449366e+000
1.942979e+003,-8.534574e+000
1.943943e+003,-7.680560e+000
1.944907e+003,-6.336524e+000
1.945871e+003,-5.901761e+000
1.946836e+003,-6.291931e+000
1.947800e+003,-6.094278e+000
1.948764e+003,-5.224640e+000
1.949728e+003,-4.658884e+000
1.950693e+003,-4.688507e+000
1.951657e+003,-4.678754e+000
1.952621e+003,-4.076883e+000
1.953585e+003,-3.695560e+000
1.954549e+003,-4.360114e+000
1.955514e+003,-5.788434e+000
1.956478e+003,-7.945294e+000
1.957442e+003,-1.065641e+001
1.958406e+003,-1.086847e+001
1.959371e+003,-7.367548e+000
1.960335e+003,-4.649817e+000
1.961299e+003,-3.330377e+000
1.962263e+003,-2.830362e+000
1.963228e+003,-3.709708e+000
1.964192e+003,-4.540857e+000
1.965156e+003,-4.192660e+000
1.966120e+003,-3.327591e+000
1.967084e+003,-2.754575e+000
1.968049e+003,-2.469406e+000
1.969013e+003,-2.054962e+000
1.969977e+003,-1.518079e+000
1.970941e+003,-1.526569e+000
1.971906e+003,-2.497888e+000
1.972870e+003,-3.512610e+000
1.973834e+003,-3.416831e+000
1.974798e+003,-2.884293e+000
1.975763e+003,-3.201660e+000
1.976727e+003,-4.093860e+000
1.977691e+003,-4.723905e+000
1.978655e+003,-5.043817e+000
1.979620e+003,-5.155282e+000
1.980584e+003,-5.075629e+000
1.981548e+003,-5.149045e+000
1.982512e+003,-5.604620e+000
1.983476e+003,-5.994943e+000
1.984441e+003,-5.808682e+000
1.985405e+003,-5.356528e+000
1.986369e+003,-5.446277e+000
1.987333e+003,-6.026095e+000
1.988298e+003,-5.537723e+000
1.989262e+003,-3.342789e+000
1.990226e+003,-2.128616e+000
1.991190e+003,-2.859643e+000
1.992155e+003,-2.900201e+000
1.993119e+003,-1.231873e-001
1.994083e+003,1.694089e+000
1.995047e+003,-7.942871e-001
1.996011e+003,-4.069308e+000
1.996976e+003,-4.137772e+000
1.997940e+003,-2.191425e+000
1.998904e+003,-1.390344e+000
1.999868e+003,-1.989590e+000
2.000833e+003,-2.166425e+000
2.001797e+003,-1.316577e+000
2.002761e+003,-4.576599e-001
2.003725e+003,2.769775e-002
2.004690e+003,3.894348e-001
2.005654e+003,8.274170e-001
2.006618e+003,1.181012e+000
2.007582e+003,1.353232e+000
2.008547e+003,1.289084e+000
2.009511e+003,6.527771e-001
2.010475e+003,-2.627228e-001
2.011439e+003,-4.291779e-001
2.012403e+003,3.995819e-001
2.013368e+003,1.302460e+000
2.014332e+003,1.663736e+000
2.015296e+003,1.446991e+000
2.016260e+003,2.623413e-001
2.017225e+003,-1.291217e+000
2.018189e+003,-1.866385e+000
2.019153e+003,-1.599594e+000
2.020117e+003,-7.220154e-001
2.021082e+003,5.830871e-001
2.022046e+003,1.000046e+000
2.023010e+003,2.358215e-001
2.023974e+003,-5.858094e-001
2.024938e+003,-8.756287e-001
2.025903e+003,-1.054257e+000
2.026867e+003,-1.549582e+000
2.027831e+003,-2.272543e+000
2.028795e+003,-3.088083e+000
2.029760e+003,-3.924158e+000
2.030724e+003,-3.425659e+000
2.031688e+003,-8.751648e-001
2.032652e+003,4.051208e-002
2.033617e+003,-2.020926e+000
2.034581e+003,-2.799301e+000
2.035545e+003,-1.207245e-001
2.036509e+003,2.326593e+000
2.037474e+003,1.878885e+000
2.038438e+003,7.362732e-001
2.039402e+003,1.600116e+000
2.040366e+003,3.412900e+000
2.041330e+003,3.664108e+000
2.042295e+003,2.378381e+000
2.043259e+003,1.651321e+000
2.044223e+003,2.056589e+000
2.045187e+003,2.106738e+000
2.046152e+003,8.501495e-001
2.047116e+003,8.518372e-002
2.048080e+003,1.231808e+000
2.049044e+003,2.235638e+000
2.050009e+003,1.376444e+000
2.050973e+003,-1.802277e-001
2.051937e+003,-1.309582e+000
2.052901e+003,-1.755582e+000
2.053865e+003,-1.237405e+000
2.054830e+003,7.940064e-002
2.055794e+003,1.368265e+000
2.056758e+003,2.356198e+000
2.057722e+003,2.455163e+000
2.058687e+003,3.180969e-001
2.059651e+003,-1.787393e+000
2.060615e+003,-1.007446e+000
2.061579e+003,5.815643e-001
2.062544e+003,-2.685364e-001
2.063508e+003,-2.308933e+000
2.064472e+003,-2.400089e+000
2.065436e+003,-6.955169e-001
2.066401e+003,5.507050e-001
2.067365e+003,5.976898e-001
2.068329e+003,1.986420e-001
2.069293e+003,-1.456024e-001
2.070258e+003,-4.748749e-001
2.071222e+003,-9.140655e-001
2.072186e+003,-1.158795e+000
2.073150e+003,-3.300262e-001
2.074115e+003,1.246146e+000
2.075079e+003,2.176599e+000
2.076043e+003,2.426437e+000
2.077007e+003,2.132828e+000
2.077971e+003,1.395401e+000
2.078936e+003,1.177359e+000
2.079900e+003,1.822562e+000
2.080864e+003,2.840903e+000
2.081828e+003,3.955804e+000
2.082792e+003,4.669379e+000
2.083757e+003,4.218497e+000
2.084721e+003,2.939844e+000
2.085685e+003,2.040155e+000
2.086649e+003,1.560873e+000
2.087614e+003,8.697052e-001
2.088578e+003,-2.632782e-001
2.089542e+003,-3.170502e-001
2.090506e+003,1.321509e+000
2.091471e+003,2.378671e+000
2.092435e+003,1.932581e+000
2.093399e+003,1.238385e+000
2.094363e+003,1.091421e+000
2.095328e+003,1.166043e+000
2.096292e+003,9.832672e-001
2.097256e+003,6.544434e-001
2.098220e+003,7.117401e-001
2.099185e+003,1.263818e+000
2.100149e+003,1.534418e+000
2.101113e+003,8.118194e-001
2.102077e+003,1.040500e+000
2.103042e+003,3.795578e+000
2.104006e+003,5.281482e+000
2.104970e+003,3.218606e+000
2.105934e+003,1.430194e+000
2.106898e+003,2.642041e+000
2.107863e+003,4.514365e+000
2.108827e+003,4.535132e+000
2.109791e+003,3.412659e+000
2.110755e+003,2.664890e+000
2.111719e+003,2.403073e+000
2.112684e+003,2.818686e+000
2.113648e+003,4.497846e+000
2.114612e+003,5.283456e+000
2.115576e+003,3.639618e+000
2.116541e+003,2.512668e+000
2.117505e+003,3.569461e+000
2.118469e+003,4.761767e+000
2.119433e+003,4.486572e+000
2.120398e+003,3.984580e+000
2.121362e+003,5.006949e+000
2.122326e+003,6.581586e+000
2.123290e+003,6.594766e+000
2.124255e+003,5.137503e+000
2.125219e+003,4.018954e+000
2.126183e+003,3.750556e+000
2.127147e+003,3.632226e+000
2.128112e+003,3.022357e+000
2.129076e+003,3.056656e+000
2.130040e+003,5.286111e+000
2.131004e+003,7.321558e+000
2.131969e+003,6.900308e+000
2.132933e+003,5.502896e+000
2.133897e+003,4.641171e+000
2.134861e+003,4.438675e+000
2.135825e+003,4.754199e+000
2.136790e+003,5.433252e+000
2.137754e+003,6.424936e+000
2.138718e+003,7.623364e+000
2.139682e+003,8.083621e+000
2.140646e+003,6.932157e+000
2.141611e+003,6.149304e+000
2.142575e+003,8.389270e+000
2.143539e+003,1.061212e+001
2.144503e+003,9.395142e+000
2.145468e+003,6.634317e+000
2.146432e+003,4.010770e+000
2.147396e+003,2.369571e+000
2.148360e+003,3.586670e+000
2.149325e+003,6.751022e+000
2.150289e+003,8.637100e+000
2.151253e+003,8.335733e+000
2.152217e+003,7.256958e+000
2.153182e+003,6.199988e+000
2.154146e+003,5.596982e+000
2.155110e+003,6.074982e+000
2.156074e+003,6.879730e+000
2.157039e+003,7.026361e+000
2.158003e+003,6.779019e+000
2.158967e+003,6.433133e+000
2.159931e+003,6.204291e+000
2.160896e+003,6.617011e+000
2.161860e+003,7.472592e+000
2.162824e+003,7.924716e+000
2.163788e+003,7.864926e+000
2.164752e+003,8.049243e+000
2.165717e+003,8.819418e+000
2.166681e+003,9.481653e+000
2.167645e+003,9.408899e+000
2.168609e+003,9.022226e+000
2.169573e+003,9.019842e+000
2.170538e+003,9.084857e+000
2.171502e+003,8.385324e+000
2.172466e+003,7.266644e+000
2.173430e+003,6.597305e+000
2.174395e+003,6.404428e+000
2.175359e+003,6.478665e+000
2.176323e+003,6.723007e+000
2.177287e+003,7.075686e+000
2.178252e+003,7.451562e+000
2.179216e+003,7.519437e+000
2.180180e+003,7.052023e+000
2.181144e+003,6.474637e+000
2.182109e+003,6.200150e+000
2.183073e+003,6.240695e+000
2.184037e+003,6.787836e+000
2.185001e+003,7.638199e+000
2.185966e+003,8.584085e+000
2.186930e+003,9.375479e+000
2.187894e+003,8.993854e+000
2.188858e+003,7.573599e+000
2.189823e+003,5.982104e+000
2.190787e+003,4.693240e+000
2.191751e+003,5.229654e+000
2.192715e+003,8.264773e+000
2.193679e+003,1.056254e+001
2.194644e+003,8.778351e+000
2.195608e+003,5.864417e+000
2.196572e+003,7.210687e+000
2.197536e+003,1.071606e+001
2.198500e+003,1.096063e+001
2.199465e+003,9.106176e+000
2.200429e+003,8.587964e+000
2.201393e+003,9.298182e+000
2.202357e+003,9.562116e+000
2.203322e+003,9.138074e+000
2.204286e+003,8.826319e+000
2.205250e+003,8.943789e+000
2.206214e+003,9.222257e+000
2.207179e+003,9.480738e+000
2.208143e+003,9.810870e+000
2.209107e+003,1.042026e+001
2.210071e+003,1.093666e+001
2.211036e+003,1.030298e+001
2.212000e+003,9.233902e+000
2.212964e+003,9.708468e+000
2.213928e+003,1.119297e+001
2.214893e+003,1.199146e+001
2.215857e+003,1.211116e+001
2.216821e+003,1.235751e+001
2.217785e+003,1.292826e+001
2.218750e+003,1.379099e+001
2.219714e+003,1.484860e+001
2.220678e+003,1.527048e+001
2.221642e+003,1.430438e+001
2.222606e+003,1.337906e+001
2.223571e+003,1.449521e+001
2.224535e+003,1.671082e+001
2.225499e+003,1.900223e+001
2.226463e+003,2.078038e+001
2.227427e+003,1.978332e+001
2.228392e+003,1.752741e+001
2.229356e+003,1.845147e+001
2.230320e+003,2.232596e+001
2.231284e+003,2.610505e+001
2.232249e+003,2.863212e+001
2.233213e+003,2.959365e+001
2.234177e+003,2.896792e+001
2.235141e+003,2.881433e+001
2.236106e+003,3.104757e+001
2.237070e+003,3.415840e+001
2.238034e+003,3.664840e+001
2.238998e+003,3.850304e+001
2.239963e+003,3.932407e+001
2.240927e+003,3.985183e+001
2.241891e+003,4.118298e+001
2.242855e+003,4.336524e+001
2.243820e+003,4.669694e+001
2.244784e+003,5.056135e+001
2.245748e+003,5.274056e+001
2.246712e+003,5.305158e+001
2.247677e+003,5.489043e+001
2.248641e+003,6.017697e+001
2.249605e+003,6.484994e+001
2.250569e+003,6.503505e+001
2.251533e+003,6.421614e+001
2.252498e+003,6.579549e+001
2.253462e+003,6.775883e+001
2.254426e+003,6.806081e+001
2.255390e+003,6.737624e+001
2.256354e+003,6.660168e+001
2.257319e+003,6.571222e+001
2.258283e+003,6.497595e+001
2.259247e+003,6.382172e+001
2.260211e+003,6.007165e+001
2.261176e+003,5.352830e+001
2.262140e+003,4.802514e+001
2.263104e+003,4.536808e+001
2.264068e+003,4.323699e+001
2.265033e+003,4.040244e+001
2.265997e+003,3.761698e+001
2.266961e+003,3.495484e+001
2.267925e+003,3.291603e+001
2.268890e+003,3.274218e+001
2.269854e+003,3.263418e+001
2.270818e+003,3.036067e+001
2.271782e+003,2.692766e+001
2.272747e+003,2.383856e+001
2.273711e+003,2.153198e+001
2.274675e+003,2.083523e+001
2.275639e+003,2.192666e+001
2.276604e+003,2.222156e+001
2.277568e+003,2.078986e+001
2.278532e+003,1.910908e+001
2.279496e+003,1.682744e+001
2.280460e+003,1.528175e+001
2.281425e+003,1.608337e+001
2.282389e+003,1.639840e+001
2.283353e+003,1.351393e+001
2.284317e+003,1.050034e+001
2.285281e+003,1.098284e+001
2.286246e+003,1.292745e+001
2.287210e+003,1.246399e+001
2.288174e+003,9.975485e+000
2.289138e+003,8.470761e+000
2.290103e+003,8.179739e+000
2.291067e+003,8.162683e+000
2.292031e+003,8.865225e+000
2.292995e+003,8.972186e+000
2.293960e+003,7.636124e+000
2.294924e+003,7.198608e+000
2.295888e+003,9.123297e+000
2.296852e+003,1.028703e+001
2.297817e+003,8.637762e+000
2.298781e+003,6.639157e+000
2.299745e+003,6.709073e+000
2.300709e+003,7.517508e+000
2.301674e+003,6.611814e+000
2.302638e+003,4.455728e+000
2.303602e+003,3.507138e+000
2.304566e+003,3.833719e+000
2.305531e+003,3.959982e+000
2.306495e+003,3.856988e+000
2.307459e+003,4.308875e+000
2.308423e+003,5.519061e+000
2.309387e+003,5.569446e+000
2.310352e+003,3.839291e+000
2.311316e+003,2.604748e+000
2.312280e+003,3.024680e+000
2.313244e+003,3.692673e+000
2.314208e+003,3.365714e+000
2.315173e+003,3.030176e+000
2.316137e+003,4.367517e+000
2.317101e+003,6.307281e+000
2.318065e+003,5.491263e+000
2.319030e+003,2.880121e+000
2.319994e+003,2.608466e+000
2.320958e+003,4.034863e+000
2.321922e+003,4.339667e+000
2.322887e+003,3.467599e+000
2.323851e+003,2.505710e+000
2.324815e+003,1.791766e+000
2.325779e+003,1.509396e+000
2.326744e+003,1.709335e+000
2.327708e+003,2.302979e+000
2.328672e+003,3.249203e+000
2.329636e+003,3.370111e+000
2.330601e+003,8.317901e-001
2.331565e+003,-1.804959e+000
2.332529e+003,-1.088007e+000
2.333493e+003,5.496551e-001
2.334458e+003,5.705566e-002
2.335422e+003,-1.232364e+000
2.336386e+003,-1.257517e+000
2.337350e+003,-5.441284e-001
2.338314e+003,-2.616730e-001
2.339279e+003,-5.553039e-001
2.340243e+003,-1.345206e+000
2.341207e+003,-2.476358e+000
2.342171e+003,-3.064899e+000
2.343135e+003,-2.753458e+000
2.344100e+003,-2.261313e+000
2.345064e+003,-1.576608e+000
2.346028e+003,-1.199576e+000
2.346992e+003,-1.194629e+000
2.347957e+003,-1.627789e+000
2.348921e+003,-3.250159e+000
2.349885e+003,-4.561288e+000
2.350849e+003,-4.240671e+000
2.351814e+003,-3.218665e+000
2.352778e+003,-2.481766e+000
2.353742e+003,-1.988037e+000
2.354706e+003,-1.438599e+000
2.355671e+003,-8.709381e-001
2.356635e+003,-1.209454e+000
2.357599e+003,-2.773441e+000
2.358563e+003,-4.000216e+000
2.359528e+003,-5.016385e+000
2.360492e+003,-5.220679e+000
2.361456e+003,-4.277420e+000
2.362420e+003,-3.456720e+000
2.363385e+003,-3.051440e+000
2.364349e+003,-3.407193e+000
2.365313e+003,-4.871542e+000
2.366277e+003,-5.992734e+000
2.367241e+003,-5.394839e+000
2.368206e+003,-3.892383e+000
2.369170e+003,-2.675708e+000
2.370134e+003,-1.909070e+000
2.371098e+003,-2.314523e+000
2.372063e+003,-3.552719e+000
2.373027e+003,-4.260782e+000
2.373991e+003,-4.463122e+000
2.374955e+003,-4.348535e+000
2.375919e+003,-4.029086e+000
2.376884e+003,-3.701679e+000
2.377848e+003,-3.441824e+000
2.378812e+003,-3.245142e+000
2.379776e+003,-3.130749e+000
2.380741e+003,-3.344302e+000
2.381705e+003,-4.038306e+000
2.382669e+003,-4.460263e+000
2.383633e+003,-3.931827e+000
2.384598e+003,-3.128894e+000
2.385562e+003,-2.344815e+000
2.386526e+003,-1.854553e+000
2.387490e+003,-2.305472e+000
2.388455e+003,-2.653653e+000
2.389419e+003,-1.098352e+000
2.390383e+003,5.663269e-001
2.391347e+003,-7.488556e-001
2.392312e+003,-3.694913e+000
2.393276e+003,-4.735654e+000
2.394240e+003,-3.792816e+000
2.395204e+003,-3.265640e+000
2.396168e+003,-3.577976e+000
2.397133e+003,-3.389929e+000
2.398097e+003,-2.389459e+000
2.399061e+003,-1.344257e+000
2.400025e+003,2.568512e-001
2.400990e+003,5.894287e-001
2.401954e+003,-1.571338e+000
2.402918e+003,-2.927212e+000
2.403882e+003,-1.640784e+000
2.404846e+003,-9.867249e-002
2.405811e+003,-2.625092e-001
2.406775e+003,-1.029581e+000
2.407739e+003,-8.240326e-001
2.408703e+003,-1.559143e-001
2.409668e+003,-3.460754e-001
2.410632e+003,-1.272711e+000
2.411596e+003,-2.796072e+000
2.412560e+003,-4.506751e+000
2.413525e+003,-4.145166e+000
2.414489e+003,-2.176465e+000
2.415453e+003,-9.121369e-001
2.416417e+003,-6.343628e-001
2.417382e+003,-8.649597e-001
2.418346e+003,-1.318689e+000
2.419310e+003,-1.482220e+000
2.420274e+003,-1.140064e+000
2.421239e+003,-5.718506e-001
2.422203e+003,2.561584e-001
2.423167e+003,5.402985e-001
2.424131e+003,-1.135937e+000
2.425095e+003,-2.412085e+000
2.426060e+003,-1.062457e+000
2.427024e+003,4.764160e-001
2.427988e+003,-3.509827e-002
2.428952e+003,-9.059509e-001
2.429917e+003,-3.407105e-001
2.430881e+003,1.027808e+000
2.431845e+003,2.374579e+000
2.432809e+003,3.450601e+000
2.433773e+003,3.629840e+000
2.434738e+003,2.928671e+000
2.435702e+003,2.042389e+000
2.436666e+003,4.170044e-001
2.437630e+003,8.316467e-001
2.438595e+003,3.958786e+000
2.439559e+003,6.075821e+000
2.440523e+003,6.635425e+000
2.441487e+003,7.059817e+000
2.442452e+003,7.761462e+000
2.443416e+003,7.719525e+000
2.444380e+003,6.420181e+000
2.445344e+003,4.941589e+000
2.446309e+003,4.154602e+000
2.447273e+003,4.066510e+000
2.448237e+003,4.750720e+000
2.449201e+003,5.930575e+000
2.450166e+003,7.911344e+000
2.451130e+003,9.504038e+000
2.452094e+003,7.725000e+000
2.453058e+003,4.971921e+000
2.454022e+003,5.778159e+000
2.454987e+003,8.069061e+000
2.455951e+003,7.082443e+000
2.456915e+003,3.899493e+000
2.457879e+003,2.773343e+000
2.458844e+003,4.103473e+000
2.459808e+003,5.233777e+000
2.460772e+003,5.515051e+000
2.461736e+003,5.913919e+000
2.462700e+003,6.371463e+000
2.463665e+003,7.333493e+000
2.464629e+003,1.031450e+001
2.465593e+003,1.138262e+001
2.466557e+003,8.729334e+000
2.467522e+003,6.080154e+000
2.468486e+003,4.526224e+000
2.469450e+003,4.824323e+000
2.470414e+003,8.019794e+000
2.471379e+003,1.125525e+001
2.472343e+003,1.096610e+001
2.473307e+003,9.001941e+000
2.474271e+003,9.332895e+000
2.475236e+003,1.101672e+001
2.476200e+003,1.069856e+001
2.477164e+003,9.253860e+000
2.478128e+003,9.447805e+000
2.479093e+003,1.072433e+001
2.480057e+003,1.150419e+001
2.481021e+003,1.160218e+001
2.481985e+003,1.090632e+001
2.482949e+003,9.838229e+000
2.483914e+003,9.784973e+000
2.484878e+003,1.090889e+001
2.485842e+003,1.128688e+001
2.486806e+003,9.960492e+000
2.487771e+003,9.425763e+000
2.488735e+003,1.159300e+001
2.489699e+003,1.306360e+001
2.490663e+003,1.218364e+001
2.491627e+003,1.152093e+001
2.492592e+003,1.228063e+001
2.493556e+003,1.300959e+001
2.494520e+003,1.293655e+001
2.495484e+003,1.275169e+001
2.496449e+003,1.297534e+001
2.497413e+003,1.343861e+001
2.498377e+003,1.394449e+001
2.499341e+003,1.447124e+001
2.500306e+003,1.491301e+001
2.501270e+003,1.535700e+001
2.502234e+003,1.633476e+001
2.503198e+003,1.755331e+001
2.504163e+003,1.774536e+001
2.505127e+003,1.724838e+001
2.506091e+003,1.746875e+001
2.507055e+003,1.816989e+001
2.508020e+003,1.777374e+001
2.508984e+003,1.650719e+001
2.509948e+003,1.646614e+001
2.510912e+003,1.817509e+001
2.511876e+003,1.998851e+001
2.512841e+003,2.145196e+001
2.513805e+003,2.237180e+001
2.514769e+003,2.201759e+001
2.515733e+003,2.213342e+001
2.516698e+003,2.400221e+001
2.517662e+003,2.505945e+001
2.518626e+003,2.403721e+001
2.519590e+003,2.310746e+001
2.520554e+003,2.325798e+001
2.521519e+003,2.406678e+001
2.522483e+003,2.521413e+001
2.523447e+003,2.668514e+001
2.524411e+003,2.857921e+001
2.525376e+003,3.056043e+001
2.526340e+003,3.141572e+001
2.527304e+003,3.170804e+001
2.528268e+003,3.366309e+001
2.529233e+003,3.648986e+001
2.530197e+003,3.816547e+001
2.531161e+003,3.913071e+001
2.532125e+003,4.066325e+001
2.533090e+003,4.257732e+001
2.534054e+003,4.400147e+001
2.535018e+003,4.497290e+001
2.535982e+003,4.616624e+001
2.536947e+003,4.771633e+001
2.537911e+003,4.923721e+001
2.538875e+003,5.083949e+001
2.539839e+003,5.173867e+001
2.540803e+003,5.068240e+001
2.541768e+003,5.104424e+001
2.542732e+003,5.406886e+001
2.543696e+003,5.596295e+001
2.544660e+003,5.555809e+001
2.545625e+003,5.490332e+001
2.546589e+003,5.483161e+001
2.547553e+003,5.603187e+001
2.548517e+003,5.908482e+001
2.549482e+003,6.185637e+001
2.550446e+003,6.185216e+001
2.551410e+003,6.035891e+001
2.552374e+003,5.856571e+001
2.553339e+003,5.729086e+001
2.554303e+003,5.869669e+001
2.555267e+003,6.050089e+001
2.556231e+003,5.913544e+001
2.557196e+003,5.677488e+001
2.558160e+003,5.711238e+001
2.559124e+003,5.838538e+001
2.560088e+003,5.686974e+001
2.561052e+003,5.325106e+001
2.562017e+003,5.070676e+001
2.562981e+003,4.934902e+001
2.563945e+003,4.803860e+001
2.564909e+003,4.683238e+001
2.565874e+003,4.518675e+001
2.566838e+003,4.299592e+001
2.567802e+003,4.164797e+001
2.568766e+003,4.127407e+001
2.569730e+003,4.057167e+001
2.570695e+003,3.927306e+001
2.571659e+003,3.750692e+001
2.572623e+003,3.552583e+001
2.573587e+003,3.519261e+001
2.574552e+003,3.733743e+001
2.575516e+003,3.766166e+001
2.576480e+003,3.241001e+001
2.577444e+003,2.747811e+001
2.578409e+003,2.687560e+001
2.579373e+003,2.749529e+001
2.580337e+003,2.957981e+001
2.581301e+003,3.003495e+001
2.582266e+003,2.501194e+001
2.583230e+003,2.037405e+001
2.584194e+003,2.061825e+001
2.585158e+003,2.211483e+001
2.586123e+003,2.144338e+001
2.587087e+003,1.962954e+001
2.588051e+003,1.828642e+001
2.589015e+003,1.734553e+001
2.589979e+003,1.666238e+001
2.590944e+003,1.614210e+001
2.591908e+003,1.542067e+001
2.592872e+003,1.456393e+001
2.593836e+003,1.345452e+001
2.594801e+003,1.255771e+001
2.595765e+003,1.345466e+001
2.596729e+003,1.507859e+001
2.597693e+003,1.435809e+001
2.598657e+003,1.165616e+001
2.599622e+003,1.030206e+001
2.600586e+003,1.087018e+001
2.601550e+003,1.045425e+001
2.602514e+003,7.807526e+000
2.603479e+003,6.649011e+000
2.604443e+003,7.481772e+000
2.605407e+003,8.467550e+000
2.606371e+003,9.723371e+000
2.607336e+003,9.300196e+000
2.608300e+003,6.721234e+000
2.609264e+003,5.315149e+000
2.610228e+003,6.228760e+000
2.611193e+003,7.296057e+000
2.612157e+003,7.252917e+000
2.613121e+003,6.518112e+000
2.614085e+003,5.209305e+000
2.615050e+003,4.165341e+000
2.616014e+003,4.522647e+000
2.616978e+003,4.760367e+000
2.617942e+003,3.562973e+000
2.618906e+003,2.437415e+000
2.619871e+003,2.475769e+000
2.620835e+003,2.727350e+000
2.621799e+003,2.282352e+000
2.622763e+003,1.991159e+000
2.623728e+003,2.838867e+000
2.624692e+003,3.921057e+000
2.625656e+003,3.726459e+000
2.626620e+003,2.811307e+000
2.627584e+003,2.617279e+000
2.628549e+003,2.998908e+000
2.629513e+003,3.888748e+000
2.630477e+003,4.727133e+000
2.631441e+003,3.683807e+000
2.632406e+003,1.991837e+000
2.633370e+003,2.346664e+000
2.634334e+003,3.936029e+000
2.635298e+003,4.855002e+000
2.636263e+003,4.811221e+000
2.637227e+003,3.707416e+000
2.638191e+003,1.693448e+000
2.639155e+003,9.738525e-001
2.640120e+003,1.903827e+000
2.641084e+003,2.218561e+000
2.642048e+003,1.793826e+000
2.643012e+003,1.103928e+000
2.643977e+003,2.160736e-001
2.644941e+003,5.051453e-001
2.645905e+003,1.956769e+000
2.646869e+003,2.563867e+000
2.647833e+003,1.883658e+000
2.648798e+003,9.809662e-001
2.649762e+003,3.957397e-001
2.650726e+003,7.118438e-001
2.651690e+003,2.512887e+000
2.652655e+003,3.630868e+000
2.653619e+003,2.673151e+000
2.654583e+003,1.565714e+000
2.655547e+003,2.319550e-001
2.656511e+003,-8.933716e-002
2.657476e+003,1.479929e+000
2.658440e+003,2.587183e+000
2.659404e+003,2.237161e+000
2.660368e+003,1.205548e+000
2.661333e+003,-5.447693e-002
2.662297e+003,-3.725494e-001
2.663261e+003,1.579938e+000
2.664225e+003,3.321066e+000
2.665190e+003,9.054047e-001
2.666154e+003,-2.336444e+000
2.667118e+003,-2.704300e+000
2.668082e+003,-1.834528e+000
2.669047e+003,-5.368439e-001
2.670011e+003,5.037781e-001
2.670975e+003,7.365997e-001
2.671939e+003,3.869171e-001
2.672904e+003,-7.758331e-001
2.673868e+003,-1.600012e+000
2.674832e+003,-1.843811e-001
2.675796e+003,2.177804e+000
2.676760e+003,2.005801e+000
2.677725e+003,6.791687e-002
2.678689e+003,-5.888580e-001
2.679653e+003,-2.840210e-001
2.680617e+003,3.549408e-001
2.681582e+003,9.339997e-001
2.682546e+003,5.918396e-001
2.683510e+003,-1.983521e-001
2.684474e+003,-6.730530e-001
2.685438e+003,-6.741546e-001
2.686403e+003,1.253326e-001
2.687367e+003,1.494971e+000
2.688331e+003,1.920795e+000
2.689295e+003,1.376102e+000
2.690260e+003,1.171399e+000
2.691224e+003,1.333621e+000
2.692188e+003,1.494135e+000
2.693152e+003,1.614426e+000
2.694117e+003,1.674820e+000
2.695081e+003,1.614905e+000
2.696045e+003,9.143707e-001
2.697009e+003,-2.477386e-001
2.697974e+003,-8.613189e-001
2.698938e+003,-7.302429e-001
2.699902e+003,-5.415741e-001
2.700866e+003,-5.319427e-001
2.701831e+003,-1.958191e-001
2.702795e+003,1.189069e+000
2.703759e+003,1.551746e+000
2.704723e+003,1.774078e-001
2.705688e+003,-2.733337e-001
2.706652e+003,6.742951e-001
2.707616e+003,1.366898e+000
2.708580e+003,1.387531e+000
2.709544e+003,6.209229e-001
2.710509e+003,-8.455658e-001
2.711473e+003,-1.797049e+000
2.712437e+003,-1.572006e+000
2.713401e+003,-8.385925e-001
2.714365e+003,1.976868e-001
2.715330e+003,1.047351e+000
2.716294e+003,1.665686e+000
2.717258e+003,1.726563e+000
2.718222e+003,6.963776e-001
2.719187e+003,-3.577576e-001
2.720151e+003,-1.470041e+000
2.721115e+003,-1.327768e+000
2.722079e+003,9.301971e-001
2.723044e+003,2.588577e+000
2.724008e+003,1.591583e+000
2.724972e+003,-4.967957e-002
2.725936e+003,-3.496857e-001
2.726901e+003,-4.220581e-003
2.727865e+003,5.278565e-001
2.728829e+003,9.636566e-001
2.729793e+003,9.704315e-001
2.730758e+003,9.074920e-001
2.731722e+003,1.504837e+000
2.732686e+003,1.419458e+000
2.733650e+003,-1.121219e+000
2.734615e+003,-2.964908e+000
2.735579e+003,-1.051843e+000
2.736543e+003,1.394238e+000
2.737507e+003,-6.129150e-002
2.738471e+003,-3.283472e+000
2.739436e+003,-4.638888e+000
2.740400e+003,-4.678952e+000
2.741364e+003,-3.755844e+000
2.742328e+003,-2.627023e+000
2.743292e+003,-2.387198e+000
2.744257e+003,-2.222790e+000
2.745221e+003,-7.703705e-001
2.746185e+003,7.667481e-001
2.747149e+003,6.626312e-001
2.748114e+003,-2.493713e-001
2.749078e+003,-7.860565e-001
2.750042e+003,-1.055301e+000
2.751006e+003,-1.404217e+000
2.751971e+003,-1.698267e+000
2.752935e+003,-1.241467e+000
2.753899e+003,-4.941864e-001
2.754863e+003,-7.142578e-001
2.755828e+003,-1.146313e+000
2.756792e+003,-1.802338e-001
2.757756e+003,1.190350e+000
2.758720e+003,1.294165e+000
2.759685e+003,4.284729e-001
2.760649e+003,-4.017181e-001
2.761613e+003,-1.286752e+000
2.762577e+003,-2.899963e+000
2.763542e+003,-4.926007e+000
2.764506e+003,-4.409595e+000
2.765470e+003,-1.975479e+000
2.766434e+003,-8.987610e-001
2.767398e+003,-8.151398e-001
2.768363e+003,-5.868775e-001
2.769327e+003,-4.057282e-001
2.770291e+003,-1.211795e+000
2.771255e+003,-2.401849e+000
2.772219e+003,-2.186279e+000
2.773184e+003,-8.687256e-001
2.774148e+003,-8.981110e-001
2.775112e+003,-2.188321e+000
2.776076e+003,-2.574155e+000
2.777041e+003,-2.029462e+000
2.778005e+003,-1.819302e+000
2.778969e+003,-1.808817e+000
2.779933e+003,-6.432465e-001
2.780898e+003,7.965973e-001
2.781862e+003,-1.042786e+000
2.782826e+003,-4.804245e+000
2.783790e+003,-5.827096e+000
2.784755e+003,-4.017926e+000
2.785719e+003,-2.306305e+000
2.786683e+003,-1.139508e+000
2.787647e+003,-6.205353e-001
2.788612e+003,-8.053558e-001
2.789576e+003,-1.534238e+000
2.790540e+003,-2.734888e+000
2.791504e+003,-2.112811e+000
2.792469e+003,-2.084289e-001
2.793433e+003,-5.996429e-001
2.794397e+003,-2.723254e+000
2.795361e+003,-3.028854e+000
2.796325e+003,-1.448111e+000
2.797290e+003,-4.640289e-001
2.798254e+003,-5.537872e-001
2.799218e+003,-9.733216e-001
2.800182e+003,-1.717203e+000
2.801146e+003,-2.473450e+000
2.802111e+003,-3.331280e+000
2.803075e+003,-2.357828e+000
2.804039e+003,1.952393e-001
2.805003e+003,1.464359e+000
2.805968e+003,1.279007e+000
2.806932e+003,6.874390e-001
2.807896e+003,1.118042e-001
2.808860e+003,-2.908417e-001
2.809825e+003,-4.758057e-001
2.810789e+003,-2.475189e-001
2.811753e+003,5.819916e-001
2.812717e+003,4.820892e-001
2.813682e+003,-9.210602e-001
2.814646e+003,-1.150247e+000
2.815610e+003,-2.001862e-001
2.816574e+003,-3.909332e-001
2.817539e+003,-1.586508e+000
2.818503e+003,-1.451270e+000
2.819467e+003,-2.560211e-001
2.820431e+003,-9.039184e-001
2.821396e+003,-3.471405e+000
2.822360e+003,-4.550531e+000
2.823324e+003,-3.279724e+000
2.824288e+003,-1.610471e+000
2.825252e+003,9.560791e-001
2.826217e+003,8.092987e-001
2.827181e+003,-2.154755e+000
2.828145e+003,-2.502231e+000
2.829109e+003,-3.883392e-001
2.830073e+003,2.692932e-001
2.831038e+003,-7.101105e-001
2.832002e+003,-1.283835e+000
2.832966e+003,-1.025629e+000
2.833930e+003,-5.672577e-001
2.834895e+003,-6.499634e-002
2.835859e+003,8.646393e-001
2.836823e+003,2.710019e+000
2.837787e+003,2.117148e+000
2.838752e+003,-1.164395e+000
2.839716e+003,-1.515808e+000
2.840680e+003,7.049378e-001
2.841644e+003,4.530121e-001
2.842609e+003,-2.143250e+000
2.843573e+003,-3.982895e+000
2.844537e+003,-4.485422e+000
2.845501e+003,-4.305713e+000
2.846466e+003,-3.697955e+000
2.847430e+003,-3.717896e+000
2.848394e+003,-4.634732e+000
2.849358e+003,-4.221347e+000
2.850323e+003,-2.338074e+000
2.851287e+003,-1.942609e+000
2.852251e+003,-2.780487e+000
2.853215e+003,-2.337851e+000
2.854179e+003,-8.136474e-001
2.855144e+003,4.111694e-001
2.856108e+003,9.363281e-001
2.857072e+003,4.229645e-001
2.858036e+003,-9.561005e-001
2.859000e+003,-1.975137e+000
2.859965e+003,-2.559091e+000
2.860929e+003,-2.361511e+000
2.861893e+003,-1.381198e+000
2.862857e+003,-8.839417e-001
2.863822e+003,-7.168152e-001
2.864786e+003,2.904358e-002
2.865750e+003,9.925507e-001
2.866714e+003,1.100909e+000
2.867679e+003,3.350372e-001
2.868643e+003,-1.199304e+000
2.869607e+003,-3.078943e+000
2.870571e+003,-3.975833e+000
2.871536e+003,-3.903006e+000
2.872500e+003,-2.860037e+000
2.873464e+003,-9.754822e-001
2.874428e+003,-1.078848e+000
2.875393e+003,-2.593024e+000
2.876357e+003,-4.189972e+000
2.877321e+003,-5.132066e+000
2.878285e+003,-3.749081e+000
2.879250e+003,-1.094824e+000
2.880214e+003,1.094638e+000
2.881178e+003,2.272168e+000
2.882142e+003,1.722015e+000
2.883106e+003,-1.274384e-001
2.884071e+003,-1.955454e+000
2.885035e+003,-3.528388e+000
2.885999e+003,-3.063455e+000
2.886963e+003,-1.638959e+000
2.887927e+003,-1.983295e+000
2.888892e+003,-3.107358e+000
2.889856e+003,-3.600501e+000
2.890820e+003,-3.411807e+000
2.891784e+003,-2.215183e+000
2.892749e+003,-9.150177e-001
2.893713e+003,-9.695618e-001
2.894677e+003,-1.766324e+000
2.895641e+003,-1.990729e+000
2.896606e+003,-1.764645e+000
2.897570e+003,-1.214645e+000
2.898534e+003,-6.138153e-001
2.899498e+003,-4.388184e-001
2.900463e+003,-4.802246e-001
2.901427e+003,-6.161560e-001
2.902391e+003,-6.443817e-001
2.903355e+003,-9.016113e-002
2.904320e+003,1.881805e-001
2.905284e+003,-7.939361e-001
2.906248e+003,-2.199799e+000
2.907212e+003,-2.780167e+000
2.908177e+003,-2.853674e+000
2.909141e+003,-2.580145e+000
2.910105e+003,-2.588763e+000
2.911069e+003,-4.412610e+000
2.912033e+003,-5.721944e+000
2.912998e+003,-3.755765e+000
2.913962e+003,-1.964386e+000
2.914926e+003,-2.610629e+000
2.915890e+003,-3.503168e+000
2.916854e+003,-3.028226e+000
2.917819e+003,-2.318008e+000
2.918783e+003,-2.567795e+000
2.919747e+003,-2.775195e+000
2.920711e+003,-1.261127e+000
2.921676e+003,-2.232666e-001
2.922640e+003,-1.890347e+000
2.923604e+003,-3.056146e+000
2.924568e+003,-2.102917e+000
2.925533e+003,-1.360947e+000
2.926497e+003,-1.712674e+000
2.927461e+003,-5.157715e-001
2.928425e+003,3.270422e+000
2.929390e+003,-5.008222e+000
2.930354e+003,-3.780929e+001
2.931318e+003,-5.737562e+001
2.932282e+003,-2.674290e+001
2.933247e+003,-2.633374e+000
2.934211e+003,-4.637442e+000
2.935175e+003,-6.437196e+000
2.936139e+003,-5.565951e+000
2.937104e+003,-4.462027e+000
2.938068e+003,-3.676111e+000
2.939032e+003,-3.045007e+000
2.939996e+003,-2.525049e+000
2.940960e+003,-2.162183e+000
2.941925e+003,-1.985379e+000
2.942889e+003,-1.884296e+000
2.943853e+003,-1.669568e+000
2.944817e+003,-2.083310e+000
2.945781e+003,-3.374741e+000
2.946746e+003,-3.774252e+000
2.947710e+003,-3.297531e+000
2.948674e+003,-3.409866e+000
2.949638e+003,-4.062823e+000
2.950603e+003,-4.244348e+000
2.951567e+003,-3.853394e+000
2.952531e+003,-3.388538e+000
2.953495e+003,-2.939041e+000
2.954460e+003,-2.103931e+000
2.955424e+003,-8.667603e-001
2.956388e+003,-1.592520e+000
2.957352e+003,-3.939230e+000
2.958317e+003,-4.236597e+000
2.959281e+003,-3.231421e+000
2.960245e+003,-3.348859e+000
2.961209e+003,-4.024957e+000
2.962174e+003,-3.955087e+000
2.963138e+003,-3.073611e+000
2.964102e+003,-1.187473e+000
2.965066e+003,9.066498e-001
2.966031e+003,1.455496e+000
2.966995e+003,8.291473e-001
2.967959e+003,-1.679993e-001
2.968923e+003,-1.139847e+000
2.969887e+003,-1.110242e+000
2.970852e+003,-6.749695e-001
2.971816e+003,-4.671539e-001
2.972780e+003,-3.402252e-001
2.973744e+003,9.290161e-002
2.974708e+003,2.100922e-001
2.975673e+003,-6.344757e-001
2.976637e+003,-1.533524e+000
2.977601e+003,-1.382147e+000
2.978565e+003,-9.334015e-001
2.979530e+003,-1.276621e+000
2.980494e+003,-1.621555e+000
2.981458e+003,-9.976684e-001
2.982422e+003,-6.626434e-001
2.983387e+003,-1.504648e+000
2.984351e+003,-2.378754e+000
2.985315e+003,-2.911246e+000
2.986279e+003,-3.073703e+000
2.987244e+003,-2.869446e+000
2.988208e+003,-2.531183e+000
2.989172e+003,-2.189926e+000
2.990136e+003,-2.169196e+000
2.991101e+003,-2.834839e+000
2.992065e+003,-3.414218e+000
2.993029e+003,-3.902789e+000
2.993993e+003,-3.820187e+000
2.994958e+003,-3.090564e+000
2.995922e+003,-2.812997e+000
2.996886e+003,-3.119748e+000
2.997850e+003,-3.521478e+000
2.998814e+003,-3.775937e+000
2.999779e+003,-3.460953e+000
3.000743e+003,-2.485623e+000
3.001707e+003,-1.758353e+000
3.002671e+003,-1.277048e+000
3.003635e+003,-1.700989e+000
3.004600e+003,-2.943704e+000
3.005564e+003,-3.345450e+000
3.006528e+003,-3.061853e+000
3.007492e+003,-2.983041e+000
3.008457e+003,-2.819797e+000
3.009421e+003,-1.252756e+000
3.010385e+003,8.594208e-001
3.011349e+003,1.277460e+000
3.012314e+003,2.155853e-001
3.013278e+003,-2.128064e+000
3.014242e+003,-4.771463e+000
3.015206e+003,-3.742725e+000
3.016171e+003,-1.410864e+000
3.017135e+003,-2.129831e+000
3.018099e+003,-3.495535e+000
3.019063e+003,-2.541168e+000
3.020028e+003,-1.214282e+000
3.020992e+003,-1.248059e+000
3.021956e+003,-1.648047e+000
3.022920e+003,-1.548987e+000
3.023885e+003,-1.675839e+000
3.024849e+003,-3.024029e+000
3.025813e+003,-4.129616e+000
3.026777e+003,-2.888531e+000
3.027741e+003,-2.053528e+000
3.028706e+003,-3.747949e+000
3.029670e+003,-4.766937e+000
3.030634e+003,-4.242310e+000
3.031598e+003,-3.673782e+000
3.032563e+003,-3.544202e+000
3.033527e+003,-2.779813e+000
3.034491e+003,-1.034781e+000
3.035455e+003,1.554596e-001
3.036420e+003,1.475464e-001
3.037384e+003,-7.584259e-001
3.038348e+003,-3.278497e+000
3.039312e+003,-4.002482e+000
3.040277e+003,-2.870721e+000
3.041241e+003,-2.192743e+000
3.042205e+003,-2.150583e+000
3.043169e+003,-2.464410e+000
3.044134e+003,-2.897778e+000
3.045098e+003,-3.042667e+000
3.046062e+003,-2.919919e+000
3.047026e+003,-2.828186e+000
3.047990e+003,-2.773752e+000
3.048955e+003,-2.775018e+000
3.049919e+003,-2.906375e+000
3.050883e+003,-3.738074e+000
3.051847e+003,-4.697680e+000
3.052812e+003,-4.592351e+000
3.053776e+003,-4.232991e+000
3.054740e+003,-4.887906e+000
3.055704e+003,-5.608319e+000
3.056668e+003,-5.476676e+000
3.057633e+003,-4.841150e+000
3.058597e+003,-4.062320e+000
3.059561e+003,-3.252957e+000
3.060525e+003,-2.152087e+000
3.061490e+003,-1.832022e+000
3.062454e+003,-4.113719e+000
3.063418e+003,-5.778256e+000
3.064382e+003,-5.702019e+000
3.065347e+003,-4.356241e+000
3.066311e+003,-1.785345e+000
3.067275e+003,-1.356457e+000
3.068239e+003,-4.007955e+000
3.069204e+003,-5.958450e+000
3.070168e+003,-5.546089e+000
3.071132e+003,-4.850379e+000
3.072096e+003,-4.689908e+000
3.073061e+003,-3.416412e+000
3.074025e+003,-7.551972e-001
3.074989e+003,-3.629944e-001
3.075953e+003,-1.957178e+000
3.076917e+003,-3.125256e+000
3.077882e+003,-3.716856e+000
3.078846e+003,-4.270093e+000
3.079810e+003,-4.902977e+000
3.080774e+003,-5.875612e+000
3.081739e+003,-6.890607e+000
3.082703e+003,-7.048593e+000
3.083667e+003,-6.485651e+000
3.084631e+003,-5.326239e+000
3.085595e+003,-4.038383e+000
3.086560e+003,-3.116193e+000
3.087524e+003,-2.741950e+000
3.088488e+003,-3.604167e+000
3.089452e+003,-4.404933e+000
3.090417e+003,-4.276056e+000
3.091381e+003,-3.833663e+000
3.092345e+003,-3.532871e+000
3.093309e+003,-3.766181e+000
3.094274e+003,-5.303105e+000
3.095238e+003,-6.050516e+000
3.096202e+003,-3.358217e+000
3.097166e+003,-2.146503e+000
3.098131e+003,-3.706293e+000
3.099095e+003,-4.690507e+000
3.100059e+003,-4.586328e+000
3.101023e+003,-5.107057e+000
3.101988e+003,-6.276814e+000
3.102952e+003,-5.537668e+000
3.103916e+003,-2.655513e+000
3.104880e+003,-2.488501e+000
3.105844e+003,-5.644588e+000
3.106809e+003,-6.042706e+000
3.107773e+003,-4.063428e+000
3.108737e+003,-4.553810e+000
3.109701e+003,-6.296608e+000
3.110666e+003,-6.054062e+000
3.111630e+003,-4.721596e+000
3.112594e+003,-3.558816e+000
3.113558e+003,-3.292366e+000
3.114522e+003,-4.918715e+000
3.115487e+003,-6.530719e+000
3.116451e+003,-5.190758e+000
3.117415e+003,-3.083800e+000
3.118379e+003,-3.341419e+000
3.119344e+003,-4.317412e+000
3.120308e+003,-5.019496e+000
3.121272e+003,-5.755733e+000
3.122236e+003,-6.913503e+000
3.123201e+003,-6.934267e+000
3.124165e+003,-5.357843e+000
3.125129e+003,-3.749023e+000
3.126093e+003,-2.813332e+000
3.127058e+003,-2.322513e+000
3.128022e+003,-2.187364e+000
3.128986e+003,-2.455313e+000
3.129950e+003,-3.216125e+000
3.130915e+003,-3.751451e+000
3.131879e+003,-4.141127e+000
3.132843e+003,-5.953185e+000
3.133807e+003,-8.112295e+000
3.134771e+003,-6.915181e+000
3.135736e+003,-3.811604e+000
3.136700e+003,-2.440166e+000
3.137664e+003,-2.727893e+000
3.138628e+003,-4.168118e+000
3.139593e+003,-6.059222e+000
3.140557e+003,-7.027405e+000
3.141521e+003,-7.090189e+000
3.142485e+003,-5.695480e+000
3.143449e+003,-4.169626e+000
3.144414e+003,-2.747369e+000
3.145378e+003,-3.211453e+000
3.146342e+003,-6.774080e+000
3.147306e+003,-8.702820e+000
3.148271e+003,-6.867972e+000
3.149235e+003,-5.145627e+000
3.150199e+003,-5.732656e+000
3.151163e+003,-6.098842e+000
3.152128e+003,-4.549838e+000
3.153092e+003,-4.420561e+000
3.154056e+003,-6.030753e+000
3.155020e+003,-6.361975e+000
3.155985e+003,-5.538979e+000
3.156949e+003,-5.029584e+000
3.157913e+003,-4.941264e+000
3.158877e+003,-5.185835e+000
3.159842e+003,-5.398245e+000
3.160806e+003,-4.641785e+000
3.161770e+003,-3.418082e+000
3.162734e+003,-3.032436e+000
3.163698e+003,-3.254955e+000
3.164663e+003,-3.941415e+000
3.165627e+003,-4.556700e+000
3.166591e+003,-4.330451e+000
3.167555e+003,-4.100990e+000
3.168520e+003,-4.430722e+000
3.169484e+003,-4.633957e+000
3.170448e+003,-4.380656e+000
3.171412e+003,-3.993866e+000
3.172376e+003,-3.666335e+000
3.173341e+003,-3.576347e+000
3.174305e+003,-3.896924e+000
3.175269e+003,-4.260902e+000
3.176233e+003,-4.727954e+000
3.177198e+003,-4.394940e+000
3.178162e+003,-3.469823e+000
3.179126e+003,-3.601559e+000
3.180090e+003,-4.623578e+000
3.181055e+003,-5.916995e+000
3.182019e+003,-6.939819e+000
3.182983e+003,-6.603803e+000
3.183947e+003,-5.454816e+000
3.184912e+003,-4.674136e+000
3.185876e+003,-4.217491e+000
3.186840e+003,-4.120566e+000
3.187804e+003,-4.154635e+000
3.188769e+003,-4.138795e+000
3.189733e+003,-3.982901e+000
3.190697e+003,-3.432152e+000
3.191661e+003,-3.700661e+000
3.192625e+003,-5.274560e+000
3.193590e+003,-5.877303e+000
3.194554e+003,-4.387457e+000
3.195518e+003,-3.114230e+000
3.196482e+003,-3.271407e+000
3.197447e+003,-3.181393e+000
3.198411e+003,-2.616139e+000
3.199375e+003,-2.428464e+000
3.200339e+003,-2.597017e+000
3.201303e+003,-2.927570e+000
3.202268e+003,-3.228293e+000
3.203232e+003,-2.831053e+000
3.204196e+003,-2.448460e+000
3.205160e+003,-3.830284e+000
3.206125e+003,-5.668974e+000
3.207089e+003,-5.565904e+000
3.208053e+003,-4.341843e+000
3.209017e+003,-2.772582e+000
3.209982e+003,-1.693980e+000
3.210946e+003,-2.370415e+000
3.211910e+003,-2.734894e+000
3.212874e+003,-1.879114e+000
3.213839e+003,-1.652167e+000
3.214803e+003,-2.601737e+000
3.215767e+003,-3.447179e+000
3.216731e+003,-3.646324e+000
3.217696e+003,-3.626047e+000
3.218660e+003,-3.556136e+000
3.219624e+003,-2.839487e+000
3.220588e+003,-1.437076e+000
3.221552e+003,-1.384030e+000
3.222517e+003,-2.244586e+000
3.223481e+003,-3.014233e+000
3.224445e+003,-3.403622e+000
3.225409e+003,-2.577696e+000
3.226374e+003,-1.809680e+000
3.227338e+003,-2.698898e+000
3.228302e+003,-3.792738e+000
3.229266e+003,-3.198848e+000
3.230230e+003,-2.409924e+000
3.231195e+003,-3.549049e+000
3.232159e+003,-4.139432e+000
3.233123e+003,-2.232504e+000
3.234087e+003,-1.734892e+000
3.235052e+003,-3.243552e+000
3.236016e+003,-3.821433e+000
3.236980e+003,-3.051301e+000
3.237944e+003,-2.726697e+000
3.238909e+003,-3.195904e+000
3.239873e+003,-3.291174e+000
3.240837e+003,-3.006615e+000
3.241801e+003,-3.056641e+000
3.242766e+003,-3.392680e+000
3.243730e+003,-4.071494e+000
3.244694e+003,-4.654158e+000
3.245658e+003,-4.246660e+000
3.246623e+003,-3.816037e+000
3.247587e+003,-4.274442e+000
3.248551e+003,-4.689565e+000
3.249515e+003,-4.463881e+000
3.250479e+003,-4.218217e+000
3.251444e+003,-4.420348e+000
3.252408e+003,-4.750246e+000
3.253372e+003,-5.317223e+000
3.254336e+003,-5.360423e+000
3.255301e+003,-4.833104e+000
3.256265e+003,-3.650140e+000
3.257229e+003,-2.222923e+000
3.258193e+003,-2.552864e+000
3.259157e+003,-3.939800e+000
3.260122e+003,-3.645990e+000
3.261086e+003,-2.432231e+000
3.262050e+003,-2.512822e+000
3.263014e+003,-3.368782e+000
3.263979e+003,-4.248343e+000
3.264943e+003,-4.633467e+000
3.265907e+003,-3.422675e+000
3.266871e+003,-2.179817e+000
3.267836e+003,-1.847903e+000
3.268800e+003,-1.448608e+000
3.269764e+003,-6.905090e-001
3.270728e+003,-5.940094e-002
3.271693e+003,1.626297e-001
3.272657e+003,-8.335190e-001
3.273621e+003,-3.425383e+000
3.274585e+003,-3.821170e+000
3.275550e+003,-1.777385e+000
3.276514e+003,-1.504729e+000
3.277478e+003,-2.407651e+000
3.278442e+003,-3.171794e+000
3.279406e+003,-3.595999e+000
3.280371e+003,-3.417064e+000
3.281335e+003,-2.998901e+000
3.282299e+003,-2.630672e+000
3.283263e+003,-2.261665e+000
3.284228e+003,-1.856448e+000
3.285192e+003,-1.397554e+000
3.286156e+003,-8.149536e-001
3.287120e+003,-2.202133e-001
3.288084e+003,6.384583e-001
3.289049e+003,-5.253143e-002
3.290013e+003,-2.083342e+000
3.290977e+003,-1.660522e+000
3.291941e+003,6.171860e-001
3.292906e+003,6.778641e-001
3.293870e+003,-9.585770e-001
3.294834e+003,-4.091659e-001
3.295798e+003,1.353502e+000
3.296763e+003,1.632338e+000
3.297727e+003,1.248218e+000
3.298691e+003,1.549867e+000
3.299655e+003,1.891920e+000
3.300620e+003,1.749907e+000
3.301584e+003,1.493098e+000
3.302548e+003,1.214535e+000
3.303512e+003,8.336334e-001
3.304477e+003,4.084366e-001
3.305441e+003,6.679138e-001
3.306405e+003,1.873843e+000
3.307369e+003,1.580605e+000
3.308333e+003,-4.350098e-001
3.309298e+003,9.189514e-001
3.310262e+003,4.076582e+000
3.311226e+003,4.111009e+000
3.312190e+003,2.811095e+000
3.313155e+003,3.066168e+000
3.314119e+003,3.388727e+000
3.315083e+003,2.366272e+000
3.316047e+003,1.778662e+000
3.317011e+003,3.174844e+000
3.317976e+003,4.323059e+000
3.318940e+003,2.949530e+000
3.319904e+003,2.533252e+000
3.320868e+003,3.927039e+000
3.321833e+003,4.649567e+000
3.322797e+003,4.569278e+000
3.323761e+003,3.819772e+000
3.324725e+003,2.860057e+000
3.325690e+003,2.802792e+000
3.326654e+003,3.268063e+000
3.327618e+003,3.156581e+000
3.328582e+003,2.859935e+000
3.329547e+003,3.261967e+000
3.330511e+003,3.718396e+000
3.331475e+003,3.125246e+000
3.332439e+003,2.936761e+000
3.333404e+003,3.958916e+000
3.334368e+003,4.673337e+000
3.335332e+003,4.763951e+000
3.336296e+003,4.403574e+000
3.337260e+003,3.747232e+000
3.338225e+003,3.258331e+000
3.339189e+003,3.077315e+000
3.340153e+003,3.335388e+000
3.341117e+003,3.785724e+000
3.342082e+003,2.538751e+000
3.343046e+003,9.506424e-001
3.344010e+003,1.332904e+000
3.344974e+003,2.303465e+000
3.345938e+003,2.913519e+000
3.346903e+003,3.069830e+000
3.347867e+003,2.741043e+000
3.348831e+003,2.891544e+000
3.349795e+003,4.084086e+000
3.350760e+003,4.055426e+000
3.351724e+003,1.232960e+000
3.352688e+003,2.911957e-001
3.353652e+003,1.077092e+000
3.354617e+003,2.346953e+000
3.355581e+003,3.535971e+000
3.356545e+003,3.551515e+000
3.357509e+003,2.972142e+000
3.358474e+003,2.673795e+000
3.359438e+003,2.310706e+000
3.360402e+003,1.442081e+000
3.361366e+003,1.416667e+000
3.362331e+003,4.415681e+000
3.363295e+003,6.250762e+000
3.364259e+003,4.717247e+000
3.365223e+003,3.946686e+000
3.366188e+003,4.169162e+000
3.367152e+003,4.197635e+000
3.368116e+003,3.965924e+000
3.369080e+003,3.887216e+000
3.370044e+003,3.945770e+000
3.371009e+003,3.957076e+000
3.371973e+003,3.966171e+000
3.372937e+003,4.223527e+000
3.373901e+003,4.124818e+000
3.374865e+003,1.926320e+000
3.375830e+003,9.973282e-001
3.376794e+003,3.413481e+000
3.377758e+003,3.689754e+000
3.378722e+003,1.116006e+000
3.379687e+003,4.979095e-001
3.380651e+003,2.551820e+000
3.381615e+003,3.973766e+000
3.382579e+003,4.312144e+000
3.383544e+003,4.658218e+000
3.384508e+003,5.045648e+000
3.385472e+003,5.950209e+000
3.386436e+003,6.559916e+000
3.387401e+003,5.117493e+000
3.388365e+003,4.208313e+000
3.389329e+003,5.220276e+000
3.390293e+003,5.949489e+000
3.391258e+003,5.581027e+000
3.392222e+003,5.514531e+000
3.393186e+003,6.340306e+000
3.394150e+003,7.567053e+000
3.395115e+003,9.098783e+000
3.396079e+003,9.821261e+000
3.397043e+003,9.881186e+000
3.398007e+003,9.100090e+000
3.398971e+003,8.691133e+000
3.399936e+003,1.106709e+001
3.400900e+003,1.314010e+001
3.401864e+003,1.296865e+001
3.402828e+003,1.245175e+001
3.403792e+003,1.289471e+001
3.404757e+003,1.330834e+001
3.405721e+003,1.279326e+001
3.406685e+003,1.359955e+001
3.407649e+003,1.574486e+001
3.408614e+003,1.664136e+001
3.409578e+003,1.691858e+001
3.410542e+003,1.876083e+001
3.411506e+003,2.112730e+001
3.412471e+003,2.192254e+001
3.413435e+003,2.295104e+001
3.414399e+003,2.614487e+001
3.415363e+003,2.925444e+001
3.416328e+003,3.005957e+001
3.417292e+003,3.007285e+001
3.418256e+003,2.952278e+001
3.419220e+003,2.935926e+001
3.420185e+003,2.959605e+001
3.421149e+003,2.970413e+001
3.422113e+003,2.952695e+001
3.423077e+003,2.847203e+001
3.424042e+003,2.756296e+001
3.425006e+003,2.878742e+001
3.425970e+003,3.033118e+001
3.426934e+003,2.917994e+001
