7.140112e+001,1.325623e+002
7.236536e+001,1.290163e+002
7.332959e+001,1.298944e+002
7.429382e+001,1.338671e+002
7.525806e+001,1.419007e+002
7.622229e+001,1.449678e+002
7.718652e+001,1.363089e+002
7.815076e+001,1.091252e+002
7.911499e+001,9.165936e+001
8.007922e+001,8.206223e+001
8.104346e+001,7.971173e+001
8.200769e+001,8.503236e+001
8.297192e+001,1.040587e+002
8.393616e+001,1.226156e+002
8.490039e+001,1.408075e+002
8.586462e+001,1.557757e+002
8.682886e+001,1.633380e+002
8.779310e+001,1.527337e+002
8.875733e+001,1.352798e+002
8.972157e+001,1.155877e+002
9.068580e+001,9.608327e+001
9.165003e+001,7.799141e+001
9.261427e+001,6.878013e+001
9.357850e+001,6.573838e+001
9.454273e+001,6.637252e+001
9.550697e+001,6.952737e+001
9.647120e+001,7.728424e+001
9.743543e+001,7.964412e+001
9.839967e+001,7.505343e+001
9.936390e+001,6.699596e+001
1.003281e+002,5.926476e+001
1.012924e+002,5.082551e+001
1.022566e+002,4.493410e+001
1.032208e+002,4.274102e+001
1.041851e+002,4.351738e+001
1.051493e+002,4.549497e+001
1.061135e+002,4.950940e+001
1.070778e+002,5.232911e+001
1.080420e+002,5.163605e+001
1.090062e+002,4.715001e+001
1.099705e+002,4.091241e+001
1.109347e+002,3.798917e+001
1.118989e+002,3.717544e+001
1.128632e+002,3.794208e+001
1.138274e+002,3.993229e+001
1.147916e+002,4.346282e+001
1.157559e+002,4.485384e+001
1.167201e+002,4.366282e+001
1.176843e+002,4.152045e+001
1.186486e+002,4.032123e+001
1.196128e+002,4.030407e+001
1.205770e+002,4.110471e+001
1.215413e+002,4.444498e+001
1.225055e+002,4.861504e+001
1.234697e+002,4.999197e+001
1.244340e+002,4.230640e+001
1.253982e+002,3.413225e+001
1.263624e+002,2.678121e+001
1.273267e+002,2.135354e+001
1.282909e+002,1.910367e+001
1.292551e+002,2.690545e+001
1.302194e+002,3.793159e+001
1.311836e+002,4.636672e+001
1.321478e+002,4.845525e+001
1.331121e+002,4.390282e+001
1.340763e+002,3.780403e+001
1.350405e+002,2.979452e+001
1.360048e+002,2.263659e+001
1.369690e+002,1.929977e+001
1.379332e+002,2.244753e+001
1.388975e+002,2.609439e+001
1.398617e+002,3.076421e+001
1.408259e+002,3.551351e+001
1.417902e+002,3.904133e+001
1.427544e+002,4.174989e+001
1.437186e+002,4.171615e+001
1.446829e+002,3.678890e+001
1.456471e+002,2.818430e+001
1.466113e+002,1.940586e+001
1.475756e+002,1.359377e+001
1.485398e+002,1.111703e+001
1.495040e+002,1.511820e+001
1.504683e+002,2.589034e+001
1.514325e+002,4.075586e+001
1.523967e+002,4.332318e+001
1.533610e+002,3.650906e+001
1.543252e+002,2.778032e+001
1.552894e+002,2.233298e+001
1.562537e+002,2.133882e+001
1.572179e+002,2.071924e+001
1.581821e+002,1.887881e+001
1.591464e+002,1.819691e+001
1.601106e+002,2.203228e+001
1.610748e+002,3.715015e+001
1.620391e+002,4.597312e+001
1.630033e+002,4.147404e+001
1.639676e+002,2.935831e+001
1.649318e+002,1.848628e+001
1.658960e+002,1.849165e+001
1.668603e+002,2.174368e+001
1.678245e+002,2.367686e+001
1.687887e+002,2.372615e+001
1.697530e+002,2.286315e+001
1.707172e+002,2.389888e+001
1.716814e+002,2.595149e+001
1.726457e+002,2.669628e+001
1.736099e+002,2.515642e+001
1.745741e+002,2.120197e+001
1.755384e+002,1.829138e+001
1.765026e+002,1.655384e+001
1.774668e+002,1.528243e+001
1.784311e+002,1.428925e+001
1.793953e+002,1.376609e+001
1.803595e+002,1.325104e+001
1.813238e+002,1.222374e+001
1.822880e+002,1.115836e+001
1.832522e+002,1.067262e+001
1.842165e+002,1.165044e+001
1.851807e+002,1.205586e+001
1.861449e+002,9.822973e+000
1.871092e+002,6.277161e+000
1.880734e+002,2.986401e+000
1.890376e+002,1.948828e+000
1.900019e+002,3.222583e+000
1.909661e+002,6.701526e+000
1.919303e+002,1.226858e+001
1.928946e+002,1.857725e+001
1.938588e+002,2.097694e+001
1.948230e+002,1.692739e+001
1.957873e+002,1.453788e+001
1.967515e+002,1.494071e+001
1.977157e+002,1.816594e+001
1.986800e+002,2.369502e+001
1.996442e+002,3.187655e+001
2.006084e+002,4.142949e+001
2.015727e+002,5.479456e+001
2.025369e+002,7.242139e+001
2.035011e+002,8.414071e+001
2.044654e+002,8.021938e+001
2.054296e+002,7.028329e+001
2.063938e+002,5.807429e+001
2.073581e+002,4.625029e+001
2.083223e+002,3.684485e+001
2.092865e+002,3.363906e+001
2.102508e+002,3.534580e+001
2.112150e+002,4.152703e+001
2.121792e+002,5.194535e+001
2.131435e+002,6.853298e+001
2.141077e+002,7.586572e+001
2.150719e+002,6.994078e+001
2.160362e+002,5.842265e+001
2.170004e+002,5.278375e+001
2.179646e+002,5.880312e+001
2.189289e+002,6.336222e+001
2.198931e+002,6.252596e+001
2.208573e+002,5.952293e+001
2.218216e+002,6.091413e+001
2.227858e+002,7.675305e+001
2.237500e+002,9.204758e+001
2.247143e+002,1.028751e+002
2.256785e+002,1.078047e+002
2.266427e+002,1.061560e+002
2.276070e+002,9.130385e+001
2.285712e+002,7.028033e+001
2.295354e+002,5.210784e+001
2.304997e+002,3.945394e+001
2.314639e+002,3.159316e+001
2.324281e+002,2.398438e+001
2.333924e+002,1.609099e+001
2.343566e+002,1.000758e+001
2.353208e+002,7.202759e+000
2.362851e+002,8.374964e+000
2.372493e+002,8.344958e+000
2.382135e+002,5.831567e+000
2.391778e+002,3.198083e+000
2.401420e+002,1.655920e+000
2.411062e+002,1.733618e+000
2.420705e+002,1.978528e+000
2.430347e+002,1.532092e+000
2.439989e+002,7.562744e-001
2.449632e+002,-2.342896e-001
2.459274e+002,-1.381445e+000
2.468916e+002,-2.171558e+000
2.478559e+002,-1.331372e+000
2.488201e+002,4.995361e-001
2.497843e+002,1.952002e+000
2.507486e+002,1.394397e+000
2.517128e+002,-1.833313e+000
2.526770e+002,-2.868390e+000
2.536413e+002,-1.152380e+000
2.546055e+002,1.966809e+000
2.555697e+002,4.420312e+000
2.565340e+002,5.660571e+000
2.574982e+002,6.970252e+000
2.584625e+002,9.260096e+000
2.594267e+002,1.173101e+001
2.603909e+002,1.288689e+001
2.613552e+002,1.058057e+001
2.623194e+002,7.820764e+000
2.632836e+002,5.508191e+000
2.642479e+002,3.947961e+000
2.652121e+002,3.431079e+000
2.661763e+002,5.418298e+000
2.671406e+002,8.076696e+000
2.681048e+002,8.116284e+000
2.690690e+002,5.077661e+000
2.700333e+002,1.530273e-001
2.709975e+002,-1.614539e+000
2.719617e+002,7.524048e-001
2.729260e+002,2.912158e+000
2.738902e+002,4.008582e+000
2.748544e+002,4.039685e+000
2.758187e+002,3.641248e+000
2.767829e+002,2.535290e+000
2.777471e+002,1.195081e+000
2.787114e+002,-4.017822e-001
2.796756e+002,-2.162213e+000
2.806398e+002,-3.506024e+000
2.816041e+002,-4.491431e+000
2.825683e+002,-4.767456e+000
2.835325e+002,-3.552490e+000
2.844968e+002,-7.152283e-001
2.854610e+002,2.544189e+000
2.864252e+002,2.772009e+000
2.873895e+002,1.404248e+000
2.883537e+002,6.571106e-001
2.893179e+002,1.969617e+000
2.902822e+002,5.566327e+000
2.912464e+002,6.956830e+000
2.922106e+002,6.048877e+000
2.931749e+002,4.148633e+000
2.941391e+002,1.746454e+000
2.951033e+002,-1.698871e+000
2.960676e+002,-4.058539e+000
2.970318e+002,-4.852277e+000
2.979960e+002,-4.880402e+000
2.989603e+002,-4.678082e+000
2.999245e+002,-4.526587e+000
3.008887e+002,-4.078619e+000
3.018530e+002,-3.346954e+000
3.028172e+002,-2.212097e+000
3.037814e+002,-2.857239e-001
3.047457e+002,2.820557e+000
3.057099e+002,6.403089e+000
3.066741e+002,8.666681e+000
3.076384e+002,9.649231e+000
3.086026e+002,8.985492e+000
3.095668e+002,6.156629e+000
3.105311e+002,-6.096802e-002
3.114953e+002,-3.402210e+000
3.124595e+002,-2.538025e+000
3.134238e+002,-7.646485e-002
3.143880e+002,9.058594e-001
3.153522e+002,-8.962097e-001
3.163165e+002,-2.345929e+000
3.172807e+002,-3.330933e+000
3.182449e+002,-3.425159e+000
3.192092e+002,-1.943677e+000
3.201734e+002,2.360974e+000
3.211376e+002,6.548669e+000
3.221019e+002,8.538147e+000
3.230661e+002,8.877741e+000
3.240303e+002,8.307569e+000
3.249946e+002,7.554901e+000
3.259588e+002,6.804925e+000
3.269230e+002,7.057391e+000
3.278873e+002,8.360730e+000
3.288515e+002,9.845202e+000
3.298157e+002,9.940893e+000
3.307800e+002,6.953504e+000
3.317442e+002,5.870227e+000
3.327084e+002,7.429932e+000
3.336727e+002,1.047781e+001
3.346369e+002,1.314999e+001
3.356011e+002,1.529076e+001
3.365654e+002,1.666940e+001
3.375296e+002,1.716647e+001
3.384938e+002,1.700929e+001
3.394581e+002,1.628506e+001
3.404223e+002,1.418983e+001
3.413865e+002,1.282274e+001
3.423508e+002,1.413972e+001
3.433150e+002,1.781792e+001
3.442792e+002,2.285516e+001
3.452435e+002,2.774018e+001
3.462077e+002,3.258569e+001
3.471719e+002,3.822911e+001
3.481362e+002,4.416879e+001
3.491004e+002,5.160197e+001
3.500646e+002,6.325439e+001
3.510289e+002,7.911271e+001
3.519931e+002,1.013163e+002
3.529573e+002,1.311987e+002
3.539216e+002,1.669597e+002
3.548858e+002,2.073286e+002
3.558500e+002,2.657584e+002
3.568143e+002,3.076077e+002
3.577785e+002,3.216940e+002
3.587427e+002,3.117537e+002
3.597070e+002,2.840018e+002
3.606712e+002,2.369370e+002
3.616354e+002,1.838258e+002
3.625997e+002,1.409025e+002
3.635639e+002,1.089678e+002
3.645281e+002,8.617260e+001
3.654924e+002,6.919381e+001
3.664566e+002,5.969099e+001
3.674208e+002,5.108407e+001
3.683851e+002,4.321105e+001
3.693493e+002,3.623671e+001
3.703135e+002,3.063693e+001
3.712778e+002,2.761299e+001
3.722420e+002,2.491435e+001
3.732062e+002,2.198967e+001
3.741705e+002,1.933615e+001
3.751347e+002,1.786964e+001
3.760989e+002,1.886883e+001
3.770632e+002,2.003890e+001
3.780274e+002,2.002328e+001
3.789916e+002,1.915731e+001
3.799559e+002,1.808203e+001
3.809201e+002,1.748550e+001
3.818844e+002,1.741638e+001
3.828486e+002,1.772435e+001
3.838128e+002,1.836392e+001
3.847771e+002,1.898383e+001
3.857413e+002,1.903763e+001
3.867055e+002,1.812855e+001
3.876698e+002,1.789941e+001
3.886340e+002,1.821843e+001
3.895982e+002,1.907805e+001
3.905625e+002,2.073907e+001
3.915267e+002,2.449382e+001
3.924909e+002,2.672830e+001
3.934552e+002,2.601896e+001
3.944194e+002,2.407145e+001
3.953836e+002,2.267764e+001
3.963479e+002,2.292636e+001
3.973121e+002,2.393981e+001
3.982763e+002,2.532099e+001
3.992406e+002,2.663802e+001
4.002048e+002,2.707106e+001
4.011690e+002,2.576637e+001
4.021333e+002,2.311569e+001
4.030975e+002,2.228797e+001
4.040617e+002,2.325062e+001
4.050260e+002,2.511488e+001
4.059902e+002,2.693900e+001
4.069544e+002,2.833230e+001
4.079187e+002,3.093763e+001
4.088829e+002,3.507912e+001
4.098471e+002,3.976104e+001
4.108114e+002,4.384502e+001
4.117756e+002,4.649686e+001
4.127398e+002,5.139732e+001
4.137041e+002,6.326556e+001
4.146683e+002,7.531181e+001
4.156325e+002,8.264455e+001
4.165968e+002,8.268224e+001
4.175610e+002,7.786269e+001
4.185252e+002,7.086562e+001
4.194895e+002,6.302659e+001
4.204537e+002,5.562403e+001
4.214179e+002,4.953278e+001
4.223822e+002,4.486123e+001
4.233464e+002,4.418277e+001
4.243106e+002,4.750933e+001
4.252749e+002,5.150131e+001
4.262391e+002,5.402557e+001
4.272033e+002,5.477877e+001
4.281676e+002,5.896780e+001
4.291318e+002,6.687160e+001
4.300960e+002,7.790310e+001
4.310603e+002,9.226310e+001
4.320245e+002,1.096732e+002
4.329887e+002,1.293407e+002
4.339530e+002,1.515977e+002
4.349172e+002,1.754459e+002
4.358814e+002,2.040515e+002
4.368457e+002,2.356768e+002
4.378099e+002,2.643669e+002
4.387741e+002,2.777401e+002
4.397384e+002,2.774230e+002
4.407026e+002,2.669286e+002
4.416668e+002,2.458898e+002
4.426311e+002,2.178448e+002
4.435953e+002,1.947113e+002
4.445595e+002,1.799355e+002
4.455238e+002,1.664490e+002
4.464880e+002,1.535955e+002
4.474522e+002,1.419144e+002
4.484165e+002,1.329335e+002
4.493807e+002,1.290440e+002
4.503449e+002,1.258865e+002
4.513092e+002,1.236484e+002
4.522734e+002,1.207274e+002
4.532376e+002,1.147137e+002
4.542019e+002,1.026453e+002
4.551661e+002,8.858113e+001
4.561303e+002,7.781612e+001
4.570946e+002,6.993526e+001
4.580588e+002,6.389455e+001
4.590230e+002,5.854781e+001
4.599873e+002,5.405420e+001
4.609515e+002,5.088761e+001
4.619157e+002,4.887424e+001
4.628800e+002,4.789244e+001
4.638442e+002,4.790077e+001
4.648084e+002,4.907440e+001
4.657727e+002,5.088442e+001
4.667369e+002,5.336330e+001
4.677011e+002,5.634851e+001
4.686654e+002,6.003844e+001
4.696296e+002,6.451491e+001
4.705938e+002,6.831341e+001
4.715581e+002,7.108448e+001
4.725223e+002,7.231335e+001
4.734865e+002,7.122641e+001
4.744508e+002,6.772444e+001
4.754150e+002,6.261207e+001
4.763792e+002,5.702610e+001
4.773435e+002,5.129192e+001
4.783077e+002,4.674066e+001
4.792719e+002,4.398112e+001
4.802362e+002,4.262847e+001
4.812004e+002,4.038860e+001
4.821646e+002,3.620150e+001
4.831289e+002,3.223969e+001
4.840931e+002,2.812939e+001
4.850573e+002,2.425366e+001
4.860216e+002,2.168493e+001
4.869858e+002,2.167629e+001
4.879500e+002,2.250735e+001
4.889143e+002,2.442500e+001
4.898785e+002,2.655733e+001
4.908427e+002,2.761909e+001
4.918070e+002,2.627923e+001
4.927712e+002,2.363151e+001
4.937354e+002,2.146294e+001
4.946997e+002,1.986798e+001
4.956639e+002,1.901777e+001
4.966281e+002,1.908988e+001
4.975924e+002,2.018931e+001
4.985566e+002,2.187357e+001
4.995208e+002,2.414164e+001
5.004851e+002,2.670588e+001
5.014493e+002,2.927856e+001
5.024135e+002,3.171533e+001
5.033778e+002,3.504218e+001
5.043420e+002,4.093723e+001
5.053063e+002,4.641929e+001
5.062705e+002,5.051130e+001
5.072347e+002,5.276324e+001
5.081990e+002,5.253530e+001
5.091632e+002,4.629271e+001
5.101274e+002,3.903321e+001
5.110917e+002,3.384816e+001
5.120559e+002,3.126940e+001
5.130201e+002,2.993509e+001
5.139844e+002,2.714576e+001
5.149486e+002,2.295215e+001
5.159128e+002,1.910922e+001
5.168771e+002,1.586995e+001
5.178413e+002,1.309012e+001
5.188055e+002,1.040314e+001
5.197698e+002,7.237567e+000
5.207340e+002,5.188367e+000
5.216982e+002,4.734723e+000
5.226625e+002,5.065417e+000
5.236267e+002,5.344116e+000
5.245909e+002,5.330426e+000
5.255552e+002,5.211413e+000
5.265194e+002,5.143494e+000
5.274836e+002,5.048926e+000
5.284479e+002,4.931226e+000
5.294121e+002,4.795398e+000
5.303763e+002,4.539343e+000
5.313406e+002,3.332153e+000
5.323048e+002,1.699780e+000
5.332690e+002,9.751770e-001
5.342333e+002,1.862408e+000
5.351975e+002,4.103314e+000
5.361617e+002,5.521179e+000
5.371260e+002,5.799506e+000
5.380902e+002,5.883813e+000
5.390544e+002,5.949298e+000
5.400187e+002,5.856622e+000
5.409829e+002,5.203864e+000
5.419471e+002,3.029877e+000
5.429114e+002,1.608649e+000
5.438756e+002,2.061798e+000
5.448398e+002,3.473083e+000
5.458041e+002,4.400391e+000
5.467683e+002,3.678845e+000
5.477325e+002,2.465509e+000
5.486968e+002,2.522925e+000
5.496610e+002,3.409637e+000
5.506252e+002,4.365808e+000
5.515895e+002,4.766870e+000
5.525537e+002,4.601196e+000
5.535179e+002,4.063764e+000
5.544822e+002,3.056305e+000
5.554464e+002,2.231403e+000
5.564106e+002,1.949664e+000
5.573749e+002,2.180304e+000
5.583391e+002,2.281561e+000
5.593033e+002,2.533063e+000
5.602676e+002,2.375818e+000
5.612318e+002,1.137915e+000
5.621960e+002,-7.396240e-001
5.631603e+002,-1.942242e+000
5.641245e+002,-9.746460e-001
5.650887e+002,4.631531e-001
5.660530e+002,9.690613e-001
5.670172e+002,7.021484e-001
5.679814e+002,1.688904e-001
5.689457e+002,-1.047180e-001
5.699099e+002,-1.073547e-001
5.708741e+002,2.033935e-001
5.718384e+002,9.385498e-001
5.728026e+002,1.590546e+000
5.737668e+002,1.876733e+000
5.747311e+002,1.894696e+000
5.756953e+002,7.846497e-001
5.766595e+002,-3.195288e+000
5.776238e+002,-6.301019e+000
5.785880e+002,-6.375342e+000
5.795522e+002,-3.720892e+000
5.805165e+002,-1.555920e+000
5.814807e+002,-2.707269e+000
5.824449e+002,-4.386957e+000
5.834092e+002,-5.492218e+000
5.843734e+002,-5.829053e+000
5.853376e+002,-5.410699e+000
5.863019e+002,-4.081604e+000
5.872661e+002,-2.174939e+000
5.882303e+002,-1.484192e+000
5.891946e+002,-2.028790e+000
5.901588e+002,-2.828949e+000
5.911230e+002,-2.867926e+000
5.920873e+002,-1.905396e+000
5.930515e+002,-1.177057e+000
5.940157e+002,-2.162476e-001
5.949800e+002,2.102478e-001
5.959442e+002,-8.864685e-001
5.969084e+002,-3.429272e+000
5.978727e+002,-4.933551e+000
5.988369e+002,-2.548114e+000
5.998011e+002,8.850098e-002
6.007654e+002,1.835388e+000
6.017296e+002,2.465289e+000
6.026938e+002,2.047723e+000
6.036581e+002,2.882202e-001
6.046223e+002,-2.043457e+000
6.055865e+002,-2.508813e+000
6.065508e+002,-1.201660e+000
6.075150e+002,3.307251e-001
6.084792e+002,3.147034e-001
6.094435e+002,-1.856207e+000
6.104077e+002,-2.263043e+000
6.113719e+002,2.712585e-001
6.123362e+002,2.682050e+000
6.133004e+002,3.209027e+000
6.142646e+002,1.817816e+000
6.152289e+002,6.576660e-001
6.161931e+002,5.660156e-001
6.171573e+002,8.958740e-001
6.181216e+002,1.775043e+000
6.190858e+002,2.997516e+000
6.200500e+002,4.035407e+000
6.210143e+002,4.071936e+000
6.219785e+002,4.036029e+000
6.229427e+002,6.012683e+000
6.239070e+002,9.598956e+000
6.248712e+002,1.315225e+001
6.258354e+002,1.508799e+001
6.267997e+002,1.526662e+001
6.277639e+002,1.614365e+001
6.287281e+002,1.856065e+001
6.296924e+002,2.027384e+001
6.306566e+002,1.978224e+001
6.316208e+002,1.733484e+001
6.325851e+002,1.575662e+001
6.335493e+002,1.749038e+001
6.345135e+002,1.878193e+001
6.354778e+002,1.803274e+001
6.364420e+002,1.599257e+001
6.374063e+002,1.440651e+001
6.383705e+002,1.478237e+001
6.393347e+002,1.589655e+001
6.402990e+002,1.557697e+001
6.412632e+002,1.430428e+001
6.422274e+002,1.312332e+001
6.431917e+002,1.280944e+001
6.441559e+002,1.329189e+001
6.451201e+002,1.333086e+001
6.460844e+002,1.293429e+001
6.470486e+002,1.221935e+001
6.480128e+002,1.105251e+001
6.489771e+002,9.564672e+000
6.499413e+002,8.261347e+000
6.509055e+002,6.959448e+000
6.518698e+002,6.251001e+000
6.528340e+002,6.832587e+000
6.537982e+002,7.908465e+000
6.547625e+002,8.385449e+000
6.557267e+002,7.547736e+000
6.566909e+002,6.310437e+000
6.576552e+002,6.146552e+000
6.586194e+002,6.509692e+000
6.595836e+002,6.554480e+000
6.605479e+002,5.905713e+000
6.615121e+002,4.914886e+000
6.624763e+002,4.953021e+000
6.634406e+002,6.423395e+000
6.644048e+002,7.865869e+000
6.653690e+002,9.502319e+000
6.663333e+002,1.078676e+001
6.672975e+002,1.054901e+001
6.682617e+002,7.669977e+000
6.692260e+002,5.694208e+000
6.701902e+002,5.752923e+000
6.711544e+002,6.623505e+000
6.721187e+002,7.375427e+000
6.730829e+002,7.641730e+000
6.740471e+002,7.722815e+000
6.750114e+002,7.797638e+000
6.759756e+002,8.147204e+000
6.769398e+002,9.433825e+000
6.779041e+002,1.163714e+001
6.788683e+002,1.388359e+001
6.798325e+002,1.457184e+001
6.807968e+002,1.311598e+001
6.817610e+002,1.209988e+001
6.827252e+002,1.174995e+001
6.836895e+002,1.162817e+001
6.846537e+002,1.130984e+001
6.856179e+002,1.070173e+001
6.865822e+002,1.027809e+001
6.875464e+002,1.020439e+001
6.885106e+002,1.029157e+001
6.894749e+002,1.046857e+001
6.904391e+002,1.074194e+001
6.914034e+002,1.117176e+001
6.923676e+002,1.181039e+001
6.933318e+002,1.271976e+001
6.942961e+002,1.403156e+001
6.952603e+002,1.562795e+001
6.962245e+002,1.717874e+001
6.971888e+002,1.838311e+001
6.981530e+002,1.920321e+001
6.991172e+002,1.938472e+001
7.000815e+002,1.841831e+001
7.010457e+002,1.782708e+001
7.020099e+002,1.827927e+001
7.029742e+002,1.966454e+001
7.039384e+002,2.131016e+001
7.049026e+002,2.344303e+001
7.058669e+002,2.523738e+001
7.068311e+002,2.631092e+001
7.077953e+002,2.697131e+001
7.087596e+002,2.777585e+001
7.097238e+002,2.909897e+001
7.106880e+002,3.013087e+001
7.116523e+002,2.879678e+001
7.126165e+002,2.638006e+001
7.135807e+002,2.489684e+001
7.145450e+002,2.512923e+001
7.155092e+002,2.641534e+001
7.164734e+002,2.688900e+001
7.174377e+002,2.622419e+001
7.184019e+002,2.516171e+001
7.193661e+002,2.315455e+001
7.203304e+002,2.100529e+001
7.212946e+002,1.958161e+001
7.222589e+002,1.907357e+001
7.232231e+002,1.900336e+001
7.241873e+002,1.975488e+001
7.251516e+002,2.035420e+001
7.261158e+002,2.011355e+001
7.270800e+002,1.906138e+001
7.280443e+002,1.776505e+001
7.290085e+002,1.673674e+001
7.299727e+002,1.609014e+001
7.309370e+002,1.603669e+001
7.319012e+002,1.647990e+001
7.328654e+002,1.686226e+001
7.338297e+002,1.668987e+001
7.347939e+002,1.594537e+001
7.357581e+002,1.468998e+001
7.367224e+002,1.151425e+001
7.376866e+002,9.643621e+000
7.386508e+002,1.068799e+001
7.396151e+002,1.368933e+001
7.405793e+002,1.601647e+001
7.415435e+002,1.688244e+001
7.425078e+002,1.713730e+001
7.434720e+002,1.681242e+001
7.444362e+002,1.628092e+001
7.454005e+002,1.584028e+001
7.463647e+002,1.565850e+001
7.473289e+002,1.580778e+001
7.482932e+002,1.681922e+001
7.492574e+002,1.832112e+001
7.502216e+002,1.910345e+001
7.511859e+002,1.878073e+001
7.521501e+002,1.804832e+001
7.531143e+002,1.838467e+001
7.540786e+002,2.111083e+001
7.550428e+002,2.164954e+001
7.560070e+002,1.830308e+001
7.569713e+002,1.485745e+001
7.579355e+002,1.345959e+001
7.588997e+002,1.422731e+001
7.598640e+002,1.587099e+001
7.608282e+002,1.901172e+001
7.617924e+002,2.163246e+001
7.627567e+002,2.221475e+001
7.637209e+002,2.146755e+001
7.646851e+002,2.072411e+001
7.656494e+002,2.104147e+001
7.666136e+002,2.233590e+001
7.675778e+002,2.490389e+001
7.685421e+002,2.855065e+001
7.695063e+002,3.098700e+001
7.704705e+002,3.106293e+001
7.714348e+002,2.920041e+001
7.723990e+002,2.696808e+001
7.733632e+002,2.314974e+001
7.743275e+002,2.093422e+001
7.752917e+002,2.112035e+001
7.762559e+002,2.251163e+001
7.772202e+002,2.436286e+001
7.781844e+002,2.646899e+001
7.791486e+002,2.819234e+001
7.801129e+002,2.816887e+001
7.810771e+002,2.801164e+001
7.820413e+002,2.912014e+001
7.830056e+002,3.137952e+001
7.839698e+002,3.367542e+001
7.849340e+002,3.470741e+001
7.858983e+002,3.450674e+001
7.868625e+002,3.484346e+001
7.878267e+002,3.584482e+001
7.887910e+002,3.671736e+001
7.897552e+002,3.694151e+001
7.907194e+002,3.663875e+001
7.916837e+002,3.664003e+001
7.926479e+002,3.746040e+001
7.936121e+002,3.789305e+001
7.945764e+002,3.714962e+001
7.955406e+002,3.615654e+001
7.965048e+002,3.589415e+001
7.974691e+002,3.679752e+001
7.984333e+002,3.864791e+001
7.993975e+002,4.206044e+001
8.003618e+002,4.573908e+001
8.013260e+002,4.820763e+001
8.022902e+002,4.921514e+001
8.032545e+002,4.931907e+001
8.042187e+002,4.930349e+001
8.051829e+002,4.897871e+001
8.061472e+002,5.031340e+001
8.071114e+002,5.402445e+001
8.080756e+002,5.808904e+001
8.090399e+002,6.143617e+001
8.100041e+002,6.425300e+001
8.109683e+002,6.769672e+001
8.119326e+002,7.235826e+001
8.128968e+002,7.731358e+001
8.138610e+002,8.197893e+001
8.148253e+002,8.679508e+001
8.157895e+002,9.231706e+001
8.167537e+002,9.884538e+001
8.177180e+002,1.059551e+002
8.186822e+002,1.136469e+002
8.196464e+002,1.213037e+002
8.206107e+002,1.272059e+002
8.215749e+002,1.308215e+002
8.225391e+002,1.329985e+002
8.235034e+002,1.351978e+002
8.244676e+002,1.379855e+002
8.254318e+002,1.386128e+002
8.263961e+002,1.375772e+002
8.273603e+002,1.349878e+002
8.283245e+002,1.298920e+002
8.292888e+002,1.229605e+002
8.302530e+002,1.167928e+002
8.312172e+002,1.131297e+002
8.321815e+002,1.096631e+002
8.331457e+002,1.045858e+002
8.341099e+002,9.894997e+001
8.350742e+002,9.399423e+001
8.360384e+002,9.036568e+001
8.370026e+002,8.780581e+001
8.379669e+002,8.592303e+001
8.389311e+002,8.471342e+001
8.398953e+002,8.257681e+001
8.408596e+002,7.886989e+001
8.418238e+002,7.484361e+001
8.427880e+002,7.216898e+001
8.437523e+002,7.124071e+001
8.447165e+002,6.972346e+001
8.456807e+002,6.666545e+001
8.466450e+002,6.376212e+001
8.476092e+002,6.176852e+001
8.485734e+002,6.028584e+001
8.495377e+002,5.834165e+001
8.505019e+002,5.527031e+001
8.514661e+002,5.217706e+001
8.524304e+002,5.044868e+001
8.533946e+002,4.967084e+001
8.543588e+002,4.954362e+001
8.553231e+002,4.989318e+001
8.562873e+002,5.031517e+001
8.572515e+002,4.989816e+001
8.582158e+002,4.821594e+001
8.591800e+002,4.692857e+001
8.601442e+002,4.608802e+001
8.611085e+002,4.542959e+001
8.620727e+002,4.475991e+001
8.630369e+002,4.415557e+001
8.640012e+002,4.401078e+001
8.649654e+002,4.465063e+001
8.659296e+002,4.551573e+001
8.668939e+002,4.654006e+001
8.678581e+002,4.755980e+001
8.688223e+002,4.850820e+001
8.697866e+002,4.931086e+001
8.707508e+002,4.972311e+001
8.717150e+002,4.887220e+001
8.726793e+002,4.709420e+001
8.736435e+002,4.626415e+001
8.746077e+002,4.698088e+001
8.755720e+002,4.782108e+001
8.765362e+002,4.674768e+001
8.775004e+002,4.318084e+001
8.784647e+002,4.025211e+001
8.794289e+002,3.792223e+001
8.803931e+002,3.621852e+001
8.813574e+002,3.542728e+001
8.823216e+002,3.521220e+001
8.832858e+002,3.508960e+001
8.842501e+002,3.500906e+001
8.852143e+002,3.458459e+001
8.861785e+002,3.283294e+001
8.871428e+002,3.067564e+001
8.881070e+002,2.937686e+001
8.890712e+002,2.920652e+001
8.900355e+002,2.932725e+001
8.909997e+002,2.837482e+001
8.919639e+002,2.611184e+001
8.929282e+002,2.491769e+001
8.938924e+002,2.555081e+001
8.948566e+002,2.606251e+001
8.958209e+002,2.524773e+001
8.967851e+002,2.346527e+001
8.977493e+002,2.227758e+001
8.987136e+002,2.241508e+001
8.996778e+002,2.238186e+001
9.006420e+002,2.144440e+001
9.016063e+002,2.025214e+001
9.025705e+002,1.949903e+001
9.035347e+002,1.934615e+001
9.044990e+002,1.927313e+001
9.054632e+002,1.845628e+001
9.064274e+002,1.713740e+001
9.073917e+002,1.666656e+001
9.083559e+002,1.714125e+001
9.093201e+002,1.764143e+001
9.102844e+002,1.731707e+001
9.112486e+002,1.623262e+001
9.122128e+002,1.584365e+001
9.131771e+002,1.746268e+001
9.141413e+002,1.803024e+001
9.151055e+002,1.658567e+001
9.160698e+002,1.445034e+001
9.170340e+002,1.277990e+001
9.179982e+002,1.184105e+001
9.189625e+002,1.130828e+001
9.199267e+002,1.120242e+001
9.208909e+002,1.120673e+001
9.218552e+002,1.125207e+001
9.228194e+002,1.116879e+001
9.237836e+002,1.030368e+001
9.247479e+002,8.114899e+000
9.257121e+002,5.145935e+000
9.266763e+002,4.738410e+000
9.276406e+002,8.677435e+000
9.286048e+002,1.114747e+001
9.295690e+002,1.074044e+001
9.305333e+002,9.189502e+000
9.314975e+002,8.476294e+000
9.324617e+002,8.849218e+000
9.334260e+002,8.933624e+000
9.343902e+002,7.259302e+000
9.353545e+002,5.978986e+000
9.363187e+002,6.334302e+000
9.372830e+002,7.748053e+000
9.382472e+002,9.096014e+000
9.392114e+002,9.695630e+000
9.401757e+002,9.922272e+000
9.411399e+002,1.068324e+001
9.421041e+002,1.179924e+001
9.430684e+002,1.217632e+001
9.440326e+002,1.148457e+001
9.449968e+002,1.015118e+001
9.459611e+002,8.459539e+000
9.469253e+002,6.228559e+000
9.478895e+002,5.326159e+000
9.488538e+002,6.965503e+000
9.498180e+002,8.657153e+000
9.507822e+002,9.971258e+000
9.517465e+002,1.079142e+001
9.527107e+002,1.091199e+001
9.536749e+002,1.024863e+001
9.546392e+002,9.648438e+000
9.556034e+002,1.013799e+001
9.565676e+002,1.129457e+001
9.575319e+002,1.303955e+001
9.584961e+002,1.523295e+001
9.594603e+002,1.694797e+001
9.604246e+002,1.704297e+001
9.613888e+002,1.547410e+001
9.623530e+002,1.558181e+001
9.633173e+002,1.896777e+001
9.642815e+002,2.176716e+001
9.652457e+002,2.232810e+001
9.662100e+002,2.283281e+001
9.671742e+002,2.560562e+001
9.681384e+002,3.103101e+001
9.691027e+002,3.882061e+001
9.700669e+002,4.952894e+001
9.710311e+002,6.223716e+001
9.719954e+002,8.029254e+001
9.729596e+002,9.980405e+001
9.739238e+002,1.126460e+002
9.748881e+002,1.133235e+002
9.758523e+002,1.042401e+002
9.768165e+002,9.249009e+001
9.777808e+002,7.715178e+001
9.787450e+002,6.447736e+001
9.797092e+002,5.583715e+001
9.806735e+002,4.949325e+001
9.816377e+002,4.393003e+001
9.826019e+002,3.915899e+001
9.835662e+002,3.550498e+001
9.845304e+002,3.375666e+001
9.854946e+002,3.248201e+001
9.864589e+002,3.127017e+001
9.874231e+002,3.021918e+001
9.883873e+002,2.914693e+001
9.893516e+002,2.810310e+001
9.903158e+002,2.796451e+001
9.912800e+002,3.028726e+001
9.922443e+002,3.478303e+001
9.932085e+002,3.903275e+001
9.941727e+002,4.295296e+001
9.951370e+002,4.726329e+001
9.961012e+002,5.201118e+001
9.970654e+002,5.720525e+001
9.980297e+002,6.378516e+001
9.989939e+002,6.757583e+001
9.999581e+002,8.110126e+001
1.000922e+003,1.027399e+002
1.001887e+003,1.359362e+002
1.002851e+003,1.884613e+002
1.003815e+003,2.567405e+002
1.004779e+003,3.286846e+002
1.005744e+003,4.062981e+002
1.006708e+003,4.624439e+002
1.007672e+003,4.536476e+002
1.008636e+003,3.982868e+002
1.009600e+003,3.317393e+002
1.010565e+003,2.687057e+002
1.011529e+003,2.116867e+002
1.012493e+003,1.669169e+002
1.013457e+003,1.372118e+002
1.014422e+003,1.129621e+002
1.015386e+003,9.411295e+001
1.016350e+003,7.917378e+001
1.017314e+003,6.860610e+001
1.018279e+003,6.113834e+001
1.019243e+003,5.470994e+001
1.020207e+003,4.876687e+001
1.021171e+003,4.354826e+001
1.022135e+003,3.940627e+001
1.023100e+003,3.600461e+001
1.024064e+003,3.316625e+001
1.025028e+003,3.077726e+001
1.025992e+003,2.878892e+001
1.026957e+003,2.716931e+001
1.027921e+003,2.595905e+001
1.028885e+003,2.514465e+001
1.029849e+003,2.511697e+001
1.030814e+003,2.457788e+001
1.031778e+003,2.257936e+001
1.032742e+003,2.047205e+001
1.033706e+003,1.972143e+001
1.034671e+003,2.043097e+001
1.035635e+003,2.134998e+001
1.036599e+003,2.235360e+001
1.037563e+003,2.298759e+001
1.038527e+003,2.276995e+001
1.039492e+003,2.214335e+001
1.040456e+003,2.168295e+001
1.041420e+003,2.160884e+001
1.042384e+003,2.167269e+001
1.043349e+003,2.148057e+001
1.044313e+003,2.104067e+001
1.045277e+003,2.101906e+001
1.046241e+003,2.160882e+001
1.047206e+003,2.198043e+001
1.048170e+003,2.168873e+001
1.049134e+003,2.092429e+001
1.050098e+003,1.999410e+001
1.051063e+003,1.865335e+001
1.052027e+003,1.821072e+001
1.052991e+003,1.942122e+001
1.053955e+003,2.107244e+001
1.054919e+003,2.310449e+001
1.055884e+003,2.495384e+001
1.056848e+003,2.559126e+001
1.057812e+003,2.444340e+001
1.058776e+003,2.257518e+001
1.059741e+003,2.223280e+001
1.060705e+003,2.310388e+001
1.061669e+003,2.310780e+001
1.062633e+003,2.171396e+001
1.063598e+003,2.010727e+001
1.064562e+003,1.943430e+001
1.065526e+003,1.968923e+001
1.066490e+003,1.998384e+001
1.067454e+003,2.018748e+001
1.068419e+003,2.053492e+001
1.069383e+003,2.119858e+001
1.070347e+003,2.178561e+001
1.071311e+003,2.190454e+001
1.072276e+003,2.165457e+001
1.073240e+003,2.159431e+001
1.074204e+003,2.221804e+001
1.075168e+003,2.308171e+001
1.076133e+003,2.286376e+001
1.077097e+003,2.192939e+001
1.078061e+003,2.177720e+001
1.079025e+003,2.305543e+001
1.079990e+003,2.469146e+001
1.080954e+003,2.496647e+001
1.081918e+003,2.356374e+001
1.082882e+003,2.301534e+001
1.083846e+003,2.449963e+001
1.084811e+003,2.554247e+001
1.085775e+003,2.543180e+001
1.086739e+003,2.478013e+001
1.087703e+003,2.416054e+001
1.088668e+003,2.381121e+001
1.089632e+003,2.390207e+001
1.090596e+003,2.479573e+001
1.091560e+003,2.579350e+001
1.092525e+003,2.519582e+001
1.093489e+003,2.346303e+001
1.094453e+003,2.275891e+001
1.095417e+003,2.426883e+001
1.096381e+003,2.667477e+001
1.097346e+003,2.715541e+001
1.098310e+003,2.492971e+001
1.099274e+003,2.353368e+001
1.100238e+003,2.332298e+001
1.101203e+003,2.353024e+001
1.102167e+003,2.429463e+001
1.103131e+003,2.513716e+001
1.104095e+003,2.536326e+001
1.105060e+003,2.480400e+001
1.106024e+003,2.416754e+001
1.106988e+003,2.408347e+001
1.107952e+003,2.444734e+001
1.108917e+003,2.508473e+001
1.109881e+003,2.588232e+001
1.110845e+003,2.643774e+001
1.111809e+003,2.648514e+001
1.112773e+003,2.628292e+001
1.113738e+003,2.654291e+001
1.114702e+003,2.762516e+001
1.115666e+003,2.835035e+001
1.116630e+003,2.875746e+001
1.117595e+003,2.872285e+001
1.118559e+003,2.759467e+001
1.119523e+003,2.626096e+001
1.120487e+003,2.617532e+001
1.121452e+003,2.773712e+001
1.122416e+003,2.961462e+001
1.123380e+003,3.077499e+001
1.124344e+003,3.134299e+001
1.125308e+003,3.143471e+001
1.126273e+003,3.123464e+001
1.127237e+003,3.123075e+001
1.128201e+003,3.168291e+001
1.129165e+003,3.245181e+001
1.130130e+003,3.326609e+001
1.131094e+003,3.427954e+001
1.132058e+003,3.460102e+001
1.133022e+003,3.401268e+001
1.133987e+003,3.319687e+001
1.134951e+003,3.215148e+001
1.135915e+003,3.119340e+001
1.136879e+003,3.068379e+001
1.137844e+003,3.070904e+001
1.138808e+003,3.113461e+001
1.139772e+003,3.194654e+001
1.140736e+003,3.287141e+001
1.141700e+003,3.379634e+001
1.142665e+003,3.466092e+001
1.143629e+003,3.510970e+001
1.144593e+003,3.495390e+001
1.145557e+003,3.466348e+001
1.146522e+003,3.521743e+001
1.147486e+003,3.698540e+001
1.148450e+003,3.752886e+001
1.149414e+003,3.548741e+001
1.150379e+003,3.428967e+001
1.151343e+003,3.557218e+001
1.152307e+003,3.774109e+001
1.153271e+003,3.855209e+001
1.154235e+003,3.766144e+001
1.155200e+003,3.715701e+001
1.156164e+003,3.905408e+001
1.157128e+003,4.160658e+001
1.158092e+003,4.194660e+001
1.159057e+003,4.086123e+001
1.160021e+003,4.035436e+001
1.160985e+003,4.116207e+001
1.161949e+003,4.255831e+001
1.162914e+003,4.352983e+001
1.163878e+003,4.408455e+001
1.164842e+003,4.463269e+001
1.165806e+003,4.499308e+001
1.166771e+003,4.548548e+001
1.167735e+003,4.620565e+001
1.168699e+003,4.704939e+001
1.169663e+003,4.787941e+001
1.170627e+003,4.871603e+001
1.171592e+003,4.985643e+001
1.172556e+003,5.169074e+001
1.173520e+003,5.341245e+001
1.174484e+003,5.332438e+001
1.175449e+003,5.227889e+001
1.176413e+003,5.184874e+001
1.177377e+003,5.237502e+001
1.178341e+003,5.362661e+001
1.179306e+003,5.564343e+001
1.180270e+003,5.833516e+001
1.181234e+003,6.005060e+001
1.182198e+003,5.969297e+001
1.183162e+003,6.017353e+001
1.184127e+003,6.284328e+001
1.185091e+003,6.524454e+001
1.186055e+003,6.596751e+001
1.187019e+003,6.528555e+001
1.187984e+003,6.397598e+001
1.188948e+003,6.233620e+001
1.189912e+003,6.048052e+001
1.190876e+003,5.835744e+001
1.191841e+003,5.631115e+001
1.192805e+003,5.508007e+001
1.193769e+003,5.471828e+001
1.194733e+003,5.504101e+001
1.195698e+003,5.634022e+001
1.196662e+003,5.786491e+001
1.197626e+003,5.744743e+001
1.198590e+003,5.432923e+001
1.199554e+003,5.195318e+001
1.200519e+003,5.093496e+001
1.201483e+003,5.064344e+001
1.202447e+003,5.128016e+001
1.203411e+003,5.231738e+001
1.204376e+003,5.344046e+001
1.205340e+003,5.428877e+001
1.206304e+003,5.394308e+001
1.207268e+003,5.139405e+001
1.208233e+003,4.785833e+001
1.209197e+003,4.668618e+001
1.210161e+003,4.750868e+001
1.211125e+003,4.887830e+001
1.212089e+003,5.075644e+001
1.213054e+003,5.225088e+001
1.214018e+003,5.235130e+001
1.214982e+003,5.124834e+001
1.215946e+003,4.998708e+001
1.216911e+003,4.781530e+001
1.217875e+003,4.699140e+001
1.218839e+003,4.890949e+001
1.219803e+003,5.134988e+001
1.220768e+003,5.317641e+001
1.221732e+003,5.416178e+001
1.222696e+003,5.402100e+001
1.223660e+003,5.265935e+001
1.224625e+003,5.122250e+001
1.225589e+003,5.193629e+001
1.226553e+003,5.479712e+001
1.227517e+003,5.620366e+001
1.228481e+003,5.561185e+001
1.229446e+003,5.517417e+001
1.230410e+003,5.628173e+001
1.231374e+003,5.787962e+001
1.232338e+003,5.802526e+001
1.233303e+003,5.654596e+001
1.234267e+003,5.558934e+001
1.235231e+003,5.652141e+001
1.236195e+003,5.721979e+001
1.237160e+003,5.592075e+001
1.238124e+003,5.397383e+001
1.239088e+003,5.325274e+001
1.240052e+003,5.400565e+001
1.241016e+003,5.492107e+001
1.241981e+003,5.470988e+001
1.242945e+003,5.375340e+001
1.243909e+003,5.388412e+001
1.244873e+003,5.588447e+001
1.245838e+003,5.722311e+001
1.246802e+003,5.760547e+001
1.247766e+003,5.759138e+001
1.248730e+003,5.717177e+001
1.249695e+003,5.665400e+001
1.250659e+003,5.673654e+001
1.251623e+003,5.762336e+001
1.252587e+003,5.864266e+001
1.253552e+003,5.931516e+001
1.254516e+003,5.990813e+001
1.255480e+003,6.134823e+001
1.256444e+003,6.286564e+001
1.257408e+003,6.215401e+001
1.258373e+003,5.845005e+001
1.259337e+003,5.449592e+001
1.260301e+003,5.427410e+001
1.261265e+003,5.785241e+001
1.262230e+003,6.046724e+001
1.263194e+003,6.118739e+001
1.264158e+003,6.186870e+001
1.265122e+003,6.304302e+001
1.266087e+003,6.386693e+001
1.267051e+003,6.356904e+001
1.268015e+003,6.254514e+001
1.268979e+003,6.162415e+001
1.269943e+003,6.111446e+001
1.270908e+003,6.131057e+001
1.271872e+003,6.309166e+001
1.272836e+003,6.543545e+001
1.273800e+003,6.572247e+001
1.274765e+003,6.409914e+001
1.275729e+003,6.273284e+001
1.276693e+003,6.268348e+001
1.277657e+003,6.325259e+001
1.278622e+003,6.341030e+001
1.279586e+003,6.310190e+001
1.280550e+003,6.255116e+001
1.281514e+003,6.114243e+001
1.282479e+003,6.087642e+001
1.283443e+003,6.357218e+001
1.284407e+003,6.624426e+001
1.285371e+003,6.610472e+001
1.286335e+003,6.382008e+001
1.287300e+003,6.183396e+001
1.288264e+003,6.151765e+001
1.289228e+003,6.234126e+001
1.290192e+003,6.345997e+001
1.291157e+003,6.486970e+001
1.292121e+003,6.649147e+001
1.293085e+003,6.843874e+001
1.294049e+003,6.984897e+001
1.295014e+003,7.021315e+001
1.295978e+003,7.024933e+001
1.296942e+003,7.080940e+001
1.297906e+003,7.187968e+001
1.298870e+003,7.290151e+001
1.299835e+003,7.379590e+001
1.300799e+003,7.409016e+001
1.301763e+003,7.289629e+001
1.302727e+003,7.142125e+001
1.303692e+003,7.071404e+001
1.304656e+003,7.094780e+001
1.305620e+003,7.213960e+001
1.306584e+003,7.421249e+001
1.307549e+003,7.623267e+001
1.308513e+003,7.634798e+001
1.309477e+003,7.414284e+001
1.310441e+003,7.279353e+001
1.311406e+003,7.218246e+001
1.312370e+003,7.272522e+001
1.313334e+003,7.592958e+001
1.314298e+003,7.911034e+001
1.315263e+003,7.970343e+001
1.316227e+003,7.820661e+001
1.317191e+003,7.666007e+001
1.318155e+003,7.582829e+001
1.319120e+003,7.604625e+001
1.320084e+003,7.849099e+001
1.321048e+003,8.176457e+001
1.322012e+003,8.278804e+001
1.322976e+003,8.161792e+001
1.323941e+003,7.987608e+001
1.324905e+003,7.805613e+001
1.325869e+003,7.663615e+001
1.326833e+003,7.641228e+001
1.327798e+003,7.734521e+001
1.328762e+003,7.810071e+001
1.329726e+003,7.855022e+001
1.330690e+003,7.875562e+001
1.331655e+003,7.857673e+001
1.332619e+003,7.839528e+001
1.333583e+003,7.854882e+001
1.334547e+003,7.887492e+001
1.335511e+003,7.884785e+001
1.336476e+003,7.834959e+001
1.337440e+003,7.822272e+001
1.338404e+003,7.965038e+001
1.339368e+003,8.232939e+001
1.340333e+003,8.319630e+001
1.341297e+003,8.143024e+001
1.342261e+003,8.028410e+001
1.343225e+003,8.070296e+001
1.344190e+003,8.128053e+001
1.345154e+003,8.107204e+001
1.346118e+003,8.028864e+001
1.347082e+003,7.920010e+001
1.348047e+003,7.776671e+001
1.349011e+003,7.737872e+001
1.349975e+003,7.975524e+001
1.350939e+003,8.261844e+001
1.351903e+003,8.325377e+001
1.352868e+003,8.250564e+001
1.353832e+003,8.204396e+001
1.354796e+003,8.235017e+001
1.355760e+003,8.334454e+001
1.356725e+003,8.521611e+001
1.357689e+003,8.754459e+001
1.358653e+003,8.817944e+001
1.359617e+003,8.621969e+001
1.360582e+003,8.515076e+001
1.361546e+003,8.615985e+001
1.362510e+003,8.690971e+001
1.363474e+003,8.655865e+001
1.364438e+003,8.581602e+001
1.365403e+003,8.524582e+001
1.366367e+003,8.494824e+001
1.367331e+003,8.476311e+001
1.368295e+003,8.460783e+001
1.369260e+003,8.493646e+001
1.370224e+003,8.694410e+001
1.371188e+003,9.064946e+001
1.372152e+003,9.180815e+001
1.373117e+003,8.894932e+001
1.374081e+003,8.717424e+001
1.375045e+003,8.944720e+001
1.376009e+003,9.276730e+001
1.376974e+003,9.361990e+001
1.377938e+003,9.238055e+001
1.378902e+003,9.177361e+001
1.379866e+003,9.269407e+001
1.380830e+003,9.340068e+001
1.381795e+003,9.230654e+001
1.382759e+003,9.073916e+001
1.383723e+003,8.959496e+001
1.384687e+003,8.911008e+001
1.385652e+003,8.969762e+001
1.386616e+003,9.147554e+001
1.387580e+003,9.369986e+001
1.388544e+003,9.562095e+001
1.389509e+003,9.709930e+001
1.390473e+003,9.719775e+001
1.391437e+003,9.507858e+001
1.392401e+003,9.376743e+001
1.393365e+003,9.375908e+001
1.394330e+003,9.404091e+001
1.395294e+003,9.410304e+001
1.396258e+003,9.417461e+001
1.397222e+003,9.486543e+001
1.398187e+003,9.618571e+001
1.399151e+003,9.751318e+001
1.400115e+003,9.832541e+001
1.401079e+003,9.851942e+001
1.402044e+003,9.785583e+001
1.403008e+003,9.635741e+001
1.403972e+003,9.606572e+001
1.404936e+003,9.776399e+001
1.405901e+003,9.891121e+001
1.406865e+003,9.753221e+001
1.407829e+003,9.609541e+001
1.408793e+003,9.799920e+001
1.409757e+003,1.023907e+002
1.410722e+003,1.046863e+002
1.411686e+003,1.032371e+002
1.412650e+003,1.014960e+002
1.413614e+003,1.023107e+002
1.414579e+003,1.038039e+002
1.415543e+003,1.034953e+002
1.416507e+003,1.022070e+002
1.417471e+003,1.022436e+002
1.418436e+003,1.042446e+002
1.419400e+003,1.065815e+002
1.420364e+003,1.077643e+002
1.421328e+003,1.081143e+002
1.422292e+003,1.086751e+002
1.423257e+003,1.094853e+002
1.424221e+003,1.099459e+002
1.425185e+003,1.094418e+002
1.426149e+003,1.090543e+002
1.427114e+003,1.091292e+002
1.428078e+003,1.097881e+002
1.429042e+003,1.113476e+002
1.430006e+003,1.133437e+002
1.430971e+003,1.148544e+002
1.431935e+003,1.153958e+002
1.432899e+003,1.149295e+002
1.433863e+003,1.132459e+002
1.434828e+003,1.106636e+002
1.435792e+003,1.105835e+002
1.436756e+003,1.142881e+002
1.437720e+003,1.171777e+002
1.438684e+003,1.191862e+002
1.439649e+003,1.204195e+002
1.440613e+003,1.206444e+002
1.441577e+003,1.202795e+002
1.442541e+003,1.199763e+002
1.443506e+003,1.197113e+002
1.444470e+003,1.186606e+002
1.445434e+003,1.160841e+002
1.446398e+003,1.139047e+002
1.447363e+003,1.155517e+002
1.448327e+003,1.193475e+002
1.449291e+003,1.206583e+002
1.450255e+003,1.191206e+002
1.451219e+003,1.184920e+002
1.452184e+003,1.214431e+002
1.453148e+003,1.250155e+002
1.454112e+003,1.246175e+002
1.455076e+003,1.211403e+002
1.456041e+003,1.206507e+002
1.457005e+003,1.249136e+002
1.457969e+003,1.286522e+002
1.458933e+003,1.291368e+002
1.459898e+003,1.288828e+002
1.460862e+003,1.294071e+002
1.461826e+003,1.301589e+002
1.462790e+003,1.302525e+002
1.463755e+003,1.295584e+002
1.464719e+003,1.284120e+002
1.465683e+003,1.269984e+002
1.466647e+003,1.259241e+002
1.467611e+003,1.268431e+002
1.468576e+003,1.302342e+002
1.469540e+003,1.316154e+002
1.470504e+003,1.285273e+002
1.471468e+003,1.273905e+002
1.472433e+003,1.309791e+002
1.473397e+003,1.346306e+002
1.474361e+003,1.356436e+002
1.475325e+003,1.346909e+002
1.476290e+003,1.323552e+002
1.477254e+003,1.294646e+002
1.478218e+003,1.285838e+002
1.479182e+003,1.319194e+002
1.480146e+003,1.370385e+002
1.481111e+003,1.381804e+002
1.482075e+003,1.348087e+002
1.483039e+003,1.320795e+002
1.484003e+003,1.299687e+002
1.484968e+003,1.284206e+002
1.485932e+003,1.274385e+002
1.486896e+003,1.272457e+002
1.487860e+003,1.287541e+002
1.488825e+003,1.308510e+002
1.489789e+003,1.306088e+002
1.490753e+003,1.275133e+002
1.491717e+003,1.253618e+002
1.492682e+003,1.270732e+002
1.493646e+003,1.302485e+002
1.494610e+003,1.307556e+002
1.495574e+003,1.294370e+002
1.496538e+003,1.290624e+002
1.497503e+003,1.300645e+002
1.498467e+003,1.310416e+002
1.499431e+003,1.316024e+002
1.500395e+003,1.313923e+002
1.501360e+003,1.292472e+002
1.502324e+003,1.259412e+002
1.503288e+003,1.252308e+002
1.504252e+003,1.281454e+002
1.505217e+003,1.307392e+002
1.506181e+003,1.318329e+002
1.507145e+003,1.311002e+002
1.508109e+003,1.263364e+002
1.509073e+003,1.207171e+002
1.510038e+003,1.203184e+002
1.511002e+003,1.252256e+002
1.511966e+003,1.290482e+002
1.512930e+003,1.276843e+002
1.513895e+003,1.239729e+002
1.514859e+003,1.225561e+002
1.515823e+003,1.233061e+002
1.516787e+003,1.242563e+002
1.517752e+003,1.260209e+002
1.518716e+003,1.267776e+002
1.519680e+003,1.247536e+002
1.520644e+003,1.228367e+002
1.521609e+003,1.223581e+002
1.522573e+003,1.226798e+002
1.523537e+003,1.232617e+002
1.524501e+003,1.239262e+002
1.525465e+003,1.244723e+002
1.526430e+003,1.247048e+002
1.527394e+003,1.246844e+002
1.528358e+003,1.246130e+002
1.529322e+003,1.245068e+002
1.530287e+003,1.242052e+002
1.531251e+003,1.238355e+002
1.532215e+003,1.231877e+002
1.533179e+003,1.218100e+002
1.534144e+003,1.206119e+002
1.535108e+003,1.196187e+002
1.536072e+003,1.191728e+002
1.537036e+003,1.202007e+002
1.538000e+003,1.220846e+002
1.538965e+003,1.228442e+002
1.539929e+003,1.216683e+002
1.540893e+003,1.202427e+002
1.541857e+003,1.206742e+002
1.542822e+003,1.223280e+002
1.543786e+003,1.219542e+002
1.544750e+003,1.183947e+002
1.545714e+003,1.163619e+002
1.546679e+003,1.174111e+002
1.547643e+003,1.176964e+002
1.548607e+003,1.152717e+002
1.549571e+003,1.123218e+002
1.550536e+003,1.106933e+002
1.551500e+003,1.102300e+002
1.552464e+003,1.103492e+002
1.553428e+003,1.108982e+002
1.554392e+003,1.114165e+002
1.555357e+003,1.113605e+002
1.556321e+003,1.111592e+002
1.557285e+003,1.121680e+002
1.558249e+003,1.142676e+002
1.559214e+003,1.144022e+002
1.560178e+003,1.118753e+002
1.561142e+003,1.092655e+002
1.562106e+003,1.067500e+002
1.563071e+003,1.049096e+002
1.564035e+003,1.050286e+002
1.564999e+003,1.062016e+002
1.565963e+003,1.059285e+002
1.566927e+003,1.038615e+002
1.567892e+003,1.020932e+002
1.568856e+003,1.016443e+002
1.569820e+003,1.019669e+002
1.570784e+003,1.030543e+002
1.571749e+003,1.041629e+002
1.572713e+003,1.033156e+002
1.573677e+003,1.006160e+002
1.574641e+003,9.828532e+001
1.575606e+003,9.683167e+001
1.576570e+003,9.605321e+001
1.577534e+003,9.643159e+001
1.578498e+003,9.720823e+001
1.579463e+003,9.674061e+001
1.580427e+003,9.501106e+001
1.581391e+003,9.315605e+001
1.582355e+003,9.132955e+001
1.583319e+003,9.016843e+001
1.584284e+003,9.063628e+001
1.585248e+003,9.162536e+001
1.586212e+003,9.155763e+001
1.587176e+003,9.061454e+001
1.588141e+003,8.962399e+001
1.589105e+003,8.885435e+001
1.590069e+003,8.822434e+001
1.591033e+003,8.791548e+001
1.591998e+003,8.729453e+001
1.592962e+003,8.487511e+001
1.593926e+003,8.118710e+001
1.594890e+003,7.947662e+001
1.595854e+003,8.045264e+001
1.596819e+003,8.118770e+001
1.597783e+003,8.017159e+001
1.598747e+003,7.911160e+001
1.599711e+003,8.011304e+001
1.600676e+003,8.127577e+001
1.601640e+003,7.989262e+001
1.602604e+003,7.644343e+001
1.603568e+003,7.358156e+001
1.604533e+003,7.227204e+001
1.605497e+003,7.171844e+001
1.606461e+003,7.129944e+001
1.607425e+003,7.101788e+001
1.608390e+003,7.107325e+001
1.609354e+003,7.156103e+001
1.610318e+003,7.114931e+001
1.611282e+003,6.896893e+001
1.612246e+003,6.715541e+001
1.613211e+003,6.737476e+001
1.614175e+003,6.764372e+001
1.615139e+003,6.649612e+001
1.616103e+003,6.464642e+001
1.617068e+003,6.324015e+001
1.618032e+003,6.242414e+001
1.618996e+003,6.156110e+001
1.619960e+003,6.016865e+001
1.620925e+003,5.897974e+001
1.621889e+003,5.970647e+001
1.622853e+003,6.179103e+001
1.623817e+003,6.131583e+001
1.624781e+003,5.785916e+001
1.625746e+003,5.471924e+001
1.626710e+003,5.193643e+001
1.627674e+003,5.043903e+001
1.628638e+003,5.144870e+001
1.629603e+003,5.301347e+001
1.630567e+003,5.416687e+001
1.631531e+003,5.451637e+001
1.632495e+003,5.299723e+001
1.633460e+003,4.974380e+001
1.634424e+003,4.751685e+001
1.635388e+003,4.856295e+001
1.636352e+003,5.075267e+001
1.637317e+003,4.990857e+001
1.638281e+003,4.629620e+001
1.639245e+003,4.446058e+001
1.640209e+003,4.507115e+001
1.641173e+003,4.516158e+001
1.642138e+003,4.364094e+001
1.643102e+003,4.208378e+001
1.644066e+003,4.147229e+001
1.645030e+003,4.100782e+001
1.645995e+003,3.965999e+001
1.646959e+003,3.780803e+001
1.647923e+003,3.656750e+001
1.648887e+003,3.629142e+001
1.649852e+003,3.658301e+001
1.650816e+003,3.727118e+001
1.651780e+003,3.796888e+001
1.652744e+003,3.768422e+001
1.653708e+003,3.646264e+001
1.654673e+003,3.590871e+001
1.655637e+003,3.643851e+001
1.656601e+003,3.638229e+001
1.657565e+003,3.486109e+001
1.658530e+003,3.320389e+001
1.659494e+003,3.189438e+001
1.660458e+003,3.098287e+001
1.661422e+003,3.086119e+001
1.662387e+003,3.116533e+001
1.663351e+003,3.070864e+001
1.664315e+003,2.914112e+001
1.665279e+003,2.783467e+001
1.666244e+003,2.831120e+001
1.667208e+003,2.930341e+001
1.668172e+003,2.752322e+001
1.669136e+003,2.325923e+001
1.670100e+003,2.155524e+001
1.671065e+003,2.340277e+001
1.672029e+003,2.519143e+001
1.672993e+003,2.633545e+001
1.673957e+003,2.642768e+001
1.674922e+003,2.427421e+001
1.675886e+003,2.162159e+001
1.676850e+003,2.055121e+001
1.677814e+003,2.079531e+001
1.678779e+003,2.086139e+001
1.679743e+003,2.028336e+001
1.680707e+003,1.978815e+001
1.681671e+003,2.011860e+001
1.682635e+003,2.064811e+001
1.683600e+003,2.014227e+001
1.684564e+003,1.882732e+001
1.685528e+003,1.801274e+001
1.686492e+003,1.783038e+001
1.687457e+003,1.767031e+001
1.688421e+003,1.741035e+001
1.689385e+003,1.706347e+001
1.690349e+003,1.655988e+001
1.691314e+003,1.609048e+001
1.692278e+003,1.605893e+001
1.693242e+003,1.619669e+001
1.694206e+003,1.537119e+001
1.695171e+003,1.318839e+001
1.696135e+003,1.152494e+001
1.697099e+003,1.186858e+001
1.698063e+003,1.303183e+001
1.699027e+003,1.390960e+001
1.699992e+003,1.432872e+001
1.700956e+003,1.322631e+001
1.701920e+003,1.056267e+001
1.702884e+003,9.242206e+000
1.703849e+003,1.061315e+001
1.704813e+003,1.215522e+001
1.705777e+003,1.179449e+001
1.706741e+003,1.061757e+001
1.707706e+003,1.062516e+001
1.708670e+003,1.141912e+001
1.709634e+003,1.119969e+001
1.710598e+003,9.514410e+000
1.711563e+003,8.207474e+000
1.712527e+003,8.301099e+000
1.713491e+003,8.781476e+000
1.714455e+003,8.994494e+000
1.715419e+003,8.973608e+000
1.716384e+003,8.689514e+000
1.717348e+003,8.201818e+000
1.718312e+003,7.709760e+000
1.719276e+003,7.267367e+000
1.720241e+003,7.282977e+000
1.721205e+003,8.252829e+000
1.722169e+003,9.278030e+000
1.723133e+003,8.746936e+000
1.724098e+003,6.945688e+000
1.725062e+003,5.969598e+000
1.726026e+003,5.967926e+000
1.726990e+003,5.891150e+000
1.727954e+003,5.542328e+000
1.728919e+003,5.131747e+000
1.729883e+003,4.871896e+000
1.730847e+003,4.512131e+000
1.731811e+003,3.634268e+000
1.732776e+003,2.492691e+000
1.733740e+003,1.603882e+000
1.734704e+003,1.120587e+000
1.735668e+003,1.026645e+000
1.736633e+003,1.304208e+000
1.737597e+003,1.912601e+000
1.738561e+003,2.890128e+000
1.739525e+003,4.056213e+000
1.740490e+003,4.424979e+000
1.741454e+003,3.742703e+000
1.742418e+003,3.098059e+000
1.743382e+003,2.472403e+000
1.744346e+003,1.900296e+000
1.745311e+003,1.555960e+000
1.746275e+003,1.080109e+000
1.747239e+003,-2.608368e-001
1.748203e+003,-1.463712e+000
1.749168e+003,-8.507690e-001
1.750132e+003,1.026044e+000
1.751096e+003,2.047733e+000
1.752060e+003,1.459830e+000
1.753025e+003,4.955170e-001
1.753989e+003,2.918854e-001
1.754953e+003,5.975555e-001
1.755917e+003,9.041931e-001
1.756881e+003,1.216516e+000
1.757846e+003,8.611084e-001
1.758810e+003,-6.884918e-001
1.759774e+003,-1.297195e+000
1.760738e+003,-4.512634e-002
1.761703e+003,1.255542e+000
1.762667e+003,2.350250e+000
1.763631e+003,2.886362e+000
1.764595e+003,2.291501e+000
1.765560e+003,1.112793e+000
1.766524e+003,2.871552e-001
1.767488e+003,-8.296204e-002
1.768452e+003,-5.111114e-001
1.769417e+003,-1.250900e+000
1.770381e+003,-2.054318e+000
1.771345e+003,-3.001523e+000
1.772309e+003,-3.678241e+000
1.773273e+003,-2.471936e+000
1.774238e+003,3.165955e-001
1.775202e+003,1.076651e+000
1.776166e+003,-1.014420e+000
1.777130e+003,-2.268661e+000
1.778095e+003,-6.872314e-001
1.779059e+003,9.586273e-001
1.780023e+003,-4.105224e-002
1.780987e+003,-2.237265e+000
1.781952e+003,-3.223508e+000
1.782916e+003,-3.232538e+000
1.783880e+003,-3.386533e+000
1.784844e+003,-3.896112e+000
1.785808e+003,-4.188019e+000
1.786773e+003,-4.031665e+000
1.787737e+003,-3.569373e+000
1.788701e+003,-2.777435e+000
1.789665e+003,-1.856799e+000
1.790630e+003,-8.255768e-001
1.791594e+003,5.514831e-002
1.792558e+003,-2.655457e-001
1.793522e+003,-1.884079e+000
1.794487e+003,-2.851373e+000
1.795451e+003,-1.902997e+000
1.796415e+003,-1.688843e-001
1.797379e+003,9.345428e-001
1.798344e+003,1.281998e+000
1.799308e+003,2.630249e-001
1.800272e+003,-2.911285e+000
1.801236e+003,-4.446875e+000
1.802201e+003,-3.002786e+000
1.803165e+003,-2.065521e+000
1.804129e+003,-2.760779e+000
1.805093e+003,-3.340683e+000
1.806057e+003,-2.531522e+000
1.807022e+003,-1.374725e+000
1.807986e+003,-1.090674e+000
1.808950e+003,-1.530151e+000
1.809914e+003,-2.030063e+000
1.810879e+003,-2.317468e+000
1.811843e+003,-2.302737e+000
1.812807e+003,-1.912015e+000
1.813771e+003,-1.477487e+000
1.814736e+003,-1.614777e+000
1.815700e+003,-2.115628e+000
1.816664e+003,-1.645047e+000
1.817628e+003,-9.408569e-003
1.818593e+003,3.910278e-001
1.819557e+003,-1.281677e+000
1.820521e+003,-2.373554e+000
1.821485e+003,-1.450357e+000
1.822449e+003,-3.227173e-001
1.823414e+003,-4.395752e-001
1.824378e+003,-1.109732e+000
1.825342e+003,-1.587201e+000
1.826306e+003,-1.768756e+000
1.827271e+003,-1.406986e+000
1.828235e+003,-3.626648e-001
1.829199e+003,2.422516e-001
1.830163e+003,-4.586883e-001
1.831128e+003,-1.419885e+000
1.832092e+003,-2.024078e+000
1.833056e+003,-2.164853e+000
1.834020e+003,-1.188074e+000
1.834984e+003,3.486114e-001
1.835949e+003,3.599792e-001
1.836913e+003,-1.360821e+000
1.837877e+003,-2.394260e+000
1.838841e+003,-1.417163e+000
1.839806e+003,3.532105e-002
1.840770e+003,2.755585e-001
1.841734e+003,-4.105133e-001
1.842698e+003,-1.234314e+000
1.843663e+003,-2.314484e+000
1.844627e+003,-2.112976e+000
1.845591e+003,1.138828e+000
1.846555e+003,2.829327e+000
1.847520e+003,1.531500e+000
1.848484e+003,2.822967e-001
1.849448e+003,6.595551e-001
1.850412e+003,1.202408e+000
1.851376e+003,3.477264e-001
1.852341e+003,-1.127063e+000
1.853305e+003,-1.704474e+000
1.854269e+003,-1.321719e+000
1.855233e+003,-1.066299e+000
1.856198e+003,-1.415091e+000
1.857162e+003,-1.695850e+000
1.858126e+003,-1.195013e+000
1.859090e+003,-2.809784e-001
1.860055e+003,3.341461e-001
1.861019e+003,6.277130e-001
1.861983e+003,6.039612e-001
1.862947e+003,2.692719e-001
1.863911e+003,-1.366547e-001
1.864876e+003,-6.749054e-001
1.865840e+003,-5.802917e-001
1.866804e+003,8.458435e-001
1.867768e+003,2.594116e+000
1.868733e+003,3.582922e+000
1.869697e+003,3.947421e+000
1.870661e+003,4.098804e+000
1.871625e+003,4.040097e+000
1.872590e+003,3.994153e+000
1.873554e+003,4.165912e+000
1.874518e+003,4.026810e+000
1.875482e+003,2.934402e+000
1.876447e+003,2.105649e+000
1.877411e+003,2.732642e+000
1.878375e+003,3.667276e+000
1.879339e+003,3.292191e+000
1.880303e+003,2.158319e+000
1.881268e+003,1.922827e+000
1.882232e+003,2.725705e+000
1.883196e+003,3.148792e+000
1.884160e+003,2.465311e+000
1.885125e+003,1.593018e+000
1.886089e+003,1.545035e+000
1.887053e+003,2.047839e+000
1.888017e+003,2.324677e+000
1.888982e+003,2.376337e+000
1.889946e+003,3.254504e+000
1.890910e+003,5.301416e+000
1.891874e+003,6.437482e+000
1.892839e+003,5.984213e+000
1.893803e+003,5.170480e+000
1.894767e+003,4.027747e+000
1.895731e+003,3.426135e+000
1.896695e+003,4.791299e+000
1.897660e+003,6.871988e+000
1.898624e+003,7.579895e+000
1.899588e+003,6.943952e+000
1.900552e+003,5.933414e+000
1.901517e+003,4.478439e+000
1.902481e+003,3.498587e+000
1.903445e+003,3.261926e+000
1.904409e+003,3.787192e+000
1.905374e+003,5.965704e+000
1.906338e+003,8.239283e+000
1.907302e+003,8.517331e+000
1.908266e+003,7.419726e+000
1.909230e+003,6.467352e+000
1.910195e+003,5.984671e+000
1.911159e+003,5.585477e+000
1.912123e+003,5.119385e+000
1.913087e+003,4.838214e+000
1.914052e+003,4.970471e+000
1.915016e+003,5.334460e+000
1.915980e+003,5.653113e+000
1.916944e+003,5.894098e+000
1.917909e+003,5.340890e+000
1.918873e+003,3.679324e+000
1.919837e+003,3.348764e+000
1.920801e+003,5.218143e+000
1.921766e+003,6.675516e+000
1.922730e+003,6.899991e+000
1.923694e+003,6.298276e+000
1.924658e+003,4.389624e+000
1.925622e+003,2.412244e+000
1.926587e+003,1.921610e+000
1.927551e+003,2.646350e+000
1.928515e+003,3.688968e+000
1.929479e+003,5.032712e+000
1.930444e+003,5.725171e+000
1.931408e+003,4.855865e+000
1.932372e+003,4.217780e+000
1.933336e+003,4.950827e+000
1.934301e+003,5.926254e+000
1.935265e+003,6.224915e+000
1.936229e+003,6.187793e+000
1.937193e+003,6.426840e+000
1.938157e+003,6.790103e+000
1.939122e+003,6.512430e+000
1.940086e+003,5.609888e+000
1.941050e+003,5.251807e+000
1.942014e+003,6.111642e+000
1.942979e+003,7.322198e+000
1.943943e+003,7.874164e+000
1.944907e+003,7.927505e+000
1.945871e+003,7.892236e+000
1.946836e+003,7.785174e+000
1.947800e+003,7.322864e+000
1.948764e+003,6.373383e+000
1.949728e+003,5.915051e+000
1.950693e+003,6.223947e+000
1.951657e+003,6.718924e+000
1.952621e+003,7.319498e+000
1.953585e+003,7.742081e+000
1.954549e+003,7.793118e+000
1.955514e+003,7.386145e+000
1.956478e+003,5.801614e+000
1.957442e+003,3.223425e+000
1.958406e+003,2.822543e+000
1.959371e+003,5.728696e+000
1.960335e+003,7.775907e+000
1.961299e+003,7.830304e+000
1.962263e+003,7.791028e+000
1.963228e+003,8.545523e+000
1.964192e+003,9.138080e+000
1.965156e+003,8.589411e+000
1.966120e+003,7.689670e+000
1.967084e+003,7.636334e+000
1.968049e+003,8.156293e+000
1.969013e+003,8.009974e+000
1.969977e+003,7.047305e+000
1.970941e+003,6.663568e+000
1.971906e+003,7.726508e+000
1.972870e+003,8.917770e+000
1.973834e+003,8.875696e+000
1.974798e+003,8.064700e+000
1.975763e+003,6.861762e+000
1.976727e+003,5.599460e+000
1.977691e+003,5.555792e+000
1.978655e+003,6.600726e+000
1.979620e+003,7.336197e+000
1.980584e+003,7.467490e+000
1.981548e+003,7.553705e+000
1.982512e+003,7.874326e+000
1.983476e+003,7.902249e+000
1.984441e+003,6.988922e+000
1.985405e+003,5.893546e+000
1.986369e+003,6.598956e+000
1.987333e+003,9.066946e+000
1.988298e+003,9.779236e+000
1.989262e+003,7.736182e+000
1.990226e+003,6.660684e+000
1.991190e+003,6.863992e+000
1.992155e+003,7.758658e+000
1.993119e+003,1.061772e+001
1.994083e+003,1.241887e+001
1.995047e+003,1.029633e+001
1.996011e+003,7.405600e+000
1.996976e+003,7.468637e+000
1.997940e+003,9.241870e+000
1.998904e+003,9.288187e+000
1.999868e+003,7.384369e+000
2.000833e+003,6.442102e+000
2.001797e+003,7.516043e+000
2.002761e+003,8.705154e+000
2.003725e+003,9.214640e+000
2.004690e+003,9.670489e+000
2.005654e+003,1.064558e+001
2.006618e+003,1.160543e+001
2.007582e+003,1.218489e+001
2.008547e+003,1.223813e+001
2.009511e+003,1.112428e+001
2.010475e+003,9.382910e+000
2.011439e+003,8.925595e+000
2.012403e+003,1.022687e+001
2.013368e+003,1.151573e+001
2.014332e+003,1.154170e+001
2.015296e+003,1.087991e+001
2.016260e+003,9.817160e+000
2.017225e+003,8.961087e+000
2.018189e+003,1.025611e+001
2.019153e+003,1.297151e+001
2.020117e+003,1.414446e+001
2.021082e+003,1.363051e+001
2.022046e+003,1.291537e+001
2.023010e+003,1.239765e+001
2.023974e+003,1.102864e+001
2.024938e+003,8.084213e+000
2.025903e+003,5.694281e+000
2.026867e+003,6.230371e+000
2.027831e+003,8.374957e+000
2.028795e+003,8.987619e+000
2.029760e+003,8.180807e+000
2.030724e+003,8.284421e+000
2.031688e+003,9.815854e+000
2.032652e+003,1.003918e+001
2.033617e+003,7.983966e+000
2.034581e+003,6.703397e+000
2.035545e+003,7.290030e+000
2.036509e+003,8.346222e+000
2.037474e+003,9.423273e+000
2.038438e+003,1.019029e+001
2.039402e+003,1.036691e+001
2.040366e+003,1.001862e+001
2.041330e+003,9.096283e+000
2.042295e+003,7.656305e+000
2.043259e+003,6.601419e+000
2.044223e+003,5.729181e+000
2.045187e+003,6.003150e+000
2.046152e+003,9.132297e+000
2.047116e+003,1.129495e+001
2.048080e+003,1.007788e+001
2.049044e+003,8.426702e+000
2.050009e+003,8.573339e+000
2.050973e+003,9.439463e+000
2.051937e+003,9.609876e+000
2.052901e+003,9.262759e+000
2.053865e+003,9.168167e+000
2.054830e+003,9.428370e+000
2.055794e+003,9.722116e+000
2.056758e+003,9.975614e+000
2.057722e+003,9.673330e+000
2.058687e+003,7.792193e+000
2.059651e+003,5.990161e+000
2.060615e+003,6.041293e+000
2.061579e+003,6.971148e+000
2.062544e+003,7.768491e+000
2.063508e+003,8.331039e+000
2.064472e+003,8.596820e+000
2.065436e+003,8.560870e+000
2.066401e+003,8.171185e+000
2.067365e+003,7.489969e+000
2.068329e+003,6.863028e+000
2.069293e+003,6.529321e+000
2.070258e+003,6.680530e+000
2.071222e+003,7.706998e+000
2.072186e+003,9.002719e+000
2.073150e+003,8.983121e+000
2.074115e+003,8.058731e+000
2.075079e+003,8.101995e+000
2.076043e+003,9.010053e+000
2.077007e+003,9.763794e+000
2.077971e+003,1.021831e+001
2.078936e+003,1.028388e+001
2.079900e+003,9.912771e+000
2.080864e+003,8.853650e+000
2.081828e+003,6.794672e+000
2.082792e+003,5.247650e+000
2.083757e+003,6.476480e+000
2.084721e+003,9.569849e+000
2.085685e+003,1.144129e+001
2.086649e+003,1.210271e+001
2.087614e+003,1.147527e+001
2.088578e+003,9.091968e+000
2.089542e+003,7.740213e+000
2.090506e+003,7.842486e+000
2.091471e+003,8.555722e+000
2.092435e+003,1.018278e+001
2.093399e+003,1.103359e+001
2.094363e+003,9.480270e+000
2.095328e+003,7.337604e+000
2.096292e+003,6.935702e+000
2.097256e+003,7.819186e+000
2.098220e+003,8.575476e+000
2.099185e+003,9.255524e+000
2.100149e+003,9.767166e+000
2.101113e+003,1.013666e+001
2.102077e+003,1.020281e+001
2.103042e+003,9.535782e+000
2.104006e+003,9.174067e+000
2.104970e+003,9.733172e+000
2.105934e+003,1.022762e+001
2.106898e+003,9.915503e+000
2.107863e+003,9.427866e+000
2.108827e+003,9.721802e+000
2.109791e+003,1.028473e+001
2.110755e+003,9.510691e+000
2.111719e+003,7.457904e+000
2.112684e+003,6.990997e+000
2.113648e+003,9.314051e+000
2.114612e+003,1.098790e+001
2.115576e+003,1.077975e+001
2.116541e+003,1.047548e+001
2.117505e+003,1.069213e+001
2.118469e+003,1.106155e+001
2.119433e+003,1.166311e+001
2.120398e+003,1.203748e+001
2.121362e+003,1.131259e+001
2.122326e+003,1.015850e+001
2.123290e+003,1.004940e+001
2.124255e+003,1.091703e+001
2.125219e+003,1.136024e+001
2.126183e+003,1.094578e+001
2.127147e+003,1.042889e+001
2.128112e+003,9.931894e+000
2.129076e+003,9.843561e+000
2.130040e+003,1.082971e+001
2.131004e+003,1.175773e+001
2.131969e+003,1.152870e+001
2.132933e+003,1.087104e+001
2.133897e+003,1.076214e+001
2.134861e+003,1.095122e+001
2.135825e+003,1.064600e+001
2.136790e+003,9.912725e+000
2.137754e+003,9.492533e+000
2.138718e+003,9.625748e+000
2.139682e+003,9.982236e+000
2.140646e+003,1.045247e+001
2.141611e+003,1.083375e+001
2.142575e+003,1.068792e+001
2.143539e+003,1.059024e+001
2.144503e+003,1.157229e+001
2.145468e+003,1.270023e+001
2.146432e+003,1.241671e+001
2.147396e+003,1.133617e+001
2.148360e+003,1.069682e+001
2.149325e+003,1.070396e+001
2.150289e+003,1.144660e+001
2.151253e+003,1.265726e+001
2.152217e+003,1.284875e+001
2.153182e+003,1.116920e+001
2.154146e+003,9.609647e+000
2.155110e+003,1.025005e+001
2.156074e+003,1.167315e+001
2.157039e+003,1.214968e+001
2.158003e+003,1.204174e+001
2.158967e+003,1.184330e+001
2.159931e+003,1.168620e+001
2.160896e+003,1.178399e+001
2.161860e+003,1.206547e+001
2.162824e+003,1.225985e+001
2.163788e+003,1.229020e+001
2.164752e+003,1.223510e+001
2.165717e+003,1.212769e+001
2.166681e+003,1.177903e+001
2.167645e+003,1.087004e+001
2.168609e+003,1.032625e+001
2.169573e+003,1.224608e+001
2.170538e+003,1.492796e+001
2.171502e+003,1.470073e+001
2.172466e+003,1.265526e+001
2.173430e+003,1.129339e+001
2.174395e+003,1.079530e+001
2.175359e+003,1.091748e+001
2.176323e+003,1.144204e+001
2.177287e+003,1.177660e+001
2.178252e+003,1.171258e+001
2.179216e+003,1.174700e+001
2.180180e+003,1.225955e+001
2.181144e+003,1.282328e+001
2.182109e+003,1.291793e+001
2.183073e+003,1.260873e+001
2.184037e+003,1.184965e+001
2.185001e+003,1.091059e+001
2.185966e+003,1.046652e+001
2.186930e+003,1.052647e+001
2.187894e+003,1.105958e+001
2.188858e+003,1.190755e+001
2.189823e+003,1.240841e+001
2.190787e+003,1.242090e+001
2.191751e+003,1.281592e+001
2.192715e+003,1.403213e+001
2.193679e+003,1.449197e+001
2.194644e+003,1.243722e+001
2.195608e+003,1.003712e+001
2.196572e+003,1.164993e+001
2.197536e+003,1.512811e+001
2.198500e+003,1.468539e+001
2.199465e+003,1.182465e+001
2.200429e+003,1.091376e+001
2.201393e+003,1.190164e+001
2.202357e+003,1.339995e+001
2.203322e+003,1.481766e+001
2.204286e+003,1.485627e+001
2.205250e+003,1.326355e+001
2.206214e+003,1.210600e+001
2.207179e+003,1.279827e+001
2.208143e+003,1.419337e+001
2.209107e+003,1.507496e+001
2.210071e+003,1.546225e+001
2.211036e+003,1.502547e+001
2.212000e+003,1.430599e+001
2.212964e+003,1.504360e+001
2.213928e+003,1.652239e+001
2.214893e+003,1.611551e+001
2.215857e+003,1.429692e+001
2.216821e+003,1.419097e+001
2.217785e+003,1.617506e+001
2.218750e+003,1.758347e+001
2.219714e+003,1.720842e+001
2.220678e+003,1.626883e+001
2.221642e+003,1.566844e+001
2.222606e+003,1.590127e+001
2.223571e+003,1.802714e+001
2.224535e+003,2.095002e+001
2.225499e+003,2.298620e+001
2.226463e+003,2.420739e+001
2.227427e+003,2.428703e+001
2.228392e+003,2.383750e+001
2.229356e+003,2.460046e+001
2.230320e+003,2.640010e+001
2.231284e+003,2.742632e+001
2.232249e+003,2.738425e+001
2.233213e+003,2.809842e+001
2.234177e+003,3.045819e+001
2.235141e+003,3.260988e+001
2.236106e+003,3.267937e+001
2.237070e+003,3.262842e+001
2.238034e+003,3.524001e+001
2.238998e+003,3.874321e+001
2.239963e+003,4.055951e+001
2.240927e+003,4.162955e+001
2.241891e+003,4.380007e+001
2.242855e+003,4.663578e+001
2.243820e+003,4.836810e+001
2.244784e+003,4.938250e+001
2.245748e+003,5.230635e+001
2.246712e+003,5.740639e+001
2.247677e+003,6.113720e+001
2.248641e+003,6.162088e+001
2.249605e+003,6.174188e+001
2.250569e+003,6.377131e+001
2.251533e+003,6.628766e+001
2.252498e+003,6.853461e+001
2.253462e+003,7.001112e+001
2.254426e+003,7.018343e+001
2.255390e+003,6.930505e+001
2.256354e+003,6.692754e+001
2.257319e+003,6.417854e+001
2.258283e+003,6.376471e+001
2.259247e+003,6.484389e+001
2.260211e+003,6.341160e+001
2.261176e+003,5.860997e+001
2.262140e+003,5.349694e+001
2.263104e+003,4.917976e+001
2.264068e+003,4.552486e+001
2.265033e+003,4.277616e+001
2.265997e+003,4.024659e+001
2.266961e+003,3.735727e+001
2.267925e+003,3.469514e+001
2.268890e+003,3.268071e+001
2.269854e+003,3.117909e+001
2.270818e+003,3.057417e+001
2.271782e+003,3.006422e+001
2.272747e+003,2.811124e+001
2.273711e+003,2.504175e+001
2.274675e+003,2.261066e+001
2.275639e+003,2.115806e+001
2.276604e+003,1.987133e+001
2.277568e+003,1.841296e+001
2.278532e+003,1.739507e+001
2.279496e+003,1.783063e+001
2.280460e+003,1.738972e+001
2.281425e+003,1.393558e+001
2.282389e+003,1.095947e+001
2.283353e+003,1.086294e+001
2.284317e+003,1.191497e+001
2.285281e+003,1.306118e+001
2.286246e+003,1.382441e+001
2.287210e+003,1.300544e+001
2.288174e+003,1.103357e+001
2.289138e+003,1.082093e+001
2.290103e+003,1.306502e+001
2.291067e+003,1.377567e+001
2.292031e+003,1.229947e+001
2.292995e+003,1.053028e+001
2.293960e+003,7.753625e+000
2.294924e+003,6.157257e+000
2.295888e+003,7.137799e+000
2.296852e+003,7.690137e+000
2.297817e+003,5.778589e+000
2.298781e+003,3.967749e+000
2.299745e+003,4.911636e+000
2.300709e+003,6.897769e+000
2.301674e+003,6.941953e+000
2.302638e+003,5.384332e+000
2.303602e+003,3.946320e+000
2.304566e+003,2.556439e+000
2.305531e+003,2.113428e+000
2.306495e+003,2.758963e+000
2.307459e+003,3.677905e+000
2.308423e+003,4.847247e+000
2.309387e+003,5.517343e+000
2.310352e+003,5.451987e+000
2.311316e+003,5.382034e+000
2.312280e+003,5.691650e+000
2.313244e+003,6.016187e+000
2.314208e+003,6.014413e+000
2.315173e+003,5.915652e+000
2.316137e+003,6.223123e+000
2.317101e+003,6.376742e+000
2.318065e+003,4.137152e+000
2.319030e+003,5.748841e-001
2.319994e+003,4.387390e-001
2.320958e+003,2.868533e+000
2.321922e+003,4.263110e+000
2.322887e+003,4.436328e+000
2.323851e+003,4.533542e+000
2.324815e+003,4.765378e+000
2.325779e+003,4.625436e+000
2.326744e+003,4.000183e+000
2.327708e+003,3.607739e+000
2.328672e+003,3.911572e+000
2.329636e+003,3.833481e+000
2.330601e+003,1.966998e+000
2.331565e+003,-8.426514e-002
2.332529e+003,-5.452911e-001
2.333493e+003,-1.746765e-001
2.334458e+003,6.091126e-001
2.335422e+003,1.255371e+000
2.336386e+003,9.381806e-001
2.337350e+003,9.878235e-002
2.338314e+003,-4.612976e-001
2.339279e+003,-7.243561e-001
2.340243e+003,-1.140375e+000
2.341207e+003,-1.745258e+000
2.342171e+003,-1.887531e+000
2.343135e+003,-1.195621e+000
2.344100e+003,-8.447174e-001
2.345064e+003,-1.640451e+000
2.346028e+003,-2.300021e+000
2.346992e+003,-2.313315e+000
2.347957e+003,-2.140097e+000
2.348921e+003,-1.566974e+000
2.349885e+003,-1.384363e+000
2.350849e+003,-2.802118e+000
2.351814e+003,-4.463010e+000
2.352778e+003,-4.735095e+000
2.353742e+003,-3.914090e+000
2.354706e+003,-2.489569e+000
2.355671e+003,-5.625458e-001
2.356635e+003,4.005737e-002
2.357599e+003,-9.980561e-001
2.358563e+003,-2.141403e+000
2.359528e+003,-3.636395e+000
2.360492e+003,-4.392804e+000
2.361456e+003,-4.047894e+000
2.362420e+003,-3.855521e+000
2.363385e+003,-4.203265e+000
2.364349e+003,-4.772385e+000
2.365313e+003,-5.487921e+000
2.366277e+003,-5.619153e+000
2.367241e+003,-4.406775e+000
2.368206e+003,-2.824750e+000
2.369170e+003,-2.438544e+000
2.370134e+003,-2.955948e+000
2.371098e+003,-3.822470e+000
2.372063e+003,-4.793628e+000
2.373027e+003,-4.712985e+000
2.373991e+003,-3.778207e+000
2.374955e+003,-2.583743e+000
2.375919e+003,-1.467349e+000
2.376884e+003,-1.327860e+000
2.377848e+003,-2.148236e+000
2.378812e+003,-3.132764e+000
2.379776e+003,-3.896042e+000
2.380741e+003,-4.115759e+000
2.381705e+003,-3.583551e+000
2.382669e+003,-3.227222e+000
2.383633e+003,-4.183047e+000
2.384598e+003,-4.799820e+000
2.385562e+003,-2.960718e+000
2.386526e+003,-1.276227e+000
2.387490e+003,-2.333642e+000
2.388455e+003,-4.054901e+000
2.389419e+003,-4.610278e+000
2.390383e+003,-4.347735e+000
2.391347e+003,-3.666348e+000
2.392312e+003,-2.879489e+000
2.393276e+003,-2.461557e+000
2.394240e+003,-2.428214e+000
2.395204e+003,-2.474548e+000
2.396168e+003,-2.593014e+000
2.397133e+003,-2.572885e+000
2.398097e+003,-2.164142e+000
2.399061e+003,-2.125745e+000
2.400025e+003,-2.750119e+000
2.400990e+003,-3.206802e+000
2.401954e+003,-3.287131e+000
2.402918e+003,-3.242020e+000
2.403882e+003,-3.248987e+000
2.404846e+003,-2.879608e+000
2.405811e+003,-1.614685e+000
2.406775e+003,-4.883301e-001
2.407739e+003,-1.140237e+000
2.408703e+003,-2.617358e+000
2.409668e+003,-1.947433e+000
2.410632e+003,1.873474e-001
2.411596e+003,-3.527588e-001
2.412560e+003,-2.719428e+000
2.413525e+003,-2.829504e+000
2.414489e+003,-1.065082e+000
2.415453e+003,-1.541809e-001
2.416417e+003,-3.028259e-001
2.417382e+003,-2.413330e-001
2.418346e+003,2.610687e-001
2.419310e+003,2.250183e-001
2.420274e+003,-7.220520e-001
2.421239e+003,-1.294019e+000
2.422203e+003,-5.084229e-001
2.423167e+003,3.025909e-001
2.424131e+003,-1.389954e-001
2.425095e+003,-4.266174e-001
2.426060e+003,1.269556e+000
2.427024e+003,2.408609e+000
2.427988e+003,-5.716247e-002
2.428952e+003,-2.950104e+000
2.429917e+003,-2.782346e+000
2.430881e+003,-1.091147e+000
2.431845e+003,-4.444336e-001
2.432809e+003,-6.413757e-001
2.433773e+003,-4.157745e-001
2.434738e+003,2.558563e-001
2.435702e+003,9.818176e-001
2.436666e+003,1.783005e+000
2.437630e+003,2.701730e+000
2.438595e+003,3.960245e+000
2.439559e+003,4.063416e+000
2.440523e+003,2.583197e+000
2.441487e+003,2.041449e+000
2.442452e+003,3.197006e+000
2.443416e+003,4.739160e+000
2.444380e+003,6.008102e+000
2.445344e+003,6.364865e+000
2.446309e+003,5.238946e+000
2.447273e+003,3.794153e+000
2.448237e+003,3.415216e+000
2.449201e+003,3.903805e+000
2.450166e+003,5.704749e+000
2.451130e+003,7.573984e+000
2.452094e+003,6.882196e+000
2.453058e+003,5.269083e+000
2.454022e+003,5.930072e+000
2.454987e+003,7.351959e+000
2.455951e+003,5.838473e+000
2.456915e+003,2.519894e+000
2.457879e+003,1.311176e+000
2.458844e+003,2.554099e+000
2.459808e+003,3.631085e+000
2.460772e+003,3.855133e+000
2.461736e+003,4.645740e+000
2.462700e+003,7.189511e+000
2.463665e+003,8.684323e+000
2.464629e+003,8.546698e+000
2.465593e+003,7.944303e+000
2.466557e+003,6.572873e+000
2.467522e+003,5.710824e+000
2.468486e+003,5.928870e+000
2.469450e+003,6.736960e+000
2.470414e+003,7.907962e+000
2.471379e+003,9.102216e+000
2.472343e+003,9.896036e+000
2.473307e+003,1.037077e+001
2.474271e+003,1.070942e+001
2.475236e+003,1.091007e+001
2.476200e+003,1.110061e+001
2.477164e+003,1.109795e+001
2.478128e+003,9.743017e+000
2.479093e+003,7.983923e+000
2.480057e+003,8.817633e+000
2.481021e+003,1.135173e+001
2.481985e+003,1.265629e+001
2.482949e+003,1.235576e+001
2.483914e+003,1.118307e+001
2.484878e+003,9.599512e+000
2.485842e+003,9.176107e+000
2.486806e+003,1.073959e+001
2.487771e+003,1.205435e+001
2.488735e+003,1.194504e+001
2.489699e+003,1.207676e+001
2.490663e+003,1.339421e+001
2.491627e+003,1.417827e+001
2.492592e+003,1.344742e+001
2.493556e+003,1.276653e+001
2.494520e+003,1.307570e+001
2.495484e+003,1.325789e+001
2.496449e+003,1.210760e+001
2.497413e+003,1.097556e+001
2.498377e+003,1.199565e+001
2.499341e+003,1.410430e+001
2.500306e+003,1.434725e+001
2.501270e+003,1.328422e+001
2.502234e+003,1.359436e+001
2.503198e+003,1.477304e+001
2.504163e+003,1.474596e+001
2.505127e+003,1.400219e+001
2.506091e+003,1.445089e+001
2.507055e+003,1.594643e+001
2.508020e+003,1.749366e+001
2.508984e+003,1.871557e+001
2.509948e+003,1.932172e+001
2.510912e+003,1.919974e+001
2.511876e+003,1.817247e+001
2.512841e+003,1.544752e+001
2.513805e+003,1.479945e+001
2.514769e+003,1.973722e+001
2.515733e+003,2.327834e+001
2.516698e+003,2.263507e+001
2.517662e+003,2.173672e+001
2.518626e+003,2.141630e+001
2.519590e+003,2.205642e+001
2.520554e+003,2.416208e+001
2.521519e+003,2.642699e+001
2.522483e+003,2.773723e+001
2.523447e+003,2.853776e+001
2.524411e+003,2.953023e+001
2.525376e+003,3.052935e+001
2.526340e+003,3.089019e+001
2.527304e+003,3.080868e+001
2.528268e+003,3.096856e+001
2.529233e+003,3.135137e+001
2.530197e+003,3.145013e+001
2.531161e+003,3.193274e+001
2.532125e+003,3.496776e+001
2.533090e+003,3.931181e+001
2.534054e+003,4.136735e+001
2.535018e+003,4.132730e+001
2.535982e+003,4.237565e+001
2.536947e+003,4.517629e+001
2.537911e+003,4.773244e+001
2.538875e+003,4.970201e+001
2.539839e+003,5.094151e+001
2.540803e+003,5.073588e+001
2.541768e+003,5.098693e+001
2.542732e+003,5.189582e+001
2.543696e+003,5.312305e+001
2.544660e+003,5.480769e+001
2.545625e+003,5.614628e+001
2.546589e+003,5.666605e+001
2.547553e+003,5.784058e+001
2.548517e+003,6.084027e+001
2.549482e+003,6.305386e+001
2.550446e+003,6.120870e+001
2.551410e+003,5.800942e+001
2.552374e+003,5.772954e+001
2.553339e+003,5.864656e+001
2.554303e+003,5.871635e+001
2.555267e+003,5.805549e+001
2.556231e+003,5.606487e+001
2.557196e+003,5.406953e+001
2.558160e+003,5.450579e+001
2.559124e+003,5.571781e+001
2.560088e+003,5.465080e+001
2.561052e+003,5.170023e+001
2.562017e+003,4.871271e+001
2.562981e+003,4.582286e+001
2.563945e+003,4.409629e+001
2.564909e+003,4.381861e+001
2.565874e+003,4.308780e+001
2.566838e+003,4.191225e+001
2.567802e+003,4.032494e+001
2.568766e+003,3.834650e+001
2.569730e+003,3.747618e+001
2.570695e+003,3.780837e+001
2.571659e+003,3.705497e+001
2.572623e+003,3.456145e+001
2.573587e+003,3.197076e+001
2.574552e+003,3.019214e+001
2.575516e+003,2.845203e+001
2.576480e+003,2.594592e+001
2.577444e+003,2.433676e+001
2.578409e+003,2.552081e+001
2.579373e+003,2.659899e+001
2.580337e+003,2.641930e+001
2.581301e+003,2.528410e+001
2.582266e+003,2.268213e+001
2.583230e+003,2.004070e+001
2.584194e+003,1.785416e+001
2.585158e+003,1.670653e+001
2.586123e+003,1.767270e+001
2.587087e+003,1.903652e+001
2.588051e+003,1.772943e+001
2.589015e+003,1.483414e+001
2.589979e+003,1.368517e+001
2.590944e+003,1.384680e+001
2.591908e+003,1.388684e+001
2.592872e+003,1.367100e+001
2.593836e+003,1.250949e+001
2.594801e+003,1.104025e+001
2.595765e+003,1.082917e+001
2.596729e+003,1.142890e+001
2.597693e+003,1.160807e+001
2.598657e+003,1.107074e+001
2.599622e+003,9.397146e+000
2.600586e+003,6.602853e+000
2.601550e+003,5.504706e+000
2.602514e+003,7.406052e+000
2.603479e+003,8.406836e+000
2.604443e+003,8.258756e+000
2.605407e+003,7.758063e+000
2.606371e+003,6.866251e+000
2.607336e+003,6.700055e+000
2.608300e+003,7.523614e+000
2.609264e+003,7.493335e+000
2.610228e+003,5.970395e+000
2.611193e+003,4.313245e+000
2.612157e+003,3.354715e+000
2.613121e+003,3.248294e+000
2.614085e+003,4.338876e+000
2.615050e+003,5.288531e+000
2.616014e+003,4.389481e+000
2.616978e+003,3.746789e+000
2.617942e+003,5.574158e+000
2.618906e+003,7.048352e+000
2.619871e+003,6.255170e+000
2.620835e+003,4.602176e+000
2.621799e+003,2.498199e+000
2.622763e+003,9.568573e-001
2.623728e+003,1.131375e+000
2.624692e+003,2.006400e+000
2.625656e+003,1.953818e+000
2.626620e+003,1.391156e+000
2.627584e+003,1.563534e+000
2.628549e+003,2.106021e+000
2.629513e+003,1.617963e+000
2.630477e+003,6.665131e-001
2.631441e+003,3.590759e-001
2.632406e+003,6.398865e-001
2.633370e+003,1.665671e+000
2.634334e+003,2.869647e+000
2.635298e+003,3.067749e+000
2.636263e+003,2.462683e+000
2.637227e+003,2.221570e+000
2.638191e+003,2.473969e+000
2.639155e+003,2.460767e+000
2.640120e+003,2.166009e+000
2.641084e+003,1.468893e+000
2.642048e+003,8.384705e-002
2.643012e+003,-1.876221e-002
2.643977e+003,1.310187e+000
2.644941e+003,2.781619e+000
2.645905e+003,4.015286e+000
2.646869e+003,3.777881e+000
2.647833e+003,2.076251e+000
2.648798e+003,9.806763e-001
2.649762e+003,1.329974e+000
2.650726e+003,2.415268e+000
2.651690e+003,4.151950e+000
2.652655e+003,4.984857e+000
2.653619e+003,3.414468e+000
2.654583e+003,2.155097e+000
2.655547e+003,2.010581e+000
2.656511e+003,2.323648e+000
2.657476e+003,3.487201e+000
2.658440e+003,3.449292e+000
2.659404e+003,1.085187e+000
2.660368e+003,-1.259088e+000
2.661333e+003,-2.045834e+000
2.662297e+003,-1.772827e+000
2.663261e+003,-8.503388e-001
2.664225e+003,4.264526e-002
2.665190e+003,-1.137939e-001
2.666154e+003,-5.250580e-001
2.667118e+003,-3.250397e-001
2.668082e+003,1.638611e-001
2.669047e+003,1.034048e+000
2.670011e+003,1.570850e+000
2.670975e+003,8.334534e-001
2.671939e+003,-3.003357e-001
2.672904e+003,-1.164352e+000
2.673868e+003,-1.309332e+000
2.674832e+003,1.489899e-001
2.675796e+003,2.276059e+000
2.676760e+003,2.623169e+000
2.677725e+003,1.603183e+000
2.678689e+003,8.183746e-001
2.679653e+003,1.750915e-001
2.680617e+003,-8.775696e-001
2.681582e+003,-1.900143e+000
2.682546e+003,-1.828787e+000
2.683510e+003,-1.040094e+000
2.684474e+003,-2.642639e-001
2.685438e+003,2.998749e-001
2.686403e+003,6.534942e-001
2.687367e+003,7.356933e-001
2.688331e+003,-1.350098e-002
2.689295e+003,-1.608896e+000
2.690260e+003,-1.392932e+000
2.691224e+003,9.987366e-001
2.692188e+003,1.650440e+000
2.693152e+003,5.656341e-001
2.694117e+003,-3.237305e-001
2.695081e+003,-7.199494e-001
2.696045e+003,-4.673401e-001
2.697009e+003,3.290588e-001
2.697974e+003,1.461218e+000
2.698938e+003,2.628543e+000
2.699902e+003,2.610315e+000
2.700866e+003,9.080963e-001
2.701831e+003,-2.542114e-002
2.702795e+003,1.341412e+000
2.703759e+003,1.546634e+000
2.704723e+003,-4.221985e-001
2.705688e+003,-9.601898e-001
2.706652e+003,5.944336e-001
2.707616e+003,1.959711e+000
2.708580e+003,2.545963e+000
2.709544e+003,1.937491e+000
2.710509e+003,1.527863e-001
2.711473e+003,-1.026990e+000
2.712437e+003,-6.270416e-001
2.713401e+003,4.239807e-001
2.714365e+003,2.017963e+000
2.715330e+003,2.780865e+000
2.716294e+003,1.495459e+000
2.717258e+003,2.694702e-002
2.718222e+003,-1.255325e+000
2.719187e+003,-2.151059e+000
2.720151e+003,-2.634122e+000
2.721115e+003,-2.550256e+000
2.722079e+003,-1.737103e+000
2.723044e+003,-1.252371e+000
2.724008e+003,-1.913007e+000
2.724972e+003,-2.250632e+000
2.725936e+003,-5.550079e-001
2.726901e+003,1.309140e+000
2.727865e+003,1.221256e+000
2.728829e+003,4.671570e-001
2.729793e+003,-5.184601e-001
2.730758e+003,-1.016275e+000
2.731722e+003,1.347748e-001
2.732686e+003,1.082965e+000
2.733650e+003,2.270264e-001
2.734615e+003,-6.677094e-001
2.735579e+003,8.158875e-002
2.736543e+003,7.281647e-001
2.737507e+003,-1.257413e+000
2.738471e+003,-3.985376e+000
2.739436e+003,-3.762860e+000
2.740400e+003,-2.057404e+000
2.741364e+003,-8.463532e-001
2.742328e+003,-1.115997e-001
2.743292e+003,-6.994934e-002
2.744257e+003,-2.447083e-001
2.745221e+003,4.589844e-003
2.746185e+003,2.119446e-001
2.747149e+003,-4.928284e-001
2.748114e+003,-1.406039e+000
2.749078e+003,-1.500305e+000
2.750042e+003,-9.397156e-001
2.751006e+003,-4.993591e-002
2.751971e+003,9.387817e-001
2.752935e+003,1.354382e+000
2.753899e+003,1.181155e+000
2.754863e+003,-3.104675e-001
2.755828e+003,-1.824832e+000
2.756792e+003,-8.855163e-001
2.757756e+003,1.114362e+000
2.758720e+003,2.009534e+000
2.759685e+003,1.895273e+000
2.760649e+003,1.499579e+000
2.761613e+003,8.111725e-001
2.762577e+003,-6.054352e-001
2.763542e+003,-2.461615e+000
2.764506e+003,-2.039612e+000
2.765470e+003,1.002411e-001
2.766434e+003,1.201147e+000
2.767398e+003,1.319611e+000
2.768363e+003,3.240051e-001
2.769327e+003,-1.122055e+000
2.770291e+003,-2.015570e+000
2.771255e+003,-2.094879e+000
2.772219e+003,-6.248962e-001
2.773184e+003,1.735599e+000
2.774148e+003,1.681366e+000
2.775112e+003,-5.978241e-001
2.776076e+003,-1.456616e+000
2.777041e+003,-8.589355e-001
2.778005e+003,-2.639374e-001
2.778969e+003,1.848419e-001
2.779933e+003,-5.039245e-001
2.780898e+003,-1.866843e+000
2.781862e+003,-2.379401e+000
2.782826e+003,-2.187427e+000
2.783790e+003,-2.510025e+000
2.784755e+003,-3.178378e+000
2.785719e+003,-2.394412e+000
2.786683e+003,3.712463e-002
2.787647e+003,6.203400e-001
2.788612e+003,-9.505493e-001
2.789576e+003,-2.158179e+000
2.790540e+003,-2.947571e+000
2.791504e+003,-1.461194e+000
2.792469e+003,1.565201e+000
2.793433e+003,2.128198e+000
2.794397e+003,5.112976e-001
2.795361e+003,-7.103577e-001
2.796325e+003,-9.813202e-001
2.797290e+003,-4.240265e-001
2.798254e+003,8.174408e-001
2.799218e+003,9.000336e-001
2.800182e+003,-6.550964e-001
2.801146e+003,-9.987305e-001
2.802111e+003,4.971313e-003
2.803075e+003,1.325812e+000
2.804039e+003,2.766928e+000
2.805003e+003,3.379025e+000
2.805968e+003,3.157602e+000
2.806932e+003,2.877167e+000
2.807896e+003,2.590405e+000
2.808860e+003,1.318246e+000
2.809825e+003,-8.805572e-001
2.810789e+003,-1.845874e+000
2.811753e+003,-1.003232e+000
2.812717e+003,2.356415e-001
2.813682e+003,2.091644e+000
2.814646e+003,3.111887e+000
2.815610e+003,3.279544e+000
2.816574e+003,2.224475e+000
2.817539e+003,2.872955e-001
2.818503e+003,-7.556702e-001
2.819467e+003,-9.441651e-001
2.820431e+003,-2.046378e+000
2.821396e+003,-4.007739e+000
2.822360e+003,-4.249301e+000
2.823324e+003,-2.059125e+000
2.824288e+003,1.635590e-001
2.825252e+003,2.838089e+000
2.826217e+003,2.679468e+000
2.827181e+003,-4.206757e-001
2.828145e+003,-7.002380e-001
2.829109e+003,1.639658e+000
2.830073e+003,2.144894e+000
2.831038e+003,7.370239e-001
2.832002e+003,3.325836e-001
2.832966e+003,1.258972e+000
2.833930e+003,1.557315e+000
2.834895e+003,7.691528e-001
2.835859e+003,4.150268e-001
2.836823e+003,7.536163e-001
2.837787e+003,7.908600e-001
2.838752e+003,5.015625e-001
2.839716e+003,6.324036e-001
2.840680e+003,1.097784e+000
2.841644e+003,8.929321e-001
2.842609e+003,1.460541e-001
2.843573e+003,-2.372742e-002
2.844537e+003,3.606934e-001
2.845501e+003,1.721039e-001
2.846466e+003,-7.587097e-001
2.847430e+003,-1.136407e+000
2.848394e+003,-7.535736e-001
2.849358e+003,-6.792084e-001
2.850323e+003,-9.180481e-001
2.851287e+003,-1.082275e+000
2.852251e+003,-1.180530e+000
2.853215e+003,-1.628836e+000
2.854179e+003,-2.032385e+000
2.855144e+003,-4.971710e-001
2.856108e+003,2.138113e+000
2.857072e+003,2.192355e+000
2.858036e+003,-3.662262e-001
2.859000e+003,-1.014352e+000
2.859965e+003,5.462799e-001
2.860929e+003,1.309964e+000
2.861893e+003,1.225641e+000
2.862857e+003,1.711902e+000
2.863822e+003,2.395322e+000
2.864786e+003,-6.267700e-002
2.865750e+003,-3.692117e+000
2.866714e+003,-1.536212e+000
2.867679e+003,4.146106e+000
2.868643e+003,5.435525e+000
2.869607e+003,2.521423e+000
2.870571e+003,1.545404e+000
2.871536e+003,2.483258e+000
2.872500e+003,2.982452e+000
2.873464e+003,3.017478e+000
2.874428e+003,2.836652e+000
2.875393e+003,2.381299e+000
2.876357e+003,9.602356e-001
2.877321e+003,-6.539154e-001
2.878285e+003,-7.183990e-001
2.879250e+003,2.349091e-001
2.880214e+003,1.059235e+000
2.881178e+003,1.563013e+000
2.882142e+003,1.932684e+000
2.883106e+003,1.874188e+000
2.884071e+003,-3.718964e-001
2.885035e+003,-3.850659e+000
2.885999e+003,-2.544547e+000
2.886963e+003,1.191296e+000
2.887927e+003,1.581006e+000
2.888892e+003,3.281891e-001
2.889856e+003,2.376160e-001
2.890820e+003,9.445068e-001
2.891784e+003,1.756668e+000
2.892749e+003,2.343555e+000
2.893713e+003,2.352023e+000
2.894677e+003,1.875711e+000
2.895641e+003,9.110931e-001
2.896606e+003,-5.334778e-002
2.897570e+003,9.000336e-001
2.898534e+003,2.285544e+000
2.899498e+003,1.186237e+000
2.900463e+003,-4.407135e-001
2.901427e+003,-2.507080e-001
2.902391e+003,7.180725e-001
2.903355e+003,1.690143e+000
2.904320e+003,1.910934e+000
2.905284e+003,3.578644e-001
2.906248e+003,-1.403616e+000
2.907212e+003,-9.536651e-001
2.908177e+003,5.936401e-001
2.909141e+003,2.034415e+000
2.910105e+003,2.734476e+000
2.911069e+003,1.292767e+000
2.912033e+003,-2.557770e-001
2.912998e+003,-4.286835e-001
2.913962e+003,9.297180e-002
2.914926e+003,1.120187e+000
2.915890e+003,1.754813e+000
2.916854e+003,1.316577e+000
2.917819e+003,5.302032e-001
2.918783e+003,2.987671e-002
2.919747e+003,5.473328e-002
2.920711e+003,1.517889e+000
2.921676e+003,2.627011e+000
2.922640e+003,1.634460e+000
2.923604e+003,9.853119e-001
2.924568e+003,2.030301e+000
2.925533e+003,2.593915e+000
2.926497e+003,1.831436e+000
2.927461e+003,9.856323e-001
2.928425e+003,8.495728e-001
2.929390e+003,-7.232269e-001
2.930354e+003,-5.965261e+000
2.931318e+003,-8.528456e+000
2.932282e+003,-1.487131e+000
2.933247e+003,3.532175e+000
2.934211e+003,3.546546e+000
2.935175e+003,2.058109e+000
2.936139e+003,-1.473230e+000
2.937104e+003,-3.380031e+000
2.938068e+003,-2.838083e+000
2.939032e+003,-1.386676e+000
2.939996e+003,2.855164e-001
2.940960e+003,2.002548e+000
2.941925e+003,3.642163e+000
2.942889e+003,3.828851e+000
2.943853e+003,1.282489e+000
2.944817e+003,1.709168e-001
2.945781e+003,9.510803e-001
2.946746e+003,1.133093e+000
2.947710e+003,6.028808e-001
2.948674e+003,1.916534e-001
2.949638e+003,1.517944e-002
2.950603e+003,-1.365814e-001
2.951567e+003,-2.369659e-001
2.952531e+003,-1.104584e-001
2.953495e+003,3.172363e-001
2.954460e+003,1.663550e+000
2.955424e+003,3.934753e+000
2.956388e+003,2.337805e+000
2.957352e+003,-2.411499e+000
2.958317e+003,-2.759251e+000
2.959281e+003,-2.414337e-001
2.960245e+003,7.433258e-001
2.961209e+003,3.749207e-001
2.962174e+003,-6.190888e-001
2.963138e+003,-1.500644e+000
2.964102e+003,-7.595886e-001
2.965066e+003,7.642975e-001
2.966031e+003,1.157400e+000
2.966995e+003,8.077850e-001
2.967959e+003,9.058380e-001
2.968923e+003,1.235080e+000
2.969887e+003,1.519675e+000
2.970852e+003,1.588077e+000
2.971816e+003,1.074161e+000
2.972780e+003,4.326996e-001
2.973744e+003,-1.614838e-001
2.974708e+003,-1.300385e-001
2.975673e+003,1.211615e+000
2.976637e+003,2.541940e+000
2.977601e+003,2.258811e+000
2.978565e+003,1.228970e+000
2.979530e+003,5.960388e-002
2.980494e+003,-4.849945e-001
2.981458e+003,9.262848e-001
2.982422e+003,2.117172e+000
2.983387e+003,1.848202e+000
2.984351e+003,1.255850e+000
2.985315e+003,6.930023e-001
2.986279e+003,3.398315e-001
2.987244e+003,2.700195e-001
2.988208e+003,1.366791e-001
2.989172e+003,-2.956604e-001
2.990136e+003,-7.260650e-001
2.991101e+003,-1.129666e+000
2.992065e+003,-1.081650e+000
2.993029e+003,-3.937225e-001
2.993993e+003,5.189056e-001
2.994958e+003,1.640805e+000
2.995922e+003,1.718323e+000
2.996886e+003,7.910858e-001
2.997850e+003,8.167755e-001
2.998814e+003,1.943152e+000
2.999779e+003,1.861777e+000
3.000743e+003,-3.389893e-002
3.001707e+003,-6.425689e-001
3.002671e+003,4.889709e-001
3.003635e+003,1.185901e+000
3.004600e+003,1.445694e+000
3.005564e+003,1.278473e+000
3.006528e+003,8.361969e-001
3.007492e+003,2.398254e-001
3.008457e+003,-6.117249e-002
3.009421e+003,1.288846e+000
3.010385e+003,3.340994e+000
3.011349e+003,3.549725e+000
3.012314e+003,2.358871e+000
3.013278e+003,8.364044e-001
3.014242e+003,-7.093719e-001
3.015206e+003,-1.343846e+000
3.016171e+003,-1.172903e+000
3.017135e+003,4.233917e-001
3.018099e+003,1.868097e+000
3.019063e+003,9.889679e-001
3.020028e+003,-2.199738e-001
3.020992e+003,5.187683e-002
3.021956e+003,3.979828e-001
3.022920e+003,-4.695892e-001
3.023885e+003,-1.238643e+000
3.024849e+003,-2.921570e-001
3.025813e+003,8.174561e-001
3.026777e+003,6.542908e-001
3.027741e+003,9.088135e-002
3.028706e+003,-8.306152e-001
3.029670e+003,-1.330338e+000
3.030634e+003,-1.126444e+000
3.031598e+003,-1.143048e+000
3.032563e+003,-1.637178e+000
3.033527e+003,-1.220222e+000
3.034491e+003,5.656250e-001
3.035455e+003,1.774765e+000
3.036420e+003,1.477197e+000
3.037384e+003,1.092346e+000
3.038348e+003,9.419769e-001
3.039312e+003,3.259308e-001
3.040277e+003,-7.473267e-001
3.041241e+003,-8.751877e-001
3.042205e+003,-1.398041e-001
3.043169e+003,7.817383e-001
3.044134e+003,1.573889e+000
3.045098e+003,1.839767e+000
3.046062e+003,1.544653e+000
3.047026e+003,8.486389e-001
3.047990e+003,-4.672546e-002
3.048955e+003,-1.163300e-001
3.049919e+003,2.553619e-001
3.050883e+003,-1.038693e+000
3.051847e+003,-2.707225e+000
3.052812e+003,-2.429158e+000
3.053776e+003,-1.315503e+000
3.054740e+003,-7.082489e-001
3.055704e+003,-2.161255e-001
3.056668e+003,7.624176e-001
3.057633e+003,1.423352e+000
3.058597e+003,8.084809e-001
3.059561e+003,-1.772064e-001
3.060525e+003,-4.794876e-001
3.061490e+003,-5.029770e-001
3.062454e+003,-2.476532e-001
3.063418e+003,-3.451324e-001
3.064382e+003,-1.629318e+000
3.065347e+003,-1.355637e+000
3.066311e+003,1.300726e+000
3.067275e+003,2.363757e+000
3.068239e+003,5.805847e-001
3.069204e+003,-6.150910e-001
3.070168e+003,2.809448e-001
3.071132e+003,9.954712e-001
3.072096e+003,7.483581e-001
3.073061e+003,3.406586e-001
3.074025e+003,-2.474503e-001
3.074989e+003,-1.416672e-001
3.075953e+003,4.340973e-001
3.076917e+003,4.285034e-001
3.077882e+003,-3.054855e-001
3.078846e+003,-2.442406e+000
3.079810e+003,-4.866046e+000
3.080774e+003,-3.977026e+000
3.081739e+003,-9.758133e-001
3.082703e+003,5.760986e-001
3.083667e+003,9.043091e-001
3.084631e+003,3.648712e-001
3.085595e+003,-3.951859e-001
3.086560e+003,-3.916107e-001
3.087524e+003,4.342804e-002
3.088488e+003,1.033966e+000
3.089452e+003,1.523834e+000
3.090417e+003,7.611176e-001
3.091381e+003,-2.733841e-001
3.092345e+003,-8.275192e-001
3.093309e+003,-1.170081e+000
3.094274e+003,-1.562259e+000
3.095238e+003,-1.783156e+000
3.096202e+003,-1.920091e+000
3.097166e+003,-1.268028e+000
3.098131e+003,5.511017e-001
3.099095e+003,1.861365e+000
3.100059e+003,2.355057e+000
3.101023e+003,1.910788e+000
3.101988e+003,8.644379e-001
3.102952e+003,9.082062e-001
3.103916e+003,2.267960e+000
3.104880e+003,2.510944e+000
3.105844e+003,1.344974e+000
3.106809e+003,5.336441e-001
3.107773e+003,1.789398e-002
3.108737e+003,-1.299060e+000
3.109701e+003,-2.675989e+000
3.110666e+003,-1.743504e+000
3.111630e+003,6.219788e-002
3.112594e+003,3.918472e-001
3.113558e+003,-3.005051e-001
3.114522e+003,-1.315953e+000
3.115487e+003,-2.022951e+000
3.116451e+003,-1.338660e+000
3.117415e+003,-4.757935e-001
3.118379e+003,-1.893858e+000
3.119344e+003,-2.909232e+000
3.120308e+003,-9.252777e-002
3.121272e+003,1.276852e+000
3.122236e+003,-1.279932e+000
3.123201e+003,-2.597739e+000
3.124165e+003,-1.080760e+000
3.125129e+003,1.703400e-001
3.126093e+003,-1.216614e-001
3.127058e+003,-6.535187e-001
3.128022e+003,-9.054260e-001
3.128986e+003,-1.002296e+000
3.129950e+003,-9.405777e-001
3.130915e+003,-7.242920e-001
3.131879e+003,-4.264725e-001
3.132843e+003,-1.281049e+000
3.133807e+003,-2.620459e+000
3.134771e+003,-2.222852e+000
3.135736e+003,-7.537659e-001
3.136700e+003,4.927368e-002
3.137664e+003,8.175354e-002
3.138628e+003,-6.451950e-001
3.139593e+003,-1.795044e+000
3.140557e+003,-2.938791e+000
3.141521e+003,-3.554457e+000
3.142485e+003,-2.517215e+000
3.143449e+003,-1.013121e+000
3.144414e+003,8.503357e-001
3.145378e+003,1.350182e+000
3.146342e+003,-4.678055e-001
3.147306e+003,-1.729848e+000
3.148271e+003,-1.126628e+000
3.149235e+003,-7.587143e-001
3.150199e+003,-1.840581e+000
3.151163e+003,-2.417082e+000
3.152128e+003,-8.491699e-001
3.153092e+003,-1.022353e+000
3.154056e+003,-3.373361e+000
3.155020e+003,-3.235188e+000
3.155985e+003,-1.068802e+000
3.156949e+003,-3.928009e-001
3.157913e+003,-1.161282e+000
3.158877e+003,-2.208481e+000
3.159842e+003,-3.121049e+000
3.160806e+003,-3.527266e+000
3.161770e+003,-3.353696e+000
3.162734e+003,-2.090382e+000
3.163698e+003,-5.827179e-001
3.164663e+003,-1.033775e+000
3.165627e+003,-1.841370e+000
3.166591e+003,-9.922592e-001
3.167555e+003,-4.114136e-001
3.168520e+003,-1.453198e+000
3.169484e+003,-2.048177e+000
3.170448e+003,-1.218999e+000
3.171412e+003,-6.871155e-001
3.172376e+003,-1.466213e+000
3.173341e+003,-1.704950e+000
3.174305e+003,1.797470e-001
3.175269e+003,5.318207e-001
3.176233e+003,-1.342867e+000
3.177198e+003,-2.108070e+000
3.178162e+003,-1.773978e+000
3.179126e+003,-1.609645e+000
3.180090e+003,-1.730704e+000
3.181055e+003,-2.290140e+000
3.182019e+003,-2.706271e+000
3.182983e+003,-1.179797e+000
3.183947e+003,1.049576e+000
3.184912e+003,9.520630e-001
3.185876e+003,-4.580887e-001
3.186840e+003,-1.260646e+000
3.187804e+003,-1.685495e+000
3.188769e+003,-1.800757e+000
3.189733e+003,-1.865611e+000
3.190697e+003,-2.088159e+000
3.191661e+003,-2.111497e+000
3.192625e+003,-1.782643e+000
3.193590e+003,-1.767555e+000
3.194554e+003,-2.379257e+000
3.195518e+003,-2.511627e+000
3.196482e+003,-1.445194e+000
3.197447e+003,-6.804291e-001
3.198411e+003,-4.027801e-001
3.199375e+003,-9.723511e-002
3.200339e+003,2.659287e-001
3.201303e+003,1.023509e+000
3.202268e+003,1.707460e+000
3.203232e+003,7.602722e-001
3.204196e+003,-7.904114e-001
3.205160e+003,-4.827164e-001
3.206125e+003,6.553757e-001
3.207089e+003,8.234390e-001
3.208053e+003,2.576004e-001
3.209017e+003,-1.161787e+000
3.209982e+003,-2.392354e+000
3.210946e+003,-2.767697e+000
3.211910e+003,-2.137462e+000
3.212874e+003,-2.384415e-001
3.213839e+003,1.162637e+000
3.214803e+003,1.460962e+000
3.215767e+003,9.327774e-001
3.216731e+003,-2.022232e-001
3.217696e+003,-1.201163e+000
3.218660e+003,-1.868257e+000
3.219624e+003,-1.945255e+000
3.220588e+003,-1.415732e+000
3.221552e+003,-4.966843e-001
3.222517e+003,4.516693e-001
3.223481e+003,1.276733e-001
3.224445e+003,-7.497619e-001
3.225409e+003,-6.854141e-001
3.226374e+003,-4.525589e-001
3.227338e+003,-1.187105e+000
3.228302e+003,-1.810068e+000
3.229266e+003,-8.498535e-001
3.230230e+003,2.218140e-001
3.231195e+003,-5.163590e-001
3.232159e+003,-1.093312e+000
3.233123e+003,-3.458862e-001
3.234087e+003,6.399536e-003
3.235052e+003,-2.922791e-001
3.236016e+003,-6.066421e-001
3.236980e+003,-7.897094e-001
3.237944e+003,-1.097424e+000
3.238909e+003,-1.481682e+000
3.239873e+003,-1.028113e+000
3.240837e+003,9.394684e-002
3.241801e+003,1.667374e-001
3.242766e+003,-4.936539e-001
3.243730e+003,-5.688675e-001
3.244694e+003,-5.146637e-001
3.245658e+003,-1.235446e+000
3.246623e+003,-1.874440e+000
3.247587e+003,-1.582895e+000
3.248551e+003,-1.317848e+000
3.249515e+003,-1.702043e+000
3.250479e+003,-1.799182e+000
3.251444e+003,-8.263718e-001
3.252408e+003,-9.362336e-002
3.253372e+003,-1.642868e-001
3.254336e+003,-1.254532e+000
3.255301e+003,-3.534267e+000
3.256265e+003,-3.054240e+000
3.257229e+003,-5.645615e-001
3.258193e+003,-1.127829e+000
3.259157e+003,-3.706429e+000
3.260122e+003,-3.359158e+000
3.261086e+003,-1.205409e+000
3.262050e+003,-7.202972e-001
3.263014e+003,-1.219012e+000
3.263979e+003,-1.545302e+000
3.264943e+003,-1.405237e+000
3.265907e+003,5.799881e-001
3.266871e+003,1.543234e+000
3.267836e+003,-6.899872e-001
3.268800e+003,-2.615729e+000
3.269764e+003,-3.207550e+000
3.270728e+003,-2.916953e+000
3.271693e+003,-2.066498e+000
3.272657e+003,-1.577359e+000
3.273621e+003,-1.804733e+000
3.274585e+003,-1.435922e+000
3.275550e+003,-3.641693e-001
3.276514e+003,-7.656220e-001
3.277478e+003,-1.826863e+000
3.278442e+003,-8.393585e-001
3.279406e+003,7.259873e-001
3.280371e+003,2.987259e-001
3.281335e+003,-5.750427e-001
3.282299e+003,-4.157837e-001
3.283263e+003,-1.485748e-001
3.284228e+003,-6.834701e-001
3.285192e+003,-1.020157e+000
3.286156e+003,8.725433e-002
3.287120e+003,7.154724e-001
3.288084e+003,1.503693e-001
3.289049e+003,3.144760e-001
3.290013e+003,1.225374e+000
3.290977e+003,1.134169e+000
3.291941e+003,2.639084e-001
3.292906e+003,3.009766e-001
3.293870e+003,1.097760e+000
3.294834e+003,1.235466e+000
3.295798e+003,1.046594e+000
3.296763e+003,1.618176e+000
3.297727e+003,2.167874e+000
3.298691e+003,1.161247e+000
3.299655e+003,-7.835083e-002
3.300620e+003,-8.917923e-001
3.301584e+003,-9.827210e-001
3.302548e+003,-2.242416e-001
3.303512e+003,2.033890e-001
3.304477e+003,-1.689758e-002
3.305441e+003,4.665634e-001
3.306405e+003,2.143080e+000
3.307369e+003,2.105640e+000
3.308333e+003,1.124191e-001
3.309298e+003,1.066446e+000
3.310262e+003,3.638965e+000
3.311226e+003,3.588570e+000
3.312190e+003,2.543483e+000
3.313155e+003,3.160104e+000
3.314119e+003,4.097949e+000
3.315083e+003,4.254312e+000
3.316047e+003,3.778421e+000
3.317011e+003,2.726561e+000
3.317976e+003,1.908707e+000
3.318940e+003,1.940472e+000
3.319904e+003,2.397736e+000
3.320868e+003,3.523116e+000
3.321833e+003,2.857747e+000
3.322797e+003,7.753006e-001
3.323761e+003,4.077057e-001
3.324725e+003,1.585753e+000
3.325690e+003,3.265270e+000
3.326654e+003,4.469430e+000
3.327618e+003,3.660480e+000
3.328582e+003,2.040872e+000
3.329547e+003,1.962990e+000
3.330511e+003,2.384340e+000
3.331475e+003,2.236408e+000
3.332439e+003,1.871800e+000
3.333404e+003,1.277409e+000
3.334368e+003,1.346019e+000
3.335332e+003,2.157539e+000
3.336296e+003,2.085255e+000
3.337260e+003,8.316559e-001
3.338225e+003,-5.616638e-001
3.339189e+003,-1.716643e+000
3.340153e+003,-1.833431e+000
3.341117e+003,-1.091026e+000
3.342082e+003,-4.095001e-001
3.343046e+003,2.587982e-001
3.344010e+003,1.569839e+000
3.344974e+003,2.039662e+000
3.345938e+003,4.348145e-002
3.346903e+003,-1.343217e+000
3.347867e+003,-6.845779e-001
3.348831e+003,6.490310e-001
3.349795e+003,1.940671e+000
3.350760e+003,1.434543e+000
3.351724e+003,-2.673180e+000
3.352688e+003,-3.595844e+000
3.353652e+003,-1.655554e+000
3.354617e+003,1.506165e-001
3.355581e+003,1.514519e+000
3.356545e+003,2.192894e+000
3.357509e+003,2.325508e+000
3.358474e+003,2.206390e+000
3.359438e+003,1.529961e+000
3.360402e+003,-1.803741e-001
3.361366e+003,-7.496933e-001
3.362331e+003,3.231828e+000
3.363295e+003,5.436340e+000
3.364259e+003,2.574397e+000
3.365223e+003,6.795014e-001
3.366188e+003,1.079086e-001
3.367152e+003,-7.233429e-001
3.368116e+003,-1.672723e+000
3.369080e+003,-1.149760e+000
3.370044e+003,-7.241058e-002
3.371009e+003,-1.169199e+000
3.371973e+003,-2.870439e+000
3.372937e+003,-1.987216e+000
3.373901e+003,-3.453781e-001
3.374865e+003,1.304626e-003
3.375830e+003,4.080353e-002
3.376794e+003,1.810165e-001
3.377758e+003,1.752319e-002
3.378722e+003,-4.351791e-001
3.379687e+003,-1.297165e-001
3.380651e+003,1.042612e+000
3.381615e+003,2.463707e+000
3.382579e+003,3.651315e+000
3.383544e+003,2.682181e+000
3.384508e+003,4.392059e-001
3.385472e+003,-1.161041e-002
3.386436e+003,3.510635e-001
3.387401e+003,7.312439e-001
3.388365e+003,7.017746e-001
3.389329e+003,1.856384e-002
3.390293e+003,-4.630097e-001
3.391258e+003,-3.751160e-001
3.392222e+003,2.713043e-001
3.393186e+003,1.483038e+000
3.394150e+003,3.065169e+000
3.395115e+003,4.980719e+000
3.396079e+003,5.273318e+000
3.397043e+003,4.595102e+000
3.398007e+003,4.944776e+000
3.398971e+003,5.799554e+000
3.399936e+003,6.301080e+000
3.400900e+003,6.945566e+000
3.401864e+003,8.146362e+000
3.402828e+003,8.718649e+000
3.403792e+003,7.842587e+000
3.404757e+003,6.963061e+000
3.405721e+003,6.602173e+000
3.406685e+003,7.288736e+000
3.407649e+003,8.975369e+000
3.408614e+003,1.024468e+001
3.409578e+003,1.131552e+001
3.410542e+003,1.342881e+001
3.411506e+003,1.529797e+001
3.412471e+003,1.442307e+001
3.413435e+003,1.381009e+001
3.414399e+003,1.654758e+001
3.415363e+003,1.956983e+001
3.416328e+003,1.969083e+001
3.417292e+003,1.965541e+001
3.418256e+003,2.035981e+001
3.419220e+003,2.116969e+001
3.420185e+003,2.198442e+001
3.421149e+003,2.226151e+001
3.422113e+003,2.201988e+001
3.423077e+003,2.128170e+001
3.424042e+003,2.049283e+001
3.425006e+003,2.045127e+001
3.425970e+003,2.057600e+001
3.426934e+003,2.007713e+001
