7.140112e+001,1.598147e+002
7.236536e+001,1.517440e+002
7.332959e+001,1.527741e+002
7.429382e+001,1.569296e+002
7.525806e+001,1.657866e+002
7.622229e+001,1.668409e+002
7.718652e+001,1.496403e+002
7.815076e+001,1.021729e+002
7.911499e+001,7.542959e+001
8.007922e+001,7.074861e+001
8.104346e+001,7.870396e+001
8.200769e+001,9.151304e+001
8.297192e+001,1.089548e+002
8.393616e+001,1.296266e+002
8.490039e+001,1.623545e+002
8.586462e+001,1.980397e+002
8.682886e+001,2.209714e+002
8.779310e+001,1.997194e+002
8.875733e+001,1.640135e+002
8.972157e+001,1.289229e+002
9.068580e+001,1.003425e+002
9.165003e+001,7.833539e+001
9.261427e+001,6.746480e+001
9.357850e+001,6.413926e+001
9.454273e+001,6.314006e+001
9.550697e+001,6.105164e+001
9.647120e+001,5.781055e+001
9.743543e+001,5.469409e+001
9.839967e+001,5.095358e+001
9.936390e+001,4.739378e+001
1.003281e+002,4.507722e+001
1.012924e+002,4.522129e+001
1.022566e+002,4.492936e+001
1.032208e+002,4.230176e+001
1.041851e+002,3.896386e+001
1.051493e+002,3.849479e+001
1.061135e+002,5.154365e+001
1.070778e+002,6.315728e+001
1.080420e+002,6.580493e+001
1.090062e+002,5.771079e+001
1.099705e+002,4.331834e+001
1.109347e+002,3.086280e+001
1.118989e+002,2.092671e+001
1.128632e+002,1.753403e+001
1.138274e+002,2.376033e+001
1.147916e+002,4.186037e+001
1.157559e+002,5.022529e+001
1.167201e+002,4.648284e+001
1.176843e+002,3.805547e+001
1.186486e+002,3.380479e+001
1.196128e+002,3.617894e+001
1.205770e+002,4.038087e+001
1.215413e+002,5.042600e+001
1.225055e+002,6.211521e+001
1.234697e+002,6.665932e+001
1.244340e+002,4.850893e+001
1.253982e+002,2.907028e+001
1.263624e+002,1.097786e+001
1.273267e+002,-2.790063e+000
1.282909e+002,-7.896741e+000
1.292551e+002,1.840505e+001
1.302194e+002,5.365956e+001
1.311836e+002,7.721327e+001
1.321478e+002,7.610838e+001
1.331121e+002,5.034068e+001
1.340763e+002,3.005333e+001
1.350405e+002,1.365522e+001
1.360048e+002,3.493726e+000
1.369690e+002,3.294250e+000
1.379332e+002,2.426867e+001
1.388975e+002,3.692426e+001
1.398617e+002,3.835504e+001
1.408259e+002,3.266543e+001
1.417902e+002,2.631960e+001
1.427544e+002,2.071934e+001
1.437186e+002,1.612224e+001
1.446829e+002,1.273666e+001
1.456471e+002,1.041954e+001
1.466113e+002,8.722730e+000
1.475756e+002,5.536719e+000
1.485398e+002,3.625415e+000
1.495040e+002,6.471155e+000
1.504683e+002,1.489198e+001
1.514325e+002,2.699313e+001
1.523967e+002,3.163678e+001
1.533610e+002,3.053964e+001
1.543252e+002,2.730593e+001
1.552894e+002,2.441682e+001
1.562537e+002,2.222316e+001
1.572179e+002,1.904866e+001
1.581821e+002,1.148412e+001
1.591464e+002,5.048266e+000
1.601106e+002,6.467517e+000
1.610748e+002,2.546819e+001
1.620391e+002,3.806596e+001
1.630033e+002,3.608677e+001
1.639676e+002,2.540852e+001
1.649318e+002,1.556544e+001
1.658960e+002,1.805610e+001
1.668603e+002,2.182189e+001
1.678245e+002,1.743973e+001
1.687887e+002,5.843042e+000
1.697530e+002,-7.081616e+000
1.707172e+002,-2.624170e+000
1.716814e+002,1.271140e+001
1.726457e+002,2.366193e+001
1.736099e+002,2.433087e+001
1.745741e+002,1.426727e+001
1.755384e+002,6.880750e+000
1.765026e+002,1.797534e+000
1.774668e+002,-1.419434e+000
1.784311e+002,-2.304175e+000
1.793953e+002,3.157349e-001
1.803595e+002,2.000781e+000
1.813238e+002,1.445483e+000
1.822880e+002,7.752685e-002
1.832522e+002,-7.403320e-001
1.842165e+002,4.149658e-001
1.851807e+002,6.906494e-001
1.861449e+002,-2.588708e+000
1.871092e+002,-7.766052e+000
1.880734e+002,-1.299506e+001
1.890376e+002,-1.614421e+001
1.900019e+002,-1.652926e+001
1.909661e+002,-1.269175e+001
1.919303e+002,-4.695960e+000
1.928946e+002,5.131982e+000
1.938588e+002,8.861975e+000
1.948230e+002,1.814600e+000
1.957873e+002,-8.939697e-001
1.967515e+002,5.843079e+000
1.977157e+002,2.166615e+001
1.986800e+002,3.243097e+001
1.996442e+002,3.166095e+001
2.006084e+002,3.055909e+001
2.015727e+002,3.385656e+001
2.025369e+002,4.289132e+001
2.035011e+002,4.916390e+001
2.044654e+002,4.570713e+001
2.054296e+002,3.822358e+001
2.063938e+002,2.872374e+001
2.073581e+002,1.866660e+001
2.083223e+002,9.602758e+000
2.092865e+002,3.648523e+000
2.102508e+002,7.424316e-001
2.112150e+002,2.579065e+000
2.121792e+002,1.106624e+001
2.131435e+002,2.861096e+001
2.141077e+002,4.040413e+001
2.150719e+002,4.541016e+001
2.160362e+002,4.623950e+001
2.170004e+002,4.663718e+001
2.179646e+002,4.725909e+001
2.189289e+002,4.591559e+001
2.198931e+002,3.874366e+001
2.208573e+002,2.973198e+001
2.218216e+002,2.617236e+001
2.227858e+002,3.588805e+001
2.237500e+002,5.015458e+001
2.247143e+002,7.211562e+001
2.256785e+002,9.698899e+001
2.266427e+002,1.149652e+002
2.276070e+002,1.005077e+002
2.285712e+002,6.988143e+001
2.295354e+002,4.281736e+001
2.304997e+002,2.517133e+001
2.314639e+002,1.601156e+001
2.324281e+002,1.038212e+001
2.333924e+002,8.705908e+000
2.343566e+002,7.888232e+000
2.353208e+002,6.881738e+000
2.362851e+002,5.587720e+000
2.372493e+002,4.652344e+000
2.382135e+002,3.745276e+000
2.391778e+002,3.314685e+000
2.401420e+002,4.322986e+000
2.411062e+002,7.547729e+000
2.420705e+002,8.745349e+000
2.430347e+002,3.694067e+000
2.439989e+002,-3.024573e+000
2.449632e+002,-8.006640e+000
2.459274e+002,-8.619214e+000
2.468916e+002,-6.364209e+000
2.478559e+002,-4.485986e+000
2.488201e+002,-3.123572e+000
2.497843e+002,-3.103394e+000
2.507486e+002,-5.492419e+000
2.517128e+002,-1.126317e+001
2.526770e+002,-1.112717e+001
2.536413e+002,-2.039490e+000
2.546055e+002,1.022174e+001
2.555697e+002,1.643887e+001
2.565340e+002,1.071555e+001
2.574982e+002,6.418152e+000
2.584625e+002,5.465283e+000
2.594267e+002,6.616113e+000
2.603909e+002,7.490869e+000
2.613552e+002,6.440430e+000
2.623194e+002,4.800586e+000
2.632836e+002,2.647254e+000
2.642479e+002,4.512695e-001
2.652121e+002,-9.640381e-001
2.661763e+002,5.916870e-001
2.671406e+002,3.128381e+000
2.681048e+002,2.841919e+000
2.690690e+002,-7.388550e-001
2.700333e+002,-5.962427e+000
2.709975e+002,-5.626599e+000
2.719617e+002,2.621277e+000
2.729260e+002,8.489405e+000
2.738902e+002,9.024084e+000
2.748544e+002,4.276550e+000
2.758187e+002,-3.169068e-001
2.767829e+002,-5.994055e+000
2.777471e+002,-1.017853e+001
2.787114e+002,-1.152898e+001
2.796756e+002,-9.894031e+000
2.806398e+002,-7.501489e+000
2.816041e+002,-5.824048e+000
2.825683e+002,-4.212134e+000
2.835325e+002,-2.114746e+000
2.844968e+002,6.269287e-001
2.854610e+002,3.403540e+000
2.864252e+002,5.127502e+000
2.873895e+002,5.888306e+000
2.883537e+002,5.271118e+000
2.893179e+002,3.012158e+000
2.902822e+002,-9.739136e-001
2.912464e+002,-3.949622e+000
2.922106e+002,-5.941333e+000
2.931749e+002,-7.475854e+000
2.941391e+002,-8.941248e+000
2.951033e+002,-1.051813e+001
2.960676e+002,-1.165453e+001
2.970318e+002,-1.250653e+001
2.979960e+002,-1.271700e+001
2.989603e+002,-1.199764e+001
2.999245e+002,-1.017405e+001
3.008887e+002,-7.743933e+000
3.018530e+002,-4.389771e+000
3.028172e+002,-1.076135e+000
3.037814e+002,1.106775e+000
3.047457e+002,1.202002e+000
3.057099e+002,1.076660e-002
3.066741e+002,5.393432e-001
3.076384e+002,2.289697e+000
3.086026e+002,3.511157e+000
3.095668e+002,2.193616e+000
3.105311e+002,-2.850293e+000
3.114953e+002,-5.976306e+000
3.124595e+002,-6.396887e+000
3.134238e+002,-5.753394e+000
3.143880e+002,-6.171326e+000
3.153522e+002,-9.407763e+000
3.163165e+002,-1.058492e+001
3.172807e+002,-7.765063e+000
3.182449e+002,-3.089441e+000
3.192092e+002,9.573242e-001
3.201734e+002,2.411731e+000
3.211376e+002,3.389111e+000
3.221019e+002,5.882544e+000
3.230661e+002,9.265661e+000
3.240303e+002,1.270920e+001
3.249946e+002,1.537585e+001
3.259588e+002,1.660038e+001
3.269230e+002,1.503171e+001
3.278873e+002,1.053873e+001
3.288515e+002,5.146887e+000
3.298157e+002,2.475610e+000
3.307800e+002,5.056030e+000
3.317442e+002,6.596655e+000
3.327084e+002,5.751855e+000
3.336727e+002,4.085303e+000
3.346369e+002,4.592639e+000
3.356011e+002,1.084932e+001
3.365654e+002,1.518198e+001
3.375296e+002,1.504792e+001
3.384938e+002,1.209022e+001
3.394581e+002,8.881653e+000
3.404223e+002,7.255994e+000
3.413865e+002,6.692224e+000
3.423508e+002,6.647840e+000
3.433150e+002,7.115454e+000
3.442792e+002,8.111609e+000
3.452435e+002,9.643677e+000
3.462077e+002,1.185917e+001
3.471719e+002,1.465598e+001
3.481362e+002,1.767709e+001
3.491004e+002,2.170659e+001
3.500646e+002,2.842340e+001
3.510289e+002,3.494141e+001
3.519931e+002,4.995659e+001
3.529573e+002,7.422746e+001
3.539216e+002,1.066115e+002
3.548858e+002,1.478012e+002
3.558500e+002,2.191040e+002
3.568143e+002,2.683552e+002
3.577785e+002,2.740915e+002
3.587427e+002,2.465464e+002
3.597070e+002,2.031806e+002
3.606712e+002,1.544308e+002
3.616354e+002,1.085284e+002
3.625997e+002,7.477382e+001
3.635639e+002,5.298539e+001
3.645281e+002,4.035223e+001
3.654924e+002,3.208641e+001
3.664566e+002,2.954050e+001
3.674208e+002,2.600358e+001
3.683851e+002,2.090701e+001
3.693493e+002,1.496725e+001
3.703135e+002,9.694128e+000
3.712778e+002,4.522082e+000
3.722420e+002,1.546436e+000
3.732062e+002,1.649377e+000
3.741705e+002,3.727551e+000
3.751347e+002,6.242883e+000
3.760989e+002,8.903418e+000
3.770632e+002,1.107670e+001
3.780274e+002,1.252329e+001
3.789916e+002,1.319403e+001
3.799559e+002,1.307371e+001
3.809201e+002,1.211011e+001
3.818844e+002,1.040734e+001
3.828486e+002,8.158277e+000
3.838128e+002,5.493933e+000
3.847771e+002,3.252161e+000
3.857413e+002,2.701929e+000
3.867055e+002,4.843274e+000
3.876698e+002,6.340857e+000
3.886340e+002,5.798218e+000
3.895982e+002,5.129175e+000
3.905625e+002,7.506201e+000
3.915267e+002,1.678311e+001
3.924909e+002,2.245572e+001
3.934552e+002,2.111851e+001
3.944194e+002,1.653507e+001
3.953836e+002,1.261323e+001
3.963479e+002,1.158190e+001
3.973121e+002,1.207804e+001
3.982763e+002,1.300909e+001
3.992406e+002,1.406842e+001
4.002048e+002,1.472639e+001
4.011690e+002,1.443521e+001
4.021333e+002,1.336246e+001
4.030975e+002,1.323458e+001
4.040617e+002,1.408596e+001
4.050260e+002,1.511948e+001
4.059902e+002,1.538301e+001
4.069544e+002,1.412255e+001
4.079187e+002,1.433473e+001
4.088829e+002,1.760769e+001
4.098471e+002,2.072342e+001
4.108114e+002,2.075651e+001
4.117756e+002,1.614401e+001
4.127398e+002,1.269900e+001
4.137041e+002,1.349058e+001
4.146683e+002,1.555631e+001
4.156325e+002,1.691144e+001
4.165968e+002,1.648926e+001
4.175610e+002,1.515032e+001
4.185252e+002,1.395703e+001
4.194895e+002,1.308259e+001
4.204537e+002,1.275476e+001
4.214179e+002,1.313722e+001
4.223822e+002,1.428347e+001
4.233464e+002,1.741228e+001
4.243106e+002,2.334750e+001
4.252749e+002,2.757140e+001
4.262391e+002,2.648982e+001
4.272033e+002,1.930439e+001
4.281676e+002,1.686974e+001
4.291318e+002,2.279597e+001
4.300960e+002,3.009882e+001
4.310603e+002,3.586102e+001
4.320245e+002,3.990370e+001
4.329887e+002,4.565611e+001
4.339530e+002,5.353837e+001
4.349172e+002,6.634092e+001
4.358814e+002,8.807635e+001
4.368457e+002,1.182250e+002
4.378099e+002,1.531291e+002
4.387741e+002,1.907182e+002
4.397384e+002,2.260006e+002
4.407026e+002,2.420573e+002
4.416668e+002,2.342542e+002
4.426311e+002,2.074500e+002
4.435953e+002,1.775798e+002
4.445595e+002,1.368503e+002
4.455238e+002,1.036204e+002
4.464880e+002,8.034808e+001
4.474522e+002,6.487099e+001
4.484165e+002,5.299638e+001
4.493807e+002,4.532598e+001
4.503449e+002,4.001827e+001
4.513092e+002,3.740719e+001
4.522734e+002,3.625493e+001
4.532376e+002,3.511920e+001
4.542019e+002,3.305342e+001
4.551661e+002,2.999225e+001
4.561303e+002,2.552897e+001
4.570946e+002,2.035529e+001
4.580588e+002,1.586576e+001
4.590230e+002,1.358704e+001
4.599873e+002,1.379844e+001
4.609515e+002,1.450034e+001
4.619157e+002,1.591395e+001
4.628800e+002,1.722815e+001
4.638442e+002,1.738976e+001
4.648084e+002,1.540389e+001
4.657727e+002,1.550563e+001
4.667369e+002,1.987450e+001
4.677011e+002,2.431401e+001
4.686654e+002,2.615875e+001
4.696296e+002,2.455559e+001
4.705938e+002,2.180874e+001
4.715581e+002,1.876655e+001
4.725223e+002,1.600266e+001
4.734865e+002,1.417255e+001
4.744508e+002,1.343323e+001
4.754150e+002,1.320054e+001
4.763792e+002,1.150624e+001
4.773435e+002,9.033117e+000
4.783077e+002,8.123456e+000
4.792719e+002,9.824634e+000
4.802362e+002,1.342871e+001
4.812004e+002,1.481023e+001
4.821646e+002,1.168676e+001
4.831289e+002,8.922827e+000
4.840931e+002,6.534363e+000
4.850573e+002,4.711603e+000
4.860216e+002,4.115973e+000
4.869858e+002,6.716791e+000
4.879500e+002,8.665216e+000
4.889143e+002,8.335052e+000
4.898785e+002,6.577435e+000
4.908427e+002,4.773840e+000
4.918070e+002,3.966083e+000
4.927712e+002,3.869360e+000
4.937354e+002,4.014356e+000
4.946997e+002,4.302447e+000
4.956639e+002,4.478253e+000
4.966281e+002,4.277106e+000
4.975924e+002,3.660632e+000
4.985566e+002,2.905652e+000
4.995208e+002,1.505926e+000
5.004851e+002,6.367920e-001
5.014493e+002,1.581445e+000
5.024135e+002,5.031659e+000
5.033778e+002,6.965155e+000
5.043420e+002,5.749994e+000
5.053063e+002,4.482819e+000
5.062705e+002,4.986041e+000
5.072347e+002,7.371277e+000
5.081990e+002,9.185644e+000
5.091632e+002,6.880316e+000
5.101274e+002,3.738410e+000
5.110917e+002,1.321375e+000
5.120559e+002,1.977478e-001
5.130201e+002,4.123108e-001
5.139844e+002,2.528192e+000
5.149486e+002,6.198877e+000
5.159128e+002,7.979901e+000
5.168771e+002,7.164447e+000
5.178413e+002,4.788965e+000
5.188055e+002,3.088983e+000
5.197698e+002,2.660785e+000
5.207340e+002,2.025812e+000
5.216982e+002,6.342102e-001
5.226625e+002,-7.397156e-001
5.236267e+002,-1.123987e+000
5.245909e+002,5.695801e-002
5.255552e+002,1.398383e+000
5.265194e+002,2.480194e+000
5.274836e+002,3.181183e+000
5.284479e+002,3.360931e+000
5.294121e+002,2.963281e+000
5.303763e+002,2.169666e+000
5.313406e+002,8.724121e-001
5.323048e+002,-6.103943e-001
5.332690e+002,-1.409161e+000
5.342333e+002,-1.070660e+000
5.351975e+002,2.706726e-001
5.361617e+002,1.461841e+000
5.371260e+002,2.697449e+000
5.380902e+002,3.610510e+000
5.390544e+002,3.989966e+000
5.400187e+002,3.897321e+000
5.409829e+002,3.594696e+000
5.419471e+002,2.700629e+000
5.429114e+002,2.384363e+000
5.438756e+002,3.765240e+000
5.448398e+002,5.677569e+000
5.458041e+002,6.341394e+000
5.467683e+002,4.267072e+000
5.477325e+002,9.554077e-001
5.486968e+002,-1.639185e+000
5.496610e+002,-3.536890e+000
5.506252e+002,-4.649506e+000
5.515895e+002,-4.899744e+000
5.525537e+002,-4.307715e+000
5.535179e+002,-4.052972e+000
5.544822e+002,-4.418909e+000
5.554464e+002,-4.220654e+000
5.564106e+002,-2.262311e+000
5.573749e+002,1.453064e+000
5.583391e+002,3.293530e+000
5.593033e+002,6.383362e-001
5.602676e+002,-1.545697e+000
5.612318e+002,-1.526392e+000
5.621960e+002,1.840332e-001
5.631603e+002,1.580957e+000
5.641245e+002,8.822510e-001
5.650887e+002,-2.791199e-001
5.660530e+002,-6.417602e-001
5.670172e+002,-3.040283e-001
5.679814e+002,3.722107e-001
5.689457e+002,1.017285e+000
5.699099e+002,1.564227e+000
5.708741e+002,1.712915e+000
5.718384e+002,1.502173e+000
5.728026e+002,1.098431e+000
5.737668e+002,4.669983e-001
5.747311e+002,-5.890503e-001
5.756953e+002,-9.502258e-001
5.766595e+002,-2.886353e-002
5.776238e+002,8.716614e-001
5.785880e+002,1.518988e+000
5.795522e+002,1.774432e+000
5.805165e+002,1.219086e+000
5.814807e+002,-1.630121e+000
5.824449e+002,-4.276910e+000
5.834092e+002,-5.327478e+000
5.843734e+002,-4.945154e+000
5.853376e+002,-3.937488e+000
5.863019e+002,-3.172595e+000
5.872661e+002,-2.632648e+000
5.882303e+002,-1.948358e+000
5.891946e+002,-1.083606e+000
5.901588e+002,-5.533386e-001
5.911230e+002,-1.084979e+000
5.920873e+002,-3.315967e+000
5.930515e+002,-4.066644e+000
5.940157e+002,-2.040796e+000
5.949800e+002,-2.953979e-001
5.959442e+002,-1.135474e+000
5.969084e+002,-4.512695e+000
5.978727e+002,-6.322980e+000
5.988369e+002,-1.391785e+000
5.998011e+002,3.353613e+000
6.007654e+002,5.160388e+000
6.017296e+002,4.045416e+000
6.026938e+002,1.219617e+000
6.036581e+002,-2.611456e+000
6.046223e+002,-6.325543e+000
6.055865e+002,-6.887543e+000
6.065508e+002,-4.465564e+000
6.075150e+002,-1.387042e+000
6.084792e+002,-2.170227e-001
6.094435e+002,-1.546118e+000
6.104077e+002,-1.675140e+000
6.113719e+002,4.093750e-001
6.123362e+002,2.178687e+000
6.133004e+002,2.130744e+000
6.142646e+002,2.397339e-001
6.152289e+002,-1.522833e+000
6.161931e+002,-2.537811e+000
6.171573e+002,-3.124658e+000
6.181216e+002,-3.328186e+000
6.190858e+002,-3.106067e+000
6.200500e+002,-2.237525e+000
6.210143e+002,-2.120605e-001
6.219785e+002,2.005920e+000
6.229427e+002,2.429767e+000
6.239070e+002,1.350751e+000
6.248712e+002,1.467712e-001
6.258354e+002,2.138367e-001
6.267997e+002,1.838037e+000
6.277639e+002,2.454425e+000
6.287281e+002,1.779053e+000
6.296924e+002,6.457031e-001
6.306566e+002,-1.283899e+000
6.316208e+002,-3.797632e+000
6.325851e+002,-4.582312e+000
6.335493e+002,-7.071716e-001
6.345135e+002,3.052850e+000
6.354778e+002,5.864954e+000
6.364420e+002,7.425910e+000
6.374063e+002,7.442468e+000
6.383705e+002,5.281006e+000
6.393347e+002,2.304260e+000
6.402990e+002,7.210022e-001
6.412632e+002,2.768188e-001
6.422274e+002,4.494385e-001
6.431917e+002,8.472656e-001
6.441559e+002,1.436133e+000
6.451201e+002,1.802954e+000
6.460844e+002,2.022479e+000
6.470486e+002,1.961902e+000
6.480128e+002,1.543243e+000
6.489771e+002,8.143066e-001
6.499413e+002,-7.049561e-002
6.509055e+002,-1.409003e+000
6.518698e+002,-2.508441e+000
6.528340e+002,-3.270135e+000
6.537982e+002,-3.636920e+000
6.547625e+002,-3.531616e+000
6.557267e+002,-2.888776e+000
6.566909e+002,-1.944733e+000
6.576552e+002,-7.555359e-001
6.586194e+002,3.761047e-001
6.595836e+002,8.609741e-001
6.605479e+002,4.548279e-001
6.615121e+002,-4.879700e-001
6.624763e+002,-5.804749e-001
6.634406e+002,6.284240e-001
6.644048e+002,1.474323e+000
6.653690e+002,1.332477e+000
6.663333e+002,7.107483e-001
6.672975e+002,7.065674e-001
6.682617e+002,1.936420e+000
6.692260e+002,2.905768e+000
6.701902e+002,3.036994e+000
6.711544e+002,2.966437e+000
6.721187e+002,3.423486e+000
6.730829e+002,4.564868e+000
6.740471e+002,5.317664e+000
6.750114e+002,3.390186e+000
6.759756e+002,6.504700e-001
6.769398e+002,-1.083502e+000
6.779041e+002,-1.410345e+000
6.788683e+002,-7.761963e-001
6.798325e+002,6.600342e-002
6.807968e+002,1.349310e+000
6.817610e+002,1.594342e+000
6.827252e+002,-1.870728e-001
6.836895e+002,-2.146307e+000
6.846537e+002,-2.581921e+000
6.856179e+002,-1.238928e+000
6.865822e+002,1.292541e-001
6.875464e+002,1.673267e+000
6.885106e+002,2.645001e+000
6.894749e+002,2.294586e+000
6.904391e+002,9.516968e-001
6.914034e+002,-1.886841e-001
6.923676e+002,1.279541e-001
6.933318e+002,1.077991e+000
6.942961e+002,1.532239e+000
6.952603e+002,1.502148e+000
6.962245e+002,1.090686e+000
6.971888e+002,3.572388e-001
6.981530e+002,-7.347839e-001
6.991172e+002,-1.252881e+000
7.000815e+002,-1.441473e+000
7.010457e+002,-9.626099e-001
7.020099e+002,1.028796e+000
7.029742e+002,4.065149e+000
7.039384e+002,5.745636e+000
7.049026e+002,4.660321e+000
7.058669e+002,3.210351e+000
7.068311e+002,1.265723e+000
7.077953e+002,-3.424744e-001
7.087596e+002,-2.502014e-001
7.097238e+002,2.392218e+000
7.106880e+002,5.474475e+000
7.116523e+002,4.886963e+000
7.126165e+002,2.557495e+000
7.135807e+002,1.469659e+000
7.145450e+002,2.744452e+000
7.155092e+002,5.233099e+000
7.164734e+002,5.752747e+000
7.174377e+002,2.953497e+000
7.184019e+002,8.388245e-001
7.193661e+002,-6.281433e-001
7.203304e+002,-1.483386e+000
7.212946e+002,-1.557153e+000
7.222589e+002,-5.900696e-001
7.232231e+002,1.817200e-001
7.241873e+002,-4.400635e-003
7.251516e+002,-1.813232e-001
7.261158e+002,2.452820e-001
7.270800e+002,1.204364e+000
7.280443e+002,2.150104e+000
7.290085e+002,2.622803e+000
7.299727e+002,2.613104e+000
7.309370e+002,2.139545e+000
7.319012e+002,1.271619e+000
7.328654e+002,2.763733e-001
7.338297e+002,-6.629456e-001
7.347939e+002,-1.588849e+000
7.357581e+002,-1.623462e+000
7.367224e+002,4.101135e-001
7.376866e+002,1.694092e+000
7.386508e+002,9.997131e-001
7.396151e+002,-1.008319e+000
7.405793e+002,-2.491089e+000
7.415435e+002,-2.885815e+000
7.425078e+002,-2.646619e+000
7.434720e+002,-1.844788e+000
7.444362e+002,-7.863892e-001
7.454005e+002,3.410950e-001
7.463647e+002,1.421265e+000
7.473289e+002,2.289954e+000
7.482932e+002,2.619073e+000
7.492574e+002,2.535346e+000
7.502216e+002,2.005115e+000
7.511859e+002,9.174805e-001
7.521501e+002,-2.509216e-001
7.531143e+002,-4.800232e-001
7.540786e+002,1.155878e+000
7.550428e+002,1.520386e+000
7.560070e+002,-8.337768e-001
7.569713e+002,-2.834192e+000
7.579355e+002,-1.940668e+000
7.588997e+002,1.682880e+000
7.598640e+002,4.132165e+000
7.608282e+002,1.783362e+000
7.617924e+002,-8.258972e-001
7.627567e+002,-1.591742e+000
7.637209e+002,-7.085327e-001
7.646851e+002,1.092944e+000
7.656494e+002,3.238434e+000
7.666136e+002,5.652667e+000
7.675778e+002,8.518372e+000
7.685421e+002,1.176973e+001
7.695063e+002,1.365847e+001
7.704705e+002,1.325070e+001
7.714348e+002,1.093699e+001
7.723990e+002,8.197510e+000
7.733632e+002,4.225440e+000
7.743275e+002,1.068652e+000
7.752917e+002,-1.193897e+000
7.762559e+002,-2.578253e+000
7.772202e+002,-2.791608e+000
7.781844e+002,-1.772205e+000
7.791486e+002,-7.976562e-001
7.801129e+002,-1.440741e+000
7.810771e+002,-2.323346e+000
7.820413e+002,-2.516620e+000
7.830056e+002,-1.945618e+000
7.839698e+002,-8.828186e-001
7.849340e+002,4.228943e-001
7.858983e+002,1.845636e+000
7.868625e+002,1.397656e+000
7.878267e+002,-1.415302e+000
7.887910e+002,-4.018720e+000
7.897552e+002,-4.995123e+000
7.907194e+002,-4.481079e+000
7.916837e+002,-3.648981e+000
7.926479e+002,-1.739056e+000
7.936121e+002,-7.398865e-001
7.945764e+002,-1.897430e+000
7.955406e+002,-3.703094e+000
7.965048e+002,-4.318067e+000
7.974691e+002,-2.983411e+000
7.984333e+002,-1.147058e+000
7.993975e+002,-5.273803e-001
8.003618e+002,-7.134339e-001
8.013260e+002,-1.682678e+000
8.022902e+002,-3.293067e+000
8.032545e+002,-4.915497e+000
8.042187e+002,-5.595904e+000
8.051829e+002,-5.092914e+000
8.061472e+002,-4.779584e+000
8.071114e+002,-4.993726e+000
8.080756e+002,-5.045489e+000
8.090399e+002,-4.513672e+000
8.100041e+002,-3.448645e+000
8.109683e+002,-2.303375e+000
8.119326e+002,-1.090094e+000
8.128968e+002,-9.521485e-004
8.138610e+002,1.129102e+000
8.148253e+002,2.007941e+000
8.157895e+002,2.056067e+000
8.167537e+002,1.047015e+000
8.177180e+002,-1.646606e-001
8.186822e+002,2.575622e-001
8.196464e+002,1.705750e+000
8.206107e+002,2.794299e+000
8.215749e+002,3.172632e+000
8.225391e+002,3.365540e+000
8.235034e+002,4.344855e+000
8.244676e+002,6.761823e+000
8.254318e+002,7.770715e+000
8.263961e+002,7.005042e+000
8.273603e+002,5.837115e+000
8.283245e+002,4.522943e+000
8.292888e+002,3.243787e+000
8.302530e+002,2.514270e+000
8.312172e+002,2.782141e+000
8.321815e+002,3.367883e+000
8.331457e+002,4.396667e+000
8.341099e+002,5.228278e+000
8.350742e+002,4.763715e+000
8.360384e+002,2.575415e+000
8.370026e+002,-4.189514e-001
8.379669e+002,-2.175128e+000
8.389311e+002,-2.618579e+000
8.398953e+002,-2.137994e+000
8.408596e+002,-3.906250e-002
8.418238e+002,2.022302e+000
8.427880e+002,1.730139e+000
8.437523e+002,-1.589471e+000
8.447165e+002,-3.691907e+000
8.456807e+002,-3.562366e+000
8.466450e+002,-2.733008e+000
8.476092e+002,-1.027631e+000
8.485734e+002,8.651489e-001
8.495377e+002,1.652728e+000
8.505019e+002,3.876953e-001
8.514661e+002,-1.440936e+000
8.524304e+002,-1.580365e+000
8.533946e+002,-9.283752e-001
8.543588e+002,-1.076453e+000
8.553231e+002,-2.586591e+000
8.562873e+002,-4.449469e+000
8.572515e+002,-4.385736e+000
8.582158e+002,-1.361700e+000
8.591800e+002,4.228516e-001
8.601442e+002,2.944763e-001
8.611085e+002,-3.294067e-001
8.620727e+002,-4.458313e-001
8.630369e+002,-6.321411e-002
8.640012e+002,-3.468628e-002
8.649654e+002,-8.578064e-001
8.659296e+002,-1.947046e+000
8.668939e+002,-3.498419e+000
8.678581e+002,-4.968408e+000
8.688223e+002,-5.594007e+000
8.697866e+002,-5.019452e+000
8.707508e+002,-3.793152e+000
8.717150e+002,-2.926093e+000
8.726793e+002,-2.391778e+000
8.736435e+002,-2.090875e+000
8.746077e+002,-2.027063e+000
8.755720e+002,-2.102948e+000
8.765362e+002,-2.158783e+000
8.775004e+002,-2.108923e+000
8.784647e+002,-2.415552e+000
8.794289e+002,-3.891205e+000
8.803931e+002,-4.813025e+000
8.813574e+002,-4.055896e+000
8.823216e+002,-2.453162e+000
8.832858e+002,-1.784698e+000
8.842501e+002,-3.033691e+000
8.852143e+002,-4.548895e+000
8.861785e+002,-4.514154e+000
8.871428e+002,-3.866119e+000
8.881070e+002,-3.666382e+000
8.890712e+002,-4.195697e+000
8.900355e+002,-5.019006e+000
8.909997e+002,-5.441406e+000
8.919639e+002,-5.391608e+000
8.929282e+002,-5.208197e+000
8.938924e+002,-4.847870e+000
8.948566e+002,-4.445978e+000
8.958209e+002,-3.868353e+000
8.967851e+002,-3.251520e+000
8.977493e+002,-3.303394e+000
8.987136e+002,-4.910626e+000
8.996778e+002,-5.993689e+000
9.006420e+002,-5.360590e+000
9.016063e+002,-4.170362e+000
9.025705e+002,-3.344666e+000
9.035347e+002,-3.220404e+000
9.044990e+002,-3.711340e+000
9.054632e+002,-5.011218e+000
9.064274e+002,-6.767621e+000
9.073917e+002,-7.349670e+000
9.083559e+002,-6.660065e+000
9.093201e+002,-5.784155e+000
9.102844e+002,-5.551459e+000
9.112486e+002,-5.937055e+000
9.122128e+002,-6.327576e+000
9.131771e+002,-7.524798e+000
9.141413e+002,-7.537476e+000
9.151055e+002,-5.004395e+000
9.160698e+002,-1.954016e+000
9.170340e+002,-4.484009e-001
9.179982e+002,-9.494202e-001
9.189625e+002,-2.020074e+000
9.199267e+002,-2.693195e+000
9.208909e+002,-3.161035e+000
9.218552e+002,-3.516669e+000
9.228194e+002,-3.814355e+000
9.237836e+002,-4.257922e+000
9.247479e+002,-5.017066e+000
9.257121e+002,-5.916595e+000
9.266763e+002,-5.859204e+000
9.276406e+002,-4.076544e+000
9.286048e+002,-3.105218e+000
9.295690e+002,-3.867505e+000
9.305333e+002,-5.101984e+000
9.314975e+002,-5.259943e+000
9.324617e+002,-4.103778e+000
9.334260e+002,-3.220844e+000
9.343902e+002,-3.822522e+000
9.353545e+002,-4.373682e+000
9.363187e+002,-4.107520e+000
9.372830e+002,-3.307855e+000
9.382472e+002,-2.581488e+000
9.392114e+002,-2.287897e+000
9.401757e+002,-2.182837e+000
9.411399e+002,-1.719403e+000
9.421041e+002,-1.006866e+000
9.430684e+002,-6.227600e-001
9.440326e+002,-8.077087e-001
9.449968e+002,-1.165857e+000
9.459611e+002,-1.139764e+000
9.469253e+002,-6.081482e-001
9.478895e+002,-6.288452e-002
9.488538e+002,5.353760e-001
9.498180e+002,9.965637e-001
9.507822e+002,1.201715e+000
9.517465e+002,1.218280e+000
9.527107e+002,1.180096e+000
9.536749e+002,1.160651e+000
9.546392e+002,1.089465e+000
9.556034e+002,5.421936e-001
9.565676e+002,-1.959839e-002
9.575319e+002,2.318054e-001
9.584961e+002,1.332324e+000
9.594603e+002,2.544745e+000
9.604246e+002,3.058313e+000
9.613888e+002,2.843488e+000
9.623530e+002,2.799347e+000
9.633173e+002,2.800104e+000
9.642815e+002,3.113477e+000
9.652457e+002,3.910718e+000
9.662100e+002,5.066748e+000
9.671742e+002,6.144531e+000
9.681384e+002,6.974566e+000
9.691027e+002,8.720319e+000
9.700669e+002,8.384845e+000
9.710311e+002,1.280580e+001
9.719954e+002,3.083701e+001
9.729596e+002,5.749683e+001
9.739238e+002,8.299518e+001
9.748881e+002,1.003627e+002
9.758523e+002,1.079265e+002
9.768165e+002,9.765997e+001
9.777808e+002,6.478269e+001
9.787450e+002,3.967739e+001
9.797092e+002,2.791076e+001
9.806735e+002,2.285110e+001
9.816377e+002,1.905809e+001
9.826019e+002,1.656008e+001
9.835662e+002,1.466844e+001
9.845304e+002,1.379982e+001
9.854946e+002,1.290724e+001
9.864589e+002,1.116740e+001
9.874231e+002,9.421735e+000
9.883873e+002,8.778674e+000
9.893516e+002,9.567022e+000
9.903158e+002,1.101410e+001
9.912800e+002,1.213676e+001
9.922443e+002,1.318107e+001
9.932085e+002,1.468221e+001
9.941727e+002,1.664269e+001
9.951370e+002,1.946171e+001
9.961012e+002,2.298754e+001
9.970654e+002,2.729059e+001
9.980297e+002,3.315822e+001
9.989939e+002,3.280589e+001
9.999581e+002,4.903716e+001
1.000922e+003,8.020886e+001
1.001887e+003,1.301456e+002
1.002851e+003,2.269867e+002
1.003815e+003,3.536438e+002
1.004779e+003,4.347578e+002
1.005744e+003,4.088279e+002
1.006708e+003,3.227775e+002
1.007672e+003,2.399355e+002
1.008636e+003,1.636868e+002
1.009600e+003,1.057689e+002
1.010565e+003,7.147820e+001
1.011529e+003,5.408019e+001
1.012493e+003,4.115907e+001
1.013457e+003,3.362739e+001
1.014422e+003,2.855192e+001
1.015386e+003,2.706318e+001
1.016350e+003,2.601650e+001
1.017314e+003,2.405352e+001
1.018279e+003,2.160355e+001
1.019243e+003,1.984189e+001
1.020207e+003,1.932141e+001
1.021171e+003,1.879329e+001
1.022135e+003,1.678286e+001
1.023100e+003,1.457821e+001
1.024064e+003,1.314384e+001
1.025028e+003,1.259711e+001
1.025992e+003,1.284886e+001
1.026957e+003,1.386747e+001
1.027921e+003,1.545630e+001
1.028885e+003,1.603315e+001
1.029849e+003,1.471415e+001
1.030814e+003,1.444867e+001
1.031778e+003,1.657247e+001
1.032742e+003,1.888668e+001
1.033706e+003,1.920917e+001
1.034671e+003,1.752668e+001
1.035635e+003,1.571722e+001
1.036599e+003,1.406465e+001
1.037563e+003,1.302275e+001
1.038527e+003,1.305939e+001
1.039492e+003,1.364647e+001
1.040456e+003,1.415443e+001
1.041420e+003,1.434067e+001
1.042384e+003,1.439958e+001
1.043349e+003,1.458328e+001
1.044313e+003,1.489975e+001
1.045277e+003,1.553956e+001
1.046241e+003,1.665931e+001
1.047206e+003,1.758353e+001
1.048170e+003,1.774097e+001
1.049134e+003,1.752914e+001
1.050098e+003,1.813658e+001
1.051063e+003,2.022813e+001
1.052027e+003,2.144777e+001
1.052991e+003,1.992227e+001
1.053955e+003,1.825488e+001
1.054919e+003,1.819024e+001
1.055884e+003,1.916698e+001
1.056848e+003,1.952220e+001
1.057812e+003,1.828912e+001
1.058776e+003,1.650741e+001
1.059741e+003,1.629672e+001
1.060705e+003,1.741357e+001
1.061669e+003,1.840054e+001
1.062633e+003,1.910359e+001
1.063598e+003,1.951689e+001
1.064562e+003,1.949395e+001
1.065526e+003,1.914825e+001
1.066490e+003,1.942443e+001
1.067454e+003,2.095710e+001
1.068419e+003,2.216324e+001
1.069383e+003,2.221456e+001
1.070347e+003,2.206838e+001
1.071311e+003,2.291577e+001
1.072276e+003,2.454449e+001
1.073240e+003,2.535169e+001
1.074204e+003,2.391462e+001
1.075168e+003,2.143597e+001
1.076133e+003,2.083257e+001
1.077097e+003,2.159838e+001
1.078061e+003,2.199539e+001
1.079025e+003,2.137191e+001
1.079990e+003,2.053674e+001
1.080954e+003,2.083239e+001
1.081918e+003,2.253589e+001
1.082882e+003,2.346619e+001
1.083846e+003,2.246326e+001
1.084811e+003,2.187011e+001
1.085775e+003,2.242754e+001
1.086739e+003,2.343340e+001
1.087703e+003,2.436364e+001
1.088668e+003,2.503218e+001
1.089632e+003,2.512645e+001
1.090596e+003,2.400870e+001
1.091560e+003,2.245136e+001
1.092525e+003,2.190280e+001
1.093489e+003,2.222655e+001
1.094453e+003,2.320471e+001
1.095417e+003,2.490944e+001
1.096381e+003,2.673682e+001
1.097346e+003,2.715546e+001
1.098310e+003,2.526261e+001
1.099274e+003,2.520618e+001
1.100238e+003,2.926966e+001
1.101203e+003,3.235968e+001
1.102167e+003,3.254572e+001
1.103131e+003,3.102244e+001
1.104095e+003,2.920615e+001
1.105060e+003,2.755404e+001
1.106024e+003,2.630349e+001
1.106988e+003,2.557541e+001
1.107952e+003,2.570951e+001
1.108917e+003,2.760433e+001
1.109881e+003,3.068580e+001
1.110845e+003,3.266328e+001
1.111809e+003,3.221803e+001
1.112773e+003,3.026682e+001
1.113738e+003,2.897744e+001
1.114702e+003,2.862059e+001
1.115666e+003,2.846417e+001
1.116630e+003,2.841190e+001
1.117595e+003,2.849493e+001
1.118559e+003,2.873898e+001
1.119523e+003,2.912960e+001
1.120487e+003,2.971279e+001
1.121452e+003,3.051247e+001
1.122416e+003,3.131771e+001
1.123380e+003,3.187937e+001
1.124344e+003,3.226304e+001
1.125308e+003,3.284693e+001
1.126273e+003,3.350646e+001
1.127237e+003,3.345640e+001
1.128201e+003,3.216967e+001
1.129165e+003,3.050775e+001
1.130130e+003,3.066149e+001
1.131094e+003,3.358500e+001
1.132058e+003,3.510268e+001
1.133022e+003,3.448235e+001
1.133987e+003,3.370346e+001
1.134951e+003,3.333479e+001
1.135915e+003,3.331966e+001
1.136879e+003,3.365542e+001
1.137844e+003,3.429565e+001
1.138808e+003,3.446570e+001
1.139772e+003,3.271017e+001
1.140736e+003,3.082592e+001
1.141700e+003,3.180799e+001
1.142665e+003,3.488870e+001
1.143629e+003,3.745808e+001
1.144593e+003,3.825514e+001
1.145557e+003,3.802251e+001
1.146522e+003,3.812037e+001
1.147486e+003,3.855778e+001
1.148450e+003,3.872385e+001
1.149414e+003,3.832813e+001
1.150379e+003,3.829279e+001
1.151343e+003,3.953659e+001
1.152307e+003,4.090606e+001
1.153271e+003,4.059702e+001
1.154235e+003,3.839697e+001
1.155200e+003,3.642253e+001
1.156164e+003,3.637516e+001
1.157128e+003,3.739153e+001
1.158092e+003,3.838821e+001
1.159057e+003,3.919553e+001
1.160021e+003,3.906382e+001
1.160985e+003,3.764484e+001
1.161949e+003,3.634895e+001
1.162914e+003,3.755273e+001
1.163878e+003,4.168197e+001
1.164842e+003,4.462662e+001
1.165806e+003,4.548646e+001
1.166771e+003,4.613002e+001
1.167735e+003,4.741730e+001
1.168699e+003,4.811072e+001
1.169663e+003,4.638210e+001
1.170627e+003,4.269237e+001
1.171592e+003,3.986626e+001
1.172556e+003,3.967375e+001
1.173520e+003,4.104075e+001
1.174484e+003,4.327837e+001
1.175449e+003,4.560126e+001
1.176413e+003,4.593510e+001
1.177377e+003,4.378947e+001
1.178341e+003,4.165654e+001
1.179306e+003,4.225329e+001
1.180270e+003,4.534166e+001
1.181234e+003,4.761430e+001
1.182198e+003,4.884403e+001
1.183162e+003,4.942989e+001
1.184127e+003,4.903419e+001
1.185091e+003,4.845292e+001
1.186055e+003,4.794048e+001
1.187019e+003,4.777765e+001
1.187984e+003,4.854049e+001
1.188948e+003,5.047493e+001
1.189912e+003,5.241034e+001
1.190876e+003,5.280303e+001
1.191841e+003,5.213854e+001
1.192805e+003,5.160386e+001
1.193769e+003,5.127320e+001
1.194733e+003,5.100838e+001
1.195698e+003,5.051424e+001
1.196662e+003,5.014419e+001
1.197626e+003,5.114143e+001
1.198590e+003,5.422864e+001
1.199554e+003,5.595185e+001
1.200519e+003,5.440257e+001
1.201483e+003,5.335170e+001
1.202447e+003,5.463213e+001
1.203411e+003,5.676347e+001
1.204376e+003,5.776992e+001
1.205340e+003,5.712712e+001
1.206304e+003,5.566504e+001
1.207268e+003,5.405317e+001
1.208233e+003,5.283192e+001
1.209197e+003,5.373717e+001
1.210161e+003,5.636676e+001
1.211125e+003,5.781788e+001
1.212089e+003,5.666991e+001
1.213054e+003,5.490126e+001
1.214018e+003,5.490188e+001
1.214982e+003,5.665908e+001
1.215946e+003,5.836449e+001
1.216911e+003,5.986257e+001
1.217875e+003,6.100396e+001
1.218839e+003,6.205111e+001
1.219803e+003,6.242210e+001
1.220768e+003,6.114811e+001
1.221732e+003,5.905025e+001
1.222696e+003,5.800991e+001
1.223660e+003,5.902511e+001
1.224625e+003,6.105743e+001
1.225589e+003,6.230017e+001
1.226553e+003,6.264190e+001
1.227517e+003,6.297536e+001
1.228481e+003,6.327623e+001
1.229446e+003,6.381030e+001
1.230410e+003,6.525127e+001
1.231374e+003,6.669370e+001
1.232338e+003,6.639677e+001
1.233303e+003,6.419956e+001
1.234267e+003,6.233834e+001
1.235231e+003,6.139735e+001
1.236195e+003,6.114196e+001
1.237160e+003,6.128056e+001
1.238124e+003,6.193748e+001
1.239088e+003,6.396808e+001
1.240052e+003,6.705251e+001
1.241016e+003,6.904974e+001
1.241981e+003,6.782721e+001
1.242945e+003,6.439573e+001
1.243909e+003,6.354590e+001
1.244873e+003,6.721233e+001
1.245838e+003,6.892088e+001
1.246802e+003,6.692110e+001
1.247766e+003,6.481165e+001
1.248730e+003,6.468159e+001
1.249695e+003,6.589619e+001
1.250659e+003,6.709086e+001
1.251623e+003,6.800084e+001
1.252587e+003,6.843430e+001
1.253552e+003,6.787714e+001
1.254516e+003,6.708012e+001
1.255480e+003,6.671899e+001
1.256444e+003,6.675033e+001
1.257408e+003,6.706541e+001
1.258373e+003,6.762469e+001
1.259337e+003,6.835179e+001
1.260301e+003,6.916087e+001
1.261265e+003,7.010265e+001
1.262230e+003,7.101833e+001
1.263194e+003,7.161472e+001
1.264158e+003,7.223914e+001
1.265122e+003,7.329874e+001
1.266087e+003,7.408696e+001
1.267051e+003,7.390302e+001
1.268015e+003,7.316756e+001
1.268979e+003,7.301737e+001
1.269943e+003,7.390391e+001
1.270908e+003,7.466484e+001
1.271872e+003,7.351311e+001
1.272836e+003,7.174650e+001
1.273800e+003,7.274728e+001
1.274765e+003,7.632279e+001
1.275729e+003,7.945105e+001
1.276693e+003,8.077112e+001
1.277657e+003,8.087583e+001
1.278622e+003,8.032123e+001
1.279586e+003,7.898368e+001
1.280550e+003,7.844193e+001
1.281514e+003,7.964659e+001
1.282479e+003,8.076084e+001
1.283443e+003,8.125928e+001
1.284407e+003,8.143453e+001
1.285371e+003,8.131348e+001
1.286335e+003,8.099516e+001
1.287300e+003,8.071684e+001
1.288264e+003,8.067010e+001
1.289228e+003,8.085918e+001
1.290192e+003,8.120714e+001
1.291157e+003,8.170061e+001
1.292121e+003,8.220415e+001
1.293085e+003,8.253069e+001
1.294049e+003,8.291948e+001
1.295014e+003,8.357903e+001
1.295978e+003,8.447908e+001
1.296942e+003,8.575269e+001
1.297906e+003,8.732939e+001
1.298870e+003,8.838279e+001
1.299835e+003,8.844554e+001
1.300799e+003,8.803910e+001
1.301763e+003,8.686053e+001
1.302727e+003,8.585335e+001
1.303692e+003,8.654498e+001
1.304656e+003,8.849363e+001
1.305620e+003,8.960875e+001
1.306584e+003,8.864773e+001
1.307549e+003,8.682942e+001
1.308513e+003,8.661555e+001
1.309477e+003,8.826207e+001
1.310441e+003,8.903957e+001
1.311406e+003,8.811536e+001
1.312370e+003,8.771635e+001
1.313334e+003,8.867281e+001
1.314298e+003,8.985586e+001
1.315263e+003,9.022443e+001
1.316227e+003,8.994833e+001
1.317191e+003,8.974225e+001
1.318155e+003,8.985044e+001
1.319120e+003,9.061272e+001
1.320084e+003,9.314988e+001
1.321048e+003,9.612231e+001
1.322012e+003,9.619328e+001
1.322976e+003,9.358057e+001
1.323941e+003,9.189684e+001
1.324905e+003,9.309255e+001
1.325869e+003,9.553801e+001
1.326833e+003,9.680434e+001
1.327798e+003,9.686079e+001
1.328762e+003,9.698478e+001
1.329726e+003,9.722760e+001
1.330690e+003,9.751189e+001
1.331655e+003,9.837309e+001
1.332619e+003,9.879536e+001
1.333583e+003,9.752118e+001
1.334547e+003,9.540306e+001
1.335511e+003,9.418587e+001
1.336476e+003,9.454466e+001
1.337440e+003,9.547246e+001
1.338404e+003,9.573293e+001
1.339368e+003,9.549855e+001
1.340333e+003,9.584758e+001
1.341297e+003,9.693671e+001
1.342261e+003,9.781963e+001
1.343225e+003,9.797532e+001
1.344190e+003,9.840122e+001
1.345154e+003,1.000540e+002
1.346118e+003,1.024493e+002
1.347082e+003,1.046744e+002
1.348047e+003,1.065707e+002
1.349011e+003,1.069925e+002
1.349975e+003,1.042461e+002
1.350939e+003,1.009766e+002
1.351903e+003,1.000195e+002
1.352868e+003,1.006293e+002
1.353832e+003,1.013872e+002
1.354796e+003,1.018941e+002
1.355760e+003,1.022849e+002
1.356725e+003,1.025567e+002
1.357689e+003,1.029202e+002
1.358653e+003,1.045990e+002
1.359617e+003,1.087998e+002
1.360582e+003,1.107928e+002
1.361546e+003,1.079343e+002
1.362510e+003,1.055413e+002
1.363474e+003,1.061187e+002
1.364438e+003,1.077143e+002
1.365403e+003,1.076497e+002
1.366367e+003,1.059531e+002
1.367331e+003,1.048501e+002
1.368295e+003,1.058172e+002
1.369260e+003,1.080599e+002
1.370224e+003,1.105810e+002
1.371188e+003,1.134199e+002
1.372152e+003,1.138277e+002
1.373117e+003,1.103533e+002
1.374081e+003,1.078682e+002
1.375045e+003,1.087666e+002
1.376009e+003,1.109738e+002
1.376974e+003,1.124354e+002
1.377938e+003,1.131816e+002
1.378902e+003,1.135161e+002
1.379866e+003,1.131791e+002
1.380830e+003,1.132843e+002
1.381795e+003,1.155907e+002
1.382759e+003,1.179641e+002
1.383723e+003,1.180246e+002
1.384687e+003,1.166199e+002
1.385652e+003,1.163563e+002
1.386616e+003,1.181841e+002
1.387580e+003,1.203110e+002
1.388544e+003,1.205240e+002
1.389509e+003,1.189377e+002
1.390473e+003,1.171878e+002
1.391437e+003,1.146957e+002
1.392401e+003,1.138058e+002
1.393365e+003,1.158692e+002
1.394330e+003,1.177830e+002
1.395294e+003,1.180628e+002
1.396258e+003,1.174698e+002
1.397222e+003,1.168103e+002
1.398187e+003,1.166412e+002
1.399151e+003,1.178338e+002
1.400115e+003,1.209268e+002
1.401079e+003,1.242556e+002
1.402044e+003,1.246189e+002
1.403008e+003,1.219781e+002
1.403972e+003,1.209919e+002
1.404936e+003,1.224462e+002
1.405901e+003,1.238004e+002
1.406865e+003,1.236516e+002
1.407829e+003,1.234048e+002
1.408793e+003,1.253216e+002
1.409757e+003,1.286870e+002
1.410722e+003,1.295273e+002
1.411686e+003,1.261624e+002
1.412650e+003,1.229370e+002
1.413614e+003,1.232754e+002
1.414579e+003,1.251938e+002
1.415543e+003,1.267151e+002
1.416507e+003,1.279439e+002
1.417471e+003,1.292394e+002
1.418436e+003,1.306322e+002
1.419400e+003,1.316595e+002
1.420364e+003,1.318387e+002
1.421328e+003,1.315351e+002
1.422292e+003,1.319341e+002
1.423257e+003,1.331837e+002
1.424221e+003,1.340745e+002
1.425185e+003,1.336080e+002
1.426149e+003,1.335839e+002
1.427114e+003,1.354948e+002
1.428078e+003,1.377896e+002
1.429042e+003,1.384375e+002
1.430006e+003,1.377830e+002
1.430971e+003,1.378605e+002
1.431935e+003,1.396784e+002
1.432899e+003,1.417209e+002
1.433863e+003,1.417143e+002
1.434828e+003,1.400183e+002
1.435792e+003,1.403005e+002
1.436756e+003,1.439641e+002
1.437720e+003,1.458263e+002
1.438684e+003,1.446303e+002
1.439649e+003,1.430533e+002
1.440613e+003,1.423710e+002
1.441577e+003,1.424321e+002
1.442541e+003,1.427367e+002
1.443506e+003,1.431123e+002
1.444470e+003,1.440605e+002
1.445434e+003,1.463500e+002
1.446398e+003,1.482805e+002
1.447363e+003,1.460437e+002
1.448327e+003,1.417373e+002
1.449291e+003,1.416134e+002
1.450255e+003,1.462733e+002
1.451219e+003,1.504075e+002
1.452184e+003,1.514061e+002
1.453148e+003,1.506148e+002
1.454112e+003,1.491403e+002
1.455076e+003,1.472295e+002
1.456041e+003,1.466084e+002
1.457005e+003,1.477437e+002
1.457969e+003,1.497015e+002
1.458933e+003,1.537359e+002
1.459898e+003,1.566396e+002
1.460862e+003,1.550421e+002
1.461826e+003,1.515171e+002
1.462790e+003,1.499469e+002
1.463755e+003,1.510527e+002
1.464719e+003,1.533739e+002
1.465683e+003,1.559591e+002
1.466647e+003,1.583246e+002
1.467611e+003,1.592315e+002
1.468576e+003,1.584770e+002
1.469540e+003,1.571903e+002
1.470504e+003,1.536816e+002
1.471468e+003,1.525944e+002
1.472433e+003,1.566529e+002
1.473397e+003,1.609432e+002
1.474361e+003,1.623531e+002
1.475325e+003,1.619875e+002
1.476290e+003,1.620615e+002
1.477254e+003,1.629886e+002
1.478218e+003,1.633105e+002
1.479182e+003,1.618880e+002
1.480146e+003,1.598044e+002
1.481111e+003,1.594833e+002
1.482075e+003,1.611006e+002
1.483039e+003,1.617586e+002
1.484003e+003,1.611142e+002
1.484968e+003,1.601564e+002
1.485932e+003,1.583635e+002
1.486896e+003,1.573437e+002
1.487860e+003,1.589180e+002
1.488825e+003,1.619951e+002
1.489789e+003,1.641624e+002
1.490753e+003,1.648624e+002
1.491717e+003,1.648829e+002
1.492682e+003,1.644645e+002
1.493646e+003,1.641118e+002
1.494610e+003,1.647823e+002
1.495574e+003,1.661930e+002
1.496538e+003,1.679517e+002
1.497503e+003,1.703356e+002
1.498467e+003,1.711823e+002
1.499431e+003,1.679322e+002
1.500395e+003,1.635846e+002
1.501360e+003,1.620086e+002
1.502324e+003,1.629347e+002
1.503288e+003,1.649410e+002
1.504252e+003,1.681102e+002
1.505217e+003,1.698559e+002
1.506181e+003,1.680512e+002
1.507145e+003,1.655473e+002
1.508109e+003,1.643605e+002
1.509073e+003,1.642664e+002
1.510038e+003,1.651882e+002
1.511002e+003,1.668887e+002
1.511966e+003,1.682793e+002
1.512930e+003,1.687109e+002
1.513895e+003,1.686758e+002
1.514859e+003,1.690350e+002
1.515823e+003,1.696286e+002
1.516787e+003,1.688233e+002
1.517752e+003,1.658137e+002
1.518716e+003,1.639527e+002
1.519680e+003,1.650023e+002
1.520644e+003,1.659946e+002
1.521609e+003,1.660833e+002
1.522573e+003,1.651026e+002
1.523537e+003,1.620870e+002
1.524501e+003,1.580564e+002
1.525465e+003,1.561219e+002
1.526430e+003,1.578938e+002
1.527394e+003,1.611701e+002
1.528358e+003,1.628166e+002
1.529322e+003,1.628776e+002
1.530287e+003,1.611653e+002
1.531251e+003,1.548012e+002
1.532215e+003,1.526763e+002
1.533179e+003,1.585647e+002
1.534144e+003,1.635973e+002
1.535108e+003,1.641336e+002
1.536072e+003,1.622523e+002
1.537036e+003,1.597999e+002
1.538000e+003,1.573719e+002
1.538965e+003,1.552040e+002
1.539929e+003,1.533389e+002
1.540893e+003,1.515274e+002
1.541857e+003,1.495216e+002
1.542822e+003,1.476446e+002
1.543786e+003,1.466857e+002
1.544750e+003,1.467897e+002
1.545714e+003,1.469669e+002
1.546679e+003,1.471370e+002
1.547643e+003,1.473387e+002
1.548607e+003,1.481826e+002
1.549571e+003,1.487950e+002
1.550536e+003,1.477681e+002
1.551500e+003,1.455994e+002
1.552464e+003,1.441236e+002
1.553428e+003,1.439814e+002
1.554392e+003,1.440203e+002
1.555357e+003,1.430890e+002
1.556321e+003,1.419774e+002
1.557285e+003,1.429462e+002
1.558249e+003,1.458299e+002
1.559214e+003,1.460996e+002
1.560178e+003,1.426282e+002
1.561142e+003,1.395976e+002
1.562106e+003,1.379264e+002
1.563071e+003,1.373850e+002
1.564035e+003,1.392218e+002
1.564999e+003,1.419021e+002
1.565963e+003,1.410273e+002
1.566927e+003,1.361096e+002
1.567892e+003,1.321775e+002
1.568856e+003,1.317519e+002
1.569820e+003,1.331849e+002
1.570784e+003,1.356752e+002
1.571749e+003,1.381496e+002
1.572713e+003,1.380235e+002
1.573677e+003,1.353897e+002
1.574641e+003,1.319538e+002
1.575606e+003,1.270036e+002
1.576570e+003,1.235547e+002
1.577534e+003,1.258020e+002
1.578498e+003,1.305040e+002
1.579463e+003,1.310576e+002
1.580427e+003,1.274196e+002
1.581391e+003,1.238936e+002
1.582355e+003,1.215895e+002
1.583319e+003,1.199785e+002
1.584284e+003,1.191458e+002
1.585248e+003,1.186198e+002
1.586212e+003,1.173911e+002
1.587176e+003,1.156558e+002
1.588141e+003,1.143691e+002
1.589105e+003,1.138512e+002
1.590069e+003,1.140506e+002
1.591033e+003,1.155505e+002
1.591998e+003,1.168198e+002
1.592962e+003,1.150604e+002
1.593926e+003,1.109410e+002
1.594890e+003,1.083506e+002
1.595854e+003,1.079350e+002
1.596819e+003,1.079342e+002
1.597783e+003,1.083250e+002
1.598747e+003,1.077187e+002
1.599711e+003,1.039677e+002
1.600676e+003,9.939818e+001
1.601640e+003,9.690456e+001
1.602604e+003,9.649969e+001
1.603568e+003,9.705379e+001
1.604533e+003,9.820110e+001
1.605497e+003,9.842944e+001
1.606461e+003,9.543980e+001
1.607425e+003,9.083211e+001
1.608390e+003,8.936965e+001
1.609354e+003,9.123727e+001
1.610318e+003,9.246163e+001
1.611282e+003,9.219285e+001
1.612246e+003,9.139449e+001
1.613211e+003,9.040214e+001
1.614175e+003,8.911742e+001
1.615139e+003,8.761948e+001
1.616103e+003,8.588202e+001
1.617068e+003,8.318156e+001
1.618032e+003,7.984789e+001
1.618996e+003,7.842644e+001
1.619960e+003,8.055825e+001
1.620925e+003,8.361139e+001
1.621889e+003,8.421592e+001
1.622853e+003,8.261977e+001
1.623817e+003,7.972434e+001
1.624781e+003,7.516042e+001
1.625746e+003,7.221954e+001
1.626710e+003,7.263141e+001
1.627674e+003,7.272829e+001
1.628638e+003,6.965627e+001
1.629603e+003,6.635266e+001
1.630567e+003,6.579321e+001
1.631531e+003,6.690221e+001
1.632495e+003,6.713075e+001
1.633460e+003,6.588994e+001
1.634424e+003,6.400703e+001
1.635388e+003,6.185394e+001
1.636352e+003,5.992788e+001
1.637317e+003,5.949357e+001
1.638281e+003,6.039085e+001
1.639245e+003,6.013338e+001
1.640209e+003,5.822123e+001
1.641173e+003,5.684529e+001
1.642138e+003,5.745598e+001
1.643102e+003,5.752427e+001
1.644066e+003,5.511361e+001
1.645030e+003,5.212783e+001
1.645995e+003,5.036124e+001
1.646959e+003,4.963724e+001
1.647923e+003,4.908644e+001
1.648887e+003,4.841920e+001
1.649852e+003,4.777127e+001
1.650816e+003,4.732069e+001
1.651780e+003,4.679233e+001
1.652744e+003,4.524508e+001
1.653708e+003,4.275416e+001
1.654673e+003,4.212392e+001
1.655637e+003,4.421698e+001
1.656601e+003,4.552235e+001
1.657565e+003,4.481803e+001
1.658530e+003,4.338270e+001
1.659494e+003,4.132822e+001
1.660458e+003,3.937114e+001
1.661422e+003,3.839941e+001
1.662387e+003,3.822478e+001
1.663351e+003,3.812689e+001
1.664315e+003,3.785740e+001
1.665279e+003,3.745501e+001
1.666244e+003,3.694878e+001
1.667208e+003,3.638462e+001
1.668172e+003,3.591938e+001
1.669136e+003,3.547897e+001
1.670100e+003,3.423832e+001
1.671065e+003,3.181061e+001
1.672029e+003,2.993571e+001
1.672993e+003,2.937247e+001
1.673957e+003,2.938906e+001
1.674922e+003,2.963184e+001
1.675886e+003,2.997240e+001
1.676850e+003,3.054945e+001
1.677814e+003,3.111152e+001
1.678779e+003,3.080667e+001
1.679743e+003,2.937031e+001
1.680707e+003,2.772548e+001
1.681671e+003,2.644133e+001
1.682635e+003,2.551588e+001
1.683600e+003,2.512934e+001
1.684564e+003,2.519573e+001
1.685528e+003,2.488593e+001
1.686492e+003,2.399251e+001
1.687457e+003,2.322632e+001
1.688421e+003,2.307059e+001
1.689385e+003,2.278509e+001
1.690349e+003,2.136033e+001
1.691314e+003,1.987400e+001
1.692278e+003,1.990392e+001
1.693242e+003,2.092224e+001
1.694206e+003,2.083812e+001
1.695171e+003,1.907953e+001
1.696135e+003,1.705919e+001
1.697099e+003,1.528355e+001
1.698063e+003,1.408904e+001
1.699027e+003,1.428325e+001
1.699992e+003,1.538539e+001
1.700956e+003,1.567105e+001
1.701920e+003,1.498007e+001
1.702884e+003,1.504496e+001
1.703849e+003,1.683539e+001
1.704813e+003,1.794210e+001
1.705777e+003,1.591029e+001
1.706741e+003,1.271143e+001
1.707706e+003,1.179593e+001
1.708670e+003,1.257339e+001
1.709634e+003,1.260627e+001
1.710598e+003,1.143663e+001
1.711563e+003,1.047437e+001
1.712527e+003,1.061015e+001
1.713491e+003,1.083099e+001
1.714455e+003,1.002530e+001
1.715419e+003,8.932947e+000
1.716384e+003,8.941663e+000
1.717348e+003,9.938660e+000
1.718312e+003,1.084022e+001
1.719276e+003,1.130089e+001
1.720241e+003,1.132792e+001
1.721205e+003,1.091047e+001
1.722169e+003,1.012487e+001
1.723133e+003,8.938611e+000
1.724098e+003,7.524512e+000
1.725062e+003,6.938879e+000
1.726026e+003,7.356323e+000
1.726990e+003,7.551294e+000
1.727954e+003,7.012323e+000
1.728919e+003,6.626904e+000
1.729883e+003,7.378143e+000
1.730847e+003,7.991284e+000
1.731811e+003,6.485248e+000
1.732776e+003,4.003009e+000
1.733740e+003,3.644525e+000
1.734704e+003,5.635272e+000
1.735668e+003,6.903204e+000
1.736633e+003,5.658630e+000
1.737597e+003,3.379434e+000
1.738561e+003,1.924176e+000
1.739525e+003,1.327805e+000
1.740490e+003,1.703113e+000
1.741454e+003,3.523401e+000
1.742418e+003,4.413171e+000
1.743382e+003,3.609375e+000
1.744346e+003,3.055191e+000
1.745311e+003,3.578094e+000
1.746275e+003,3.837610e+000
1.747239e+003,2.529434e+000
1.748203e+003,8.996429e-001
1.749168e+003,5.393097e-001
1.750132e+003,1.375204e+000
1.751096e+003,2.655664e+000
1.752060e+003,3.912549e+000
1.753025e+003,4.609015e+000
1.753989e+003,4.249103e+000
1.754953e+003,3.112845e+000
1.755917e+003,1.666852e+000
1.756881e+003,-1.167206e-001
1.757846e+003,-9.358703e-001
1.758810e+003,-5.229828e-001
1.759774e+003,2.333313e-001
1.760738e+003,1.577710e+000
1.761703e+003,2.610217e+000
1.762667e+003,2.917426e+000
1.763631e+003,2.903375e+000
1.764595e+003,3.159082e+000
1.765560e+003,3.275458e+000
1.766524e+003,1.975687e+000
1.767488e+003,-5.530945e-001
1.768452e+003,-1.978302e+000
1.769417e+003,-9.749908e-001
1.770381e+003,8.720551e-001
1.771345e+003,2.110324e+000
1.772309e+003,2.678030e+000
1.773273e+003,2.120129e+000
1.774238e+003,5.609894e-001
1.775202e+003,-2.350952e-001
1.776166e+003,8.416138e-002
1.777130e+003,4.130371e-001
1.778095e+003,2.232666e-001
1.779059e+003,2.127655e-001
1.780023e+003,1.421194e+000
1.780987e+003,2.831314e+000
1.781952e+003,2.606836e+000
1.782916e+003,9.895569e-001
1.783880e+003,-5.961059e-001
1.784844e+003,-1.993457e+000
1.785808e+003,-2.830624e+000
1.786773e+003,-2.566242e+000
1.787737e+003,-2.136047e+000
1.788701e+003,-2.532340e+000
1.789665e+003,-3.063782e+000
1.790630e+003,-2.142404e+000
1.791594e+003,-4.141296e-001
1.792558e+003,-7.011444e-001
1.793522e+003,-3.492319e+000
1.794487e+003,-5.685034e+000
1.795451e+003,-5.323578e+000
1.796415e+003,-3.525482e+000
1.797379e+003,-1.584695e+000
1.798344e+003,1.466431e-001
1.799308e+003,-5.637207e-002
1.800272e+003,-3.210452e+000
1.801236e+003,-4.449356e+000
1.802201e+003,-2.014285e+000
1.803165e+003,-4.427795e-001
1.804129e+003,-7.533966e-001
1.805093e+003,-1.633994e+000
1.806057e+003,-3.030185e+000
1.807022e+003,-4.142667e+000
1.807986e+003,-3.957858e+000
1.808950e+003,-2.802283e+000
1.809914e+003,-1.446805e+000
1.810879e+003,-3.190247e-001
1.811843e+003,6.405639e-003
1.812807e+003,-9.386963e-001
1.813771e+003,-2.305856e+000
1.814736e+003,-2.655783e+000
1.815700e+003,-2.199774e+000
1.816664e+003,-2.319235e+000
1.817628e+003,-3.113937e+000
1.818593e+003,-3.624512e+000
1.819557e+003,-3.675290e+000
1.820521e+003,-3.518658e+000
1.821485e+003,-3.137631e+000
1.822449e+003,-2.744232e+000
1.823414e+003,-2.333389e+000
1.824378e+003,-2.182904e+000
1.825342e+003,-3.145575e+000
1.826306e+003,-4.663309e+000
1.827271e+003,-4.365283e+000
1.828235e+003,-1.535342e+000
1.829199e+003,8.460633e-001
1.830163e+003,1.361316e+000
1.831128e+003,7.720855e-001
1.832092e+003,-1.113977e+000
1.833056e+003,-3.185992e+000
1.834020e+003,-3.345697e+000
1.834984e+003,-2.125629e+000
1.835949e+003,-1.599515e+000
1.836913e+003,-2.166467e+000
1.837877e+003,-3.119409e+000
1.838841e+003,-4.140805e+000
1.839806e+003,-4.630606e+000
1.840770e+003,-3.799396e+000
1.841734e+003,-2.192511e+000
1.842698e+003,-1.390137e+000
1.843663e+003,-1.392615e+000
1.844627e+003,-1.777249e+000
1.845591e+003,-3.294894e+000
1.846555e+003,-4.049500e+000
1.847520e+003,-3.341412e+000
1.848484e+003,-2.799084e+000
1.849448e+003,-3.249539e+000
1.850412e+003,-3.803348e+000
1.851376e+003,-3.816806e+000
1.852341e+003,-3.359027e+000
1.853305e+003,-2.480472e+000
1.854269e+003,-1.410983e+000
1.855233e+003,-7.061523e-001
1.856198e+003,-5.938904e-001
1.857162e+003,-7.641327e-001
1.858126e+003,-1.014511e+000
1.859090e+003,-1.173706e+000
1.860055e+003,-5.877716e-001
1.861019e+003,4.038269e-001
1.861983e+003,-4.231720e-001
1.862947e+003,-3.245758e+000
1.863911e+003,-4.731936e+000
1.864876e+003,-3.830093e+000
1.865840e+003,-2.514456e+000
1.866804e+003,-1.627579e+000
1.867768e+003,-1.287793e+000
1.868733e+003,-2.149014e+000
1.869697e+003,-3.507245e+000
1.870661e+003,-2.829251e+000
1.871625e+003,-9.512024e-002
1.872590e+003,8.391571e-001
1.873554e+003,-1.753290e+000
1.874518e+003,-3.418985e+000
1.875482e+003,-2.403668e+000
1.876447e+003,-7.280090e-001
1.877411e+003,1.233624e+000
1.878375e+003,2.556946e+000
1.879339e+003,1.486655e+000
1.880303e+003,-8.195923e-001
1.881268e+003,-1.594311e+000
1.882232e+003,-5.292175e-001
1.883196e+003,3.960388e-001
1.884160e+003,1.163727e-001
1.885125e+003,-6.487305e-001
1.886089e+003,-1.171234e+000
1.887053e+003,-1.399463e+000
1.888017e+003,-9.839722e-001
1.888982e+003,1.026581e-001
1.889946e+003,7.546142e-001
1.890910e+003,9.650024e-001
1.891874e+003,7.703522e-001
1.892839e+003,-3.414001e-002
1.893803e+003,-8.570099e-001
1.894767e+003,-1.661139e+000
1.895731e+003,-2.039661e+000
1.896695e+003,-1.268845e+000
1.897660e+003,-4.020996e-002
1.898624e+003,4.569031e-001
1.899588e+003,2.604584e-001
1.900552e+003,1.556244e-001
1.901517e+003,3.302368e-001
1.902481e+003,3.203034e-001
1.903445e+003,-3.369324e-001
1.904409e+003,-8.311432e-001
1.905374e+003,-4.658051e-001
1.906338e+003,2.677216e-001
1.907302e+003,8.819183e-001
1.908266e+003,1.246414e+000
1.909230e+003,1.278903e+000
1.910195e+003,9.963257e-001
1.911159e+003,3.087891e-001
1.912123e+003,-6.969970e-001
1.913087e+003,-1.003738e+000
1.914052e+003,4.003876e-001
1.915016e+003,2.387414e+000
1.915980e+003,2.550314e+000
1.916944e+003,1.059155e+000
1.917909e+003,1.361694e-001
1.918873e+003,-1.224396e-001
1.919837e+003,-2.306610e-001
1.920801e+003,-1.828003e-001
1.921766e+003,-2.239319e-001
1.922730e+003,-6.974304e-001
1.923694e+003,-9.710236e-001
1.924658e+003,-8.339844e-002
1.925622e+003,9.471893e-001
1.926587e+003,7.859253e-001
1.927551e+003,-2.694000e-001
1.928515e+003,-1.315405e+000
1.929479e+003,-2.308127e+000
1.930444e+003,-2.575732e+000
1.931408e+003,-1.292865e+000
1.932372e+003,-2.901367e-001
1.933336e+003,-6.656739e-001
1.934301e+003,-1.375253e+000
1.935265e+003,-1.681830e+000
1.936229e+003,-1.666669e+000
1.937193e+003,-1.542041e+000
1.938157e+003,-1.312701e+000
1.939122e+003,-8.416016e-001
1.940086e+003,-1.038116e-001
1.941050e+003,9.014313e-001
1.942014e+003,2.134619e+000
1.942979e+003,2.842401e+000
1.943943e+003,1.966016e+000
1.944907e+003,3.151428e-001
1.945871e+003,3.458923e-001
1.946836e+003,1.973175e+000
1.947800e+003,2.736820e+000
1.948764e+003,2.443863e+000
1.949728e+003,2.088928e+000
1.950693e+003,1.833032e+000
1.951657e+003,1.641931e+000
1.952621e+003,1.706772e+000
1.953585e+003,1.534369e+000
1.954549e+003,3.717926e-001
1.955514e+003,-1.207346e+000
1.956478e+003,-2.000754e+000
1.957442e+003,-2.030444e+000
1.958406e+003,-1.537097e+000
1.959371e+003,-1.872589e-001
1.960335e+003,6.835968e-001
1.961299e+003,1.762146e-001
1.962263e+003,2.171234e-001
1.963228e+003,2.590976e+000
1.964192e+003,4.478082e+000
1.965156e+003,2.890561e+000
1.966120e+003,3.855316e-001
1.967084e+003,6.195251e-001
1.968049e+003,2.858209e+000
1.969013e+003,4.187970e+000
1.969977e+003,3.900857e+000
1.970941e+003,3.368137e+000
1.971906e+003,3.373248e+000
1.972870e+003,3.583063e+000
1.973834e+003,3.798544e+000
1.974798e+003,3.880566e+000
1.975763e+003,3.445108e+000
1.976727e+003,2.640839e+000
1.977691e+003,1.847284e+000
1.978655e+003,1.161728e+000
1.979620e+003,1.082404e+000
1.980584e+003,1.717075e+000
1.981548e+003,2.095599e+000
1.982512e+003,1.634201e+000
1.983476e+003,1.432431e+000
1.984441e+003,2.777512e+000
1.985405e+003,4.721692e+000
1.986369e+003,4.950363e+000
1.987333e+003,3.536099e+000
1.988298e+003,2.579651e+000
1.989262e+003,2.011459e+000
1.990226e+003,1.942780e+000
1.991190e+003,2.409296e+000
1.992155e+003,3.388351e+000
1.993119e+003,6.412415e+000
1.994083e+003,8.080622e+000
1.995047e+003,5.189706e+000
1.996011e+003,1.257202e+000
1.996976e+003,-2.156189e-001
1.997940e+003,2.168549e-001
1.998904e+003,1.146094e+000
1.999868e+003,2.379379e+000
2.000833e+003,3.398331e+000
2.001797e+003,4.057742e+000
2.002761e+003,4.443118e+000
2.003725e+003,4.635638e+000
2.004690e+003,4.531595e+000
2.005654e+003,3.662643e+000
2.006618e+003,2.825232e+000
2.007582e+003,3.073102e+000
2.008547e+003,3.848642e+000
2.009511e+003,4.163199e+000
2.010475e+003,3.915918e+000
2.011439e+003,3.458267e+000
2.012403e+003,2.930911e+000
2.013368e+003,2.296973e+000
2.014332e+003,1.521078e+000
2.015296e+003,7.945343e-001
2.016260e+003,1.448181e-001
2.017225e+003,-1.018799e-001
2.018189e+003,1.257397e+000
2.019153e+003,3.651953e+000
2.020117e+003,4.680472e+000
2.021082e+003,4.280640e+000
2.022046e+003,4.066644e+000
2.023010e+003,4.472998e+000
2.023974e+003,4.923822e+000
2.024938e+003,5.087189e+000
2.025903e+003,5.080704e+000
2.026867e+003,5.037982e+000
2.027831e+003,4.923447e+000
2.028795e+003,4.628345e+000
2.029760e+003,4.212198e+000
2.030724e+003,4.377512e+000
2.031688e+003,5.365787e+000
2.032652e+003,5.824079e+000
2.033617e+003,5.762433e+000
2.034581e+003,4.999350e+000
2.035545e+003,2.445883e+000
2.036509e+003,9.617127e-001
2.037474e+003,2.997906e+000
2.038438e+003,5.864038e+000
2.039402e+003,6.896936e+000
2.040366e+003,6.663709e+000
2.041330e+003,6.238367e+000
2.042295e+003,5.691607e+000
2.043259e+003,5.336539e+000
2.044223e+003,5.138883e+000
2.045187e+003,5.302829e+000
2.046152e+003,6.236524e+000
2.047116e+003,6.995416e+000
2.048080e+003,6.882184e+000
2.049044e+003,6.794531e+000
2.050009e+003,7.861749e+000
2.050973e+003,9.004034e+000
2.051937e+003,8.805041e+000
2.052901e+003,7.624121e+000
2.053865e+003,6.274432e+000
2.054830e+003,5.081766e+000
2.055794e+003,4.682513e+000
2.056758e+003,5.457138e+000
2.057722e+003,6.138928e+000
2.058687e+003,5.695114e+000
2.059651e+003,4.912186e+000
2.060615e+003,4.486368e+000
2.061579e+003,4.170783e+000
2.062544e+003,3.418271e+000
2.063508e+003,2.697675e+000
2.064472e+003,3.219608e+000
2.065436e+003,4.695453e+000
2.066401e+003,5.614160e+000
2.067365e+003,5.536743e+000
2.068329e+003,5.313547e+000
2.069293e+003,5.493616e+000
2.070258e+003,5.513782e+000
2.071222e+003,4.546301e+000
2.072186e+003,3.380313e+000
2.073150e+003,3.879843e+000
2.074115e+003,5.657815e+000
2.075079e+003,7.208411e+000
2.076043e+003,8.404828e+000
2.077007e+003,8.745020e+000
2.077971e+003,8.233221e+000
2.078936e+003,8.024347e+000
2.079900e+003,8.541821e+000
2.080864e+003,8.444036e+000
2.081828e+003,6.669244e+000
2.082792e+003,4.849231e+000
2.083757e+003,5.384149e+000
2.084721e+003,7.414533e+000
2.085685e+003,7.825964e+000
2.086649e+003,6.531110e+000
2.087614e+003,6.474261e+000
2.088578e+003,8.075360e+000
2.089542e+003,8.823224e+000
2.090506e+003,8.129596e+000
2.091471e+003,7.359729e+000
2.092435e+003,6.693115e+000
2.093399e+003,6.918390e+000
2.094363e+003,9.302637e+000
2.095328e+003,1.169536e+001
2.096292e+003,1.092808e+001
2.097256e+003,7.995648e+000
2.098220e+003,6.397967e+000
2.099185e+003,6.245581e+000
2.100149e+003,6.888202e+000
2.101113e+003,9.108551e+000
2.102077e+003,1.057370e+001
2.103042e+003,1.161344e+001
2.104006e+003,1.131841e+001
2.104970e+003,7.705847e+000
2.105934e+003,4.842242e+000
2.106898e+003,5.574912e+000
2.107863e+003,7.514319e+000
2.108827e+003,8.375982e+000
2.109791e+003,8.505829e+000
2.110755e+003,9.051593e+000
2.111719e+003,9.959790e+000
2.112684e+003,9.456866e+000
2.113648e+003,6.525580e+000
2.114612e+003,4.546329e+000
2.115576e+003,4.632342e+000
2.116541e+003,5.123609e+000
2.117505e+003,5.660077e+000
2.118469e+003,6.200757e+000
2.119433e+003,6.908453e+000
2.120398e+003,7.476733e+000
2.121362e+003,7.660309e+000
2.122326e+003,7.366516e+000
2.123290e+003,6.091748e+000
2.124255e+003,4.246063e+000
2.125219e+003,3.799063e+000
2.126183e+003,5.410409e+000
2.127147e+003,6.806537e+000
2.128112e+003,6.778601e+000
2.129076e+003,6.610059e+000
2.130040e+003,7.103559e+000
2.131004e+003,7.564307e+000
2.131969e+003,7.585144e+000
2.132933e+003,7.099817e+000
2.133897e+003,5.725488e+000
2.134861e+003,4.095050e+000
2.135825e+003,3.165619e+000
2.136790e+003,3.011405e+000
2.137754e+003,3.337271e+000
2.138718e+003,4.003629e+000
2.139682e+003,4.694425e+000
2.140646e+003,5.290011e+000
2.141611e+003,5.660562e+000
2.142575e+003,5.520755e+000
2.143539e+003,5.218103e+000
2.144503e+003,5.436700e+000
2.145468e+003,5.543872e+000
2.146432e+003,3.882318e+000
2.147396e+003,1.749167e+000
2.148360e+003,2.113702e+000
2.149325e+003,4.583765e+000
2.150289e+003,6.808655e+000
2.151253e+003,7.853381e+000
2.152217e+003,7.472247e+000
2.153182e+003,5.516290e+000
2.154146e+003,3.558319e+000
2.155110e+003,3.078644e+000
2.156074e+003,3.368308e+000
2.157039e+003,3.896313e+000
2.158003e+003,4.218997e+000
2.158967e+003,3.302597e+000
2.159931e+003,1.836920e+000
2.160896e+003,1.246933e+000
2.161860e+003,1.621884e+000
2.162824e+003,2.740561e+000
2.163788e+003,4.301679e+000
2.164752e+003,5.530557e+000
2.165717e+003,6.009784e+000
2.166681e+003,5.659042e+000
2.167645e+003,4.251819e+000
2.168609e+003,2.674829e+000
2.169573e+003,2.236340e+000
2.170538e+003,2.484219e+000
2.171502e+003,2.547336e+000
2.172466e+003,2.511765e+000
2.173430e+003,2.931860e+000
2.174395e+003,3.523083e+000
2.175359e+003,2.944928e+000
2.176323e+003,1.257214e+000
2.177287e+003,1.892395e-002
2.178252e+003,-1.623871e-001
2.179216e+003,1.517853e-001
2.180180e+003,5.817016e-001
2.181144e+003,1.050250e+000
2.182109e+003,1.515759e+000
2.183073e+003,1.773825e+000
2.184037e+003,1.168961e+000
2.185001e+003,1.981384e-001
2.185966e+003,4.860199e-001
2.186930e+003,1.542404e+000
2.187894e+003,1.208398e+000
2.188858e+003,-3.777466e-001
2.189823e+003,-1.093036e+000
2.190787e+003,-4.514252e-001
2.191751e+003,4.834686e-001
2.192715e+003,1.118054e+000
2.193679e+003,1.099713e+000
2.194644e+003,-7.662964e-002
2.195608e+003,-1.316364e+000
2.196572e+003,-2.421661e-001
2.197536e+003,1.793365e+000
2.198500e+003,1.041562e+000
2.199465e+003,-1.411227e+000
2.200429e+003,-2.494946e+000
2.201393e+003,-2.157806e+000
2.202357e+003,-9.027985e-001
2.203322e+003,7.741516e-001
2.204286e+003,1.147580e+000
2.205250e+003,-2.824310e-001
2.206214e+003,-1.997787e+000
2.207179e+003,-2.964517e+000
2.208143e+003,-3.053580e+000
2.209107e+003,-1.759207e+000
2.210071e+003,-2.970611e-001
2.211036e+003,-1.428595e+000
2.212000e+003,-3.847308e+000
2.212964e+003,-4.341232e+000
2.213928e+003,-3.346542e+000
2.214893e+003,-2.155850e+000
2.215857e+003,-1.094278e+000
2.216821e+003,-5.532104e-001
2.217785e+003,-6.316345e-001
2.218750e+003,-1.281393e+000
2.219714e+003,-2.392682e+000
2.220678e+003,-3.248212e+000
2.221642e+003,-3.245349e+000
2.222606e+003,-2.798090e+000
2.223571e+003,-2.382947e+000
2.224535e+003,-2.012631e+000
2.225499e+003,-1.565765e+000
2.226463e+003,-1.234863e+000
2.227427e+003,-1.778046e+000
2.228392e+003,-2.674954e+000
2.229356e+003,-2.132165e+000
2.230320e+003,-5.160248e-001
2.231284e+003,-1.611176e-001
2.232249e+003,-1.520764e+000
2.233213e+003,-2.834927e+000
2.234177e+003,-3.173669e+000
2.235141e+003,-3.291263e+000
2.236106e+003,-3.933820e+000
2.237070e+003,-4.322885e+000
2.238034e+003,-3.120630e+000
2.238998e+003,-1.483749e+000
2.239963e+003,-9.318390e-001
2.240927e+003,-1.138754e+000
2.241891e+003,-1.925488e+000
2.242855e+003,-2.721268e+000
2.243820e+003,-2.034378e+000
2.244784e+003,-3.713714e-001
2.245748e+003,-1.349274e-001
2.246712e+003,-1.815738e+000
2.247677e+003,-3.622278e+000
2.248641e+003,-4.650146e+000
2.249605e+003,-4.544379e+000
2.250569e+003,-2.317712e+000
2.251533e+003,2.424011e-002
2.252498e+003,6.643097e-001
2.253462e+003,4.374756e-001
2.254426e+003,-8.617859e-002
2.255390e+003,-6.436981e-001
2.256354e+003,-8.903046e-001
2.257319e+003,-1.015506e+000
2.258283e+003,-1.370087e+000
2.259247e+003,-1.982333e+000
2.260211e+003,-2.877209e+000
2.261176e+003,-3.967169e+000
2.262140e+003,-4.500519e+000
2.263104e+003,-4.041678e+000
2.264068e+003,-3.492917e+000
2.265033e+003,-3.427371e+000
2.265997e+003,-3.326898e+000
2.266961e+003,-2.675842e+000
2.267925e+003,-2.116336e+000
2.268890e+003,-2.187241e+000
2.269854e+003,-2.588309e+000
2.270818e+003,-3.031311e+000
2.271782e+003,-3.476346e+000
2.272747e+003,-3.992831e+000
2.273711e+003,-4.516211e+000
2.274675e+003,-4.837793e+000
2.275639e+003,-4.918304e+000
2.276604e+003,-4.788638e+000
2.277568e+003,-3.937644e+000
2.278532e+003,-3.968851e+000
2.279496e+003,-6.620865e+000
2.280460e+003,-8.391657e+000
2.281425e+003,-7.204126e+000
2.282389e+003,-5.771985e+000
2.283353e+003,-5.729132e+000
2.284317e+003,-6.053009e+000
2.285281e+003,-5.534030e+000
2.286246e+003,-4.816836e+000
2.287210e+003,-5.432364e+000
2.288174e+003,-7.038635e+000
2.289138e+003,-7.166070e+000
2.290103e+003,-5.222888e+000
2.291067e+003,-4.605768e+000
2.292031e+003,-6.212778e+000
2.292995e+003,-7.420133e+000
2.293960e+003,-8.507553e+000
2.294924e+003,-8.487689e+000
2.295888e+003,-6.483545e+000
2.296852e+003,-4.479514e+000
2.297817e+003,-3.189557e+000
2.298781e+003,-2.736575e+000
2.299745e+003,-3.517956e+000
2.300709e+003,-4.692603e+000
2.301674e+003,-4.736505e+000
2.302638e+003,-4.067679e+000
2.303602e+003,-4.865359e+000
2.304566e+003,-7.344046e+000
2.305531e+003,-8.238943e+000
2.306495e+003,-7.280768e+000
2.307459e+003,-6.556360e+000
2.308423e+003,-6.312210e+000
2.309387e+003,-5.844528e+000
2.310352e+003,-4.910498e+000
2.311316e+003,-4.827042e+000
2.312280e+003,-6.288037e+000
2.313244e+003,-7.511649e+000
2.314208e+003,-7.016065e+000
2.315173e+003,-5.560236e+000
2.316137e+003,-3.986746e+000
2.317101e+003,-2.889774e+000
2.318065e+003,-4.728131e+000
2.319030e+003,-8.246668e+000
2.319994e+003,-7.660031e+000
2.320958e+003,-4.202548e+000
2.321922e+003,-3.403039e+000
2.322887e+003,-5.115653e+000
2.323851e+003,-5.904831e+000
2.324815e+003,-5.240680e+000
2.325779e+003,-4.777869e+000
2.326744e+003,-5.145554e+000
2.327708e+003,-5.684186e+000
2.328672e+003,-5.986221e+000
2.329636e+003,-6.404733e+000
2.330601e+003,-7.491412e+000
2.331565e+003,-8.448141e+000
2.332529e+003,-8.202383e+000
2.333493e+003,-7.510361e+000
2.334458e+003,-7.295474e+000
2.335422e+003,-7.199903e+000
2.336386e+003,-6.605691e+000
2.337350e+003,-5.715698e+000
2.338314e+003,-4.695016e+000
2.339279e+003,-3.905139e+000
2.340243e+003,-4.448111e+000
2.341207e+003,-6.256711e+000
2.342171e+003,-6.929205e+000
2.343135e+003,-5.377124e+000
2.344100e+003,-4.279294e+000
2.345064e+003,-5.267016e+000
2.346028e+003,-5.918039e+000
2.346992e+003,-4.755090e+000
2.347957e+003,-3.877023e+000
2.348921e+003,-4.819894e+000
2.349885e+003,-5.879706e+000
2.350849e+003,-5.648746e+000
2.351814e+003,-4.985620e+000
2.352778e+003,-4.878000e+000
2.353742e+003,-5.199347e+000
2.354706e+003,-5.705020e+000
2.355671e+003,-6.314364e+000
2.356635e+003,-6.241824e+000
2.357599e+003,-5.212943e+000
2.358563e+003,-4.802051e+000
2.359528e+003,-5.387424e+000
2.360492e+003,-5.311667e+000
2.361456e+003,-4.048709e+000
2.362420e+003,-3.428647e+000
2.363385e+003,-4.049088e+000
2.364349e+003,-5.299759e+000
2.365313e+003,-7.030881e+000
2.366277e+003,-7.970474e+000
2.367241e+003,-6.832171e+000
2.368206e+003,-5.055459e+000
2.369170e+003,-5.055048e+000
2.370134e+003,-6.056705e+000
2.371098e+003,-5.589209e+000
2.372063e+003,-4.175293e+000
2.373027e+003,-3.949884e+000
2.373991e+003,-4.702390e+000
2.374955e+003,-5.993820e+000
2.375919e+003,-7.415826e+000
2.376884e+003,-7.725854e+000
2.377848e+003,-6.894116e+000
2.378812e+003,-5.807709e+000
2.379776e+003,-4.872022e+000
2.380741e+003,-4.344482e+000
2.381705e+003,-4.372513e+000
2.382669e+003,-4.502289e+000
2.383633e+003,-4.496835e+000
2.384598e+003,-4.279532e+000
2.385562e+003,-3.522317e+000
2.386526e+003,-2.924860e+000
2.387490e+003,-3.293637e+000
2.388455e+003,-3.768518e+000
2.389419e+003,-3.206882e+000
2.390383e+003,-2.456683e+000
2.391347e+003,-2.818399e+000
2.392312e+003,-3.959094e+000
2.393276e+003,-5.015710e+000
2.394240e+003,-5.849832e+000
2.395204e+003,-6.326575e+000
2.396168e+003,-6.480383e+000
2.397133e+003,-5.886511e+000
2.398097e+003,-3.554892e+000
2.399061e+003,-2.415155e+000
2.400025e+003,-3.110303e+000
2.400990e+003,-3.945715e+000
2.401954e+003,-4.613211e+000
2.402918e+003,-5.220032e+000
2.403882e+003,-5.948926e+000
2.404846e+003,-6.121524e+000
2.405811e+003,-5.036154e+000
2.406775e+003,-3.580597e+000
2.407739e+003,-2.991339e+000
2.408703e+003,-3.246173e+000
2.409668e+003,-4.603378e+000
2.410632e+003,-6.598355e+000
2.411596e+003,-6.578070e+000
2.412560e+003,-5.072388e+000
2.413525e+003,-4.060693e+000
2.414489e+003,-3.763553e+000
2.415453e+003,-4.700491e+000
2.416417e+003,-6.468140e+000
2.417382e+003,-7.477872e+000
2.418346e+003,-7.374866e+000
2.419310e+003,-6.920935e+000
2.420274e+003,-6.477057e+000
2.421239e+003,-6.007464e+000
2.422203e+003,-5.418551e+000
2.423167e+003,-5.023871e+000
2.424131e+003,-5.358224e+000
2.425095e+003,-5.538428e+000
2.426060e+003,-4.634897e+000
2.427024e+003,-3.768808e+000
2.427988e+003,-4.145554e+000
2.428952e+003,-4.646570e+000
2.429917e+003,-3.937930e+000
2.430881e+003,-2.697461e+000
2.431845e+003,-1.894009e+000
2.432809e+003,-1.623434e+000
2.433773e+003,-1.901099e+000
2.434738e+003,-2.709085e+000
2.435702e+003,-4.074496e+000
2.436666e+003,-6.546991e+000
2.437630e+003,-7.538919e+000
2.438595e+003,-6.813590e+000
2.439559e+003,-5.625412e+000
2.440523e+003,-4.003760e+000
2.441487e+003,-2.506631e+000
2.442452e+003,-1.287579e+000
2.443416e+003,-1.173062e+000
2.444380e+003,-2.577887e+000
2.445344e+003,-4.460977e+000
2.446309e+003,-6.036588e+000
2.447273e+003,-6.015689e+000
2.448237e+003,-2.016183e+000
2.449201e+003,2.918839e+000
2.450166e+003,3.931326e+000
2.451130e+003,2.378333e+000
2.452094e+003,-9.298706e-001
2.453058e+003,-4.287170e+000
2.454022e+003,-4.788919e+000
2.454987e+003,-3.690826e+000
2.455951e+003,-3.523541e+000
2.456915e+003,-4.141296e+000
2.457879e+003,-4.165335e+000
2.458844e+003,-3.438248e+000
2.459808e+003,-2.634570e+000
2.460772e+003,-1.844772e+000
2.461736e+003,-1.713693e+000
2.462700e+003,-3.006580e+000
2.463665e+003,-3.967120e+000
2.464629e+003,-4.198883e+000
2.465593e+003,-4.287576e+000
2.466557e+003,-4.263446e+000
2.467522e+003,-4.427661e+000
2.468486e+003,-5.119247e+000
2.469450e+003,-5.298822e+000
2.470414e+003,-4.062323e+000
2.471379e+003,-2.601941e+000
2.472343e+003,-2.368677e+000
2.473307e+003,-2.875986e+000
2.474271e+003,-3.140298e+000
2.475236e+003,-3.234344e+000
2.476200e+003,-3.380301e+000
2.477164e+003,-3.558365e+000
2.478128e+003,-3.799365e+000
2.479093e+003,-3.974069e+000
2.480057e+003,-3.541092e+000
2.481021e+003,-2.859033e+000
2.481985e+003,-3.184470e+000
2.482949e+003,-4.257867e+000
2.483914e+003,-4.282062e+000
2.484878e+003,-2.983227e+000
2.485842e+003,-2.375595e+000
2.486806e+003,-3.350980e+000
2.487771e+003,-4.050192e+000
2.488735e+003,-3.229172e+000
2.489699e+003,-2.949756e+000
2.490663e+003,-4.928555e+000
2.491627e+003,-5.845276e+000
2.492592e+003,-3.238434e+000
2.493556e+003,-1.304651e+000
2.494520e+003,-2.411765e+000
2.495484e+003,-4.239685e+000
2.496449e+003,-5.148776e+000
2.497413e+003,-5.023877e+000
2.498377e+003,-3.448782e+000
2.499341e+003,-1.376535e+000
2.500306e+003,-1.455115e+000
2.501270e+003,-3.188278e+000
2.502234e+003,-4.711472e+000
2.503198e+003,-5.822614e+000
2.504163e+003,-5.363730e+000
2.505127e+003,-3.973846e+000
2.506091e+003,-3.799387e+000
2.507055e+003,-4.515952e+000
2.508020e+003,-4.249936e+000
2.508984e+003,-2.874854e+000
2.509948e+003,-1.566470e+000
2.510912e+003,-7.436432e-001
2.511876e+003,-3.553314e-001
2.512841e+003,-3.204712e-001
2.513805e+003,-9.159851e-001
2.514769e+003,-3.383667e+000
2.515733e+003,-4.705173e+000
2.516698e+003,-3.171085e+000
2.517662e+003,-1.805731e+000
2.518626e+003,-1.440207e+000
2.519590e+003,-1.509036e+000
2.520554e+003,-1.949603e+000
2.521519e+003,-2.256995e+000
2.522483e+003,-1.962405e+000
2.523447e+003,-1.393207e+000
2.524411e+003,-9.012024e-001
2.525376e+003,-7.768829e-001
2.526340e+003,-2.359155e+000
2.527304e+003,-4.699582e+000
2.528268e+003,-4.116651e+000
2.529233e+003,-2.008167e+000
2.530197e+003,-2.297086e+000
2.531161e+003,-3.631061e+000
2.532125e+003,-1.887503e+000
2.533090e+003,1.639038e+000
2.534054e+003,2.525534e+000
2.535018e+003,8.447449e-001
2.535982e+003,3.849487e-002
2.536947e+003,8.488312e-001
2.537911e+003,1.372644e+000
2.538875e+003,1.125497e+000
2.539839e+003,6.433288e-001
2.540803e+003,-3.722473e-001
2.541768e+003,-9.454437e-001
2.542732e+003,-7.519867e-001
2.543696e+003,-8.844177e-001
2.544660e+003,-1.867282e+000
2.545625e+003,-1.812814e+000
2.546589e+003,3.221283e-001
2.547553e+003,2.002393e+000
2.548517e+003,1.232794e+000
2.549482e+003,-4.332916e-001
2.550446e+003,-1.297260e+000
2.551410e+003,-1.391647e+000
2.552374e+003,-3.058807e-001
2.553339e+003,1.026587e+000
2.554303e+003,1.286307e+000
2.555267e+003,9.680573e-001
2.556231e+003,4.107086e-001
2.557196e+003,-7.762756e-002
2.558160e+003,-2.539337e-001
2.559124e+003,-6.767883e-002
2.560088e+003,1.166431e+000
2.561052e+003,2.724033e+000
2.562017e+003,1.673273e+000
2.562981e+003,-1.965183e+000
2.563945e+003,-3.338138e+000
2.564909e+003,-1.930777e+000
2.565874e+003,-1.174100e+000
2.566838e+003,-1.212515e+000
2.567802e+003,-4.395996e-001
2.568766e+003,1.288364e+000
2.569730e+003,2.020413e+000
2.570695e+003,1.466528e+000
2.571659e+003,1.242810e+000
2.572623e+003,1.782651e+000
2.573587e+003,1.780322e+000
2.574552e+003,6.266907e-001
2.575516e+003,-3.788757e-001
2.576480e+003,-3.779999e-001
2.577444e+003,1.405457e-001
2.578409e+003,1.395068e+000
2.579373e+003,2.108630e+000
2.580337e+003,1.540765e+000
2.581301e+003,4.163422e-001
2.582266e+003,-1.694443e+000
2.583230e+003,-3.123947e+000
2.584194e+003,-2.475436e+000
2.585158e+003,-1.249719e+000
2.586123e+003,-8.582855e-001
2.587087e+003,-8.698853e-001
2.588051e+003,-6.486694e-001
2.589015e+003,-8.157349e-002
2.589979e+003,1.684421e+000
2.590944e+003,3.934348e+000
2.591908e+003,3.549262e+000
2.592872e+003,1.515613e+000
2.593836e+003,2.092895e-002
2.594801e+003,-7.966706e-001
2.595765e+003,-7.960755e-001
2.596729e+003,-4.601349e-001
2.597693e+003,-1.063437e+000
2.598657e+003,-2.322940e+000
2.599622e+003,-2.462097e+000
2.600586e+003,-1.178232e+000
2.601550e+003,3.766174e-002
2.602514e+003,9.403747e-001
2.603479e+003,1.841528e+000
2.604443e+003,3.028113e+000
2.605407e+003,3.265112e+000
2.606371e+003,2.406869e+000
2.607336e+003,9.640015e-001
2.608300e+003,-9.745544e-001
2.609264e+003,-2.379929e+000
2.610228e+003,-2.867245e+000
2.611193e+003,-2.427112e+000
2.612157e+003,-1.091162e+000
2.613121e+003,1.671295e-001
2.614085e+003,6.483704e-001
2.615050e+003,4.916229e-001
2.616014e+003,-1.022519e+000
2.616978e+003,-1.998196e+000
2.617942e+003,-3.241669e-001
2.618906e+003,1.203806e+000
2.619871e+003,4.146637e-001
2.620835e+003,-6.499451e-001
2.621799e+003,-3.012451e-001
2.622763e+003,1.186340e-001
2.623728e+003,-8.575348e-001
2.624692e+003,-1.875604e+000
2.625656e+003,-6.333923e-001
2.626620e+003,1.702954e+000
2.627584e+003,1.860794e+000
2.628549e+003,5.919800e-001
2.629513e+003,4.513519e-001
2.630477e+003,8.456391e-001
2.631441e+003,3.658539e-001
2.632406e+003,-5.668396e-001
2.633370e+003,-1.080649e+000
2.634334e+003,-1.159549e+000
2.635298e+003,-1.230283e+000
2.636263e+003,-1.123145e+000
2.637227e+003,3.349670e-001
2.638191e+003,3.095657e+000
2.639155e+003,3.635779e+000
2.640120e+003,1.347043e+000
2.641084e+003,3.166626e-001
2.642048e+003,6.826416e-001
2.643012e+003,1.129309e+000
2.643977e+003,1.622943e+000
2.644941e+003,2.291113e+000
2.645905e+003,3.011133e+000
2.646869e+003,2.542636e+000
2.647833e+003,7.803345e-001
2.648798e+003,-7.517792e-001
2.649762e+003,-1.392239e+000
2.650726e+003,-1.308353e+000
2.651690e+003,-3.381653e-001
2.652655e+003,-9.065857e-002
2.653619e+003,-2.434384e+000
2.654583e+003,-3.727182e+000
2.655547e+003,-1.956961e+000
2.656511e+003,-5.242615e-001
2.657476e+003,-3.045197e-001
2.658440e+003,-7.380981e-001
2.659404e+003,-1.765027e+000
2.660368e+003,-2.364438e+000
2.661333e+003,-1.805255e+000
2.662297e+003,-1.386087e+000
2.663261e+003,-2.524558e+000
2.664225e+003,-3.491406e+000
2.665190e+003,-1.447495e+000
2.666154e+003,1.137729e+000
2.667118e+003,1.030063e+000
2.668082e+003,6.017486e-001
2.669047e+003,2.836414e+000
2.670011e+003,4.784784e+000
2.670975e+003,2.847018e+000
2.671939e+003,-4.247131e-002
2.672904e+003,-5.590973e-001
2.673868e+003,2.214050e-001
2.674832e+003,9.206421e-001
2.675796e+003,1.371289e+000
2.676760e+003,1.031308e+000
2.677725e+003,2.102814e-001
2.678689e+003,3.928589e-001
2.679653e+003,1.138019e+000
2.680617e+003,9.583069e-001
2.681582e+003,3.396149e-001
2.682546e+003,4.703186e-001
2.683510e+003,1.072128e+000
2.684474e+003,1.391489e+000
2.685438e+003,1.400372e+000
2.686403e+003,1.359763e+000
2.687367e+003,1.307025e+000
2.688331e+003,1.213852e+000
2.689295e+003,1.118698e+000
2.690260e+003,1.333221e+000
2.691224e+003,1.863861e+000
2.692188e+003,2.601596e+000
2.693152e+003,3.463254e+000
2.694117e+003,3.598892e+000
2.695081e+003,3.083414e+000
2.696045e+003,2.722885e+000
2.697009e+003,2.575967e+000
2.697974e+003,1.910242e+000
2.698938e+003,7.357178e-001
2.699902e+003,2.430939e-001
2.700866e+003,8.355103e-001
2.701831e+003,1.987027e+000
2.702795e+003,4.468384e+000
2.703759e+003,5.409094e+000
2.704723e+003,3.919348e+000
2.705688e+003,3.396313e+000
2.706652e+003,4.519605e+000
2.707616e+003,4.088855e+000
2.708580e+003,1.392929e+000
2.709544e+003,-1.307678e-002
2.710509e+003,1.141464e+000
2.711473e+003,2.059757e+000
2.712437e+003,1.170911e+000
2.713401e+003,4.723999e-001
2.714365e+003,1.516116e+000
2.715330e+003,2.546753e+000
2.716294e+003,2.858697e+000
2.717258e+003,2.658887e+000
2.718222e+003,1.456375e+000
2.719187e+003,5.914704e-001
2.720151e+003,2.994049e-001
2.721115e+003,1.070090e+000
2.722079e+003,3.333386e+000
2.723044e+003,4.921411e+000
2.724008e+003,4.192029e+000
2.724972e+003,2.716254e+000
2.725936e+003,2.014920e+000
2.726901e+003,1.715652e+000
2.727865e+003,1.374530e+000
2.728829e+003,1.318445e+000
2.729793e+003,2.064993e+000
2.730758e+003,2.845166e+000
2.731722e+003,3.395709e+000
2.732686e+003,3.345856e+000
2.733650e+003,2.005725e+000
2.734615e+003,9.922546e-001
2.735579e+003,1.860388e+000
2.736543e+003,2.973465e+000
2.737507e+003,2.047845e+000
2.738471e+003,3.662353e-001
2.739436e+003,1.489594e-001
2.740400e+003,9.730102e-001
2.741364e+003,3.031512e+000
2.742328e+003,4.771716e+000
2.743292e+003,3.522568e+000
2.744257e+003,1.805518e+000
2.745221e+003,3.164108e+000
2.746185e+003,5.041742e+000
2.747149e+003,3.566415e+000
2.748114e+003,7.433075e-001
2.749078e+003,-6.431457e-001
2.750042e+003,-6.109406e-001
2.751006e+003,1.073038e+000
2.751971e+003,3.733377e+000
2.752935e+003,5.335321e+000
2.753899e+003,5.903827e+000
2.754863e+003,4.975281e+000
2.755828e+003,3.488794e+000
2.756792e+003,3.073923e+000
2.757756e+003,2.986493e+000
2.758720e+003,1.126172e+000
2.759685e+003,-1.106207e+000
2.760649e+003,3.006653e-001
2.761613e+003,3.866437e+000
2.762577e+003,4.807574e+000
2.763542e+003,3.485193e+000
2.764506e+003,2.615002e+000
2.765470e+003,2.186664e+000
2.766434e+003,2.299213e+000
2.767398e+003,2.732605e+000
2.768363e+003,2.956036e+000
2.769327e+003,2.895810e+000
2.770291e+003,2.420410e+000
2.771255e+003,1.858893e+000
2.772219e+003,1.837140e+000
2.773184e+003,2.342627e+000
2.774148e+003,3.116824e+000
2.775112e+003,4.062970e+000
2.776076e+003,4.060132e+000
2.777041e+003,3.104767e+000
2.778005e+003,2.668133e+000
2.778969e+003,2.614703e+000
2.779933e+003,2.016879e+000
2.780898e+003,1.136224e+000
2.781862e+003,1.107071e+000
2.782826e+003,1.610617e+000
2.783790e+003,1.223135e+000
2.784755e+003,1.349579e-001
2.785719e+003,1.800873e-001
2.786683e+003,1.609021e+000
2.787647e+003,2.231644e+000
2.788612e+003,1.894165e+000
2.789576e+003,1.745807e+000
2.790540e+003,1.789932e+000
2.791504e+003,1.584634e+000
2.792469e+003,1.340631e+000
2.793433e+003,2.282620e+000
2.794397e+003,3.991760e+000
2.795361e+003,4.899652e+000
2.796325e+003,4.772107e+000
2.797290e+003,4.091241e+000
2.798254e+003,3.026233e+000
2.799218e+003,1.836032e+000
2.800182e+003,4.018036e-001
2.801146e+003,-3.456207e-001
2.802111e+003,-3.799438e-001
2.803075e+003,1.027344e+000
2.804039e+003,3.599011e+000
2.805003e+003,4.998871e+000
2.805968e+003,5.073676e+000
2.806932e+003,4.726343e+000
2.807896e+003,4.401489e+000
2.808860e+003,4.615869e+000
2.809825e+003,5.270617e+000
2.810789e+003,4.713654e+000
2.811753e+003,2.175961e+000
2.812717e+003,1.653329e+000
2.813682e+003,3.718011e+000
2.814646e+003,4.889282e+000
2.815610e+003,5.138904e+000
2.816574e+003,5.428144e+000
2.817539e+003,5.801007e+000
2.818503e+003,6.052875e+000
2.819467e+003,5.912061e+000
2.820431e+003,4.361072e+000
2.821396e+003,1.741501e+000
2.822360e+003,8.675720e-001
2.823324e+003,2.529468e+000
2.824288e+003,3.512128e+000
2.825252e+003,3.394937e+000
2.826217e+003,3.399493e+000
2.827181e+003,3.543295e+000
2.828145e+003,4.714007e+000
2.829109e+003,6.484961e+000
2.830073e+003,5.794336e+000
2.831038e+003,3.117959e+000
2.832002e+003,2.039099e+000
2.832966e+003,2.935834e+000
2.833930e+003,3.248032e+000
2.834895e+003,2.380814e+000
2.835859e+003,2.965753e+000
2.836823e+003,5.812347e+000
2.837787e+003,6.674164e+000
2.838752e+003,5.448895e+000
2.839716e+003,4.271539e+000
2.840680e+003,3.294852e+000
2.841644e+003,2.415308e+000
2.842609e+003,1.590732e+000
2.843573e+003,7.238251e-001
2.844537e+003,-2.794800e-002
2.845501e+003,-1.945068e-001
2.846466e+003,2.757691e-001
2.847430e+003,1.136435e+000
2.848394e+003,2.500766e+000
2.849358e+003,2.618600e+000
2.850323e+003,1.382944e+000
2.851287e+003,1.761923e+000
2.852251e+003,3.473197e+000
2.853215e+003,3.976953e+000
2.854179e+003,3.495377e+000
2.855144e+003,4.143134e+000
2.856108e+003,5.387238e+000
2.857072e+003,3.936652e+000
2.858036e+003,2.277222e-002
2.859000e+003,-6.970673e-001
2.859965e+003,2.118967e+000
2.860929e+003,3.704816e+000
2.861893e+003,3.987586e+000
2.862857e+003,4.308252e+000
2.863822e+003,4.557098e+000
2.864786e+003,3.151358e+000
2.865750e+003,1.095059e+000
2.866714e+003,1.758316e+000
2.867679e+003,4.172229e+000
2.868643e+003,4.919623e+000
2.869607e+003,4.022962e+000
2.870571e+003,3.744382e+000
2.871536e+003,4.130945e+000
2.872500e+003,4.920728e+000
2.873464e+003,5.988654e+000
2.874428e+003,5.156024e+000
2.875393e+003,3.110620e+000
2.876357e+003,1.794531e+000
2.877321e+003,1.459750e+000
2.878285e+003,2.809888e+000
2.879250e+003,4.795428e+000
2.880214e+003,5.586328e+000
2.881178e+003,5.172394e+000
2.882142e+003,4.134912e+000
2.883106e+003,2.731854e+000
2.884071e+003,1.634055e+000
2.885035e+003,1.032455e+000
2.885999e+003,2.509799e+000
2.886963e+003,4.953723e+000
2.887927e+003,5.875885e+000
2.888892e+003,5.761566e+000
2.889856e+003,5.167132e+000
2.890820e+003,4.488946e+000
2.891784e+003,4.162976e+000
2.892749e+003,4.046045e+000
2.893713e+003,3.927884e+000
2.894677e+003,3.744315e+000
2.895641e+003,3.200311e+000
2.896606e+003,2.649866e+000
2.897570e+003,3.523932e+000
2.898534e+003,4.710071e+000
2.899498e+003,4.096857e+000
2.900463e+003,2.960626e+000
2.901427e+003,2.693994e+000
2.902391e+003,2.958991e+000
2.903355e+003,3.916815e+000
2.904320e+003,3.993088e+000
2.905284e+003,1.115356e+000
2.906248e+003,-1.785068e+000
2.907212e+003,-1.481628e-002
2.908177e+003,3.589505e+000
2.909141e+003,4.792932e+000
2.910105e+003,4.642938e+000
2.911069e+003,3.526007e+000
2.912033e+003,2.484775e+000
2.912998e+003,2.452655e+000
2.913962e+003,2.670093e+000
2.914926e+003,2.732614e+000
2.915890e+003,2.465375e+000
2.916854e+003,1.672278e+000
2.917819e+003,1.486920e+000
2.918783e+003,3.233185e+000
2.919747e+003,4.836847e+000
2.920711e+003,4.102264e+000
2.921676e+003,2.461414e+000
2.922640e+003,-5.680267e-001
2.923604e+003,-2.031848e+000
2.924568e+003,-2.184448e-002
2.925533e+003,1.799512e+000
2.926497e+003,2.089627e+000
2.927461e+003,1.648355e+000
2.928425e+003,1.312451e+000
2.929390e+003,2.616150e+000
2.930354e+003,6.052667e+000
2.931318e+003,8.483960e+000
2.932282e+003,7.949213e+000
2.933247e+003,6.098303e+000
2.934211e+003,3.843606e+000
2.935175e+003,2.390207e+000
2.936139e+003,1.111621e+000
2.937104e+003,1.406799e+000
2.938068e+003,3.473636e+000
2.939032e+003,4.394989e+000
2.939996e+003,3.420978e+000
2.940960e+003,2.730646e+000
2.941925e+003,3.150735e+000
2.942889e+003,3.499826e+000
2.943853e+003,3.326938e+000
2.944817e+003,3.623718e+000
2.945781e+003,4.666242e+000
2.946746e+003,4.362787e+000
2.947710e+003,2.799094e+000
2.948674e+003,3.341782e+000
2.949638e+003,5.610132e+000
2.950603e+003,6.188452e+000
2.951567e+003,4.925561e+000
2.952531e+003,3.828372e+000
2.953495e+003,3.351523e+000
2.954460e+003,3.787030e+000
2.955424e+003,5.127326e+000
2.956388e+003,4.200098e+000
2.957352e+003,1.453274e+000
2.958317e+003,1.780093e+000
2.959281e+003,4.137311e+000
2.960245e+003,5.875830e+000
2.961209e+003,6.599927e+000
2.962174e+003,5.618939e+000
2.963138e+003,3.926617e+000
2.964102e+003,3.690903e+000
2.965066e+003,4.449710e+000
2.966031e+003,5.173669e+000
2.966995e+003,5.732038e+000
2.967959e+003,5.579620e+000
2.968923e+003,5.007276e+000
2.969887e+003,4.526538e+000
2.970852e+003,4.149881e+000
2.971816e+003,3.785138e+000
2.972780e+003,3.671857e+000
2.973744e+003,4.658942e+000
2.974708e+003,4.978192e+000
2.975673e+003,2.826746e+000
2.976637e+003,7.202820e-001
2.977601e+003,1.704614e+000
2.978565e+003,3.884152e+000
2.979530e+003,5.791980e+000
2.980494e+003,6.268530e+000
2.981458e+003,2.651798e+000
2.982422e+003,-1.124420e-001
2.983387e+003,6.995422e-001
2.984351e+003,2.786179e+000
2.985315e+003,5.788733e+000
2.986279e+003,6.395166e+000
2.987244e+003,3.065012e+000
2.988208e+003,7.277496e-001
2.989172e+003,2.565796e+000
2.990136e+003,4.439475e+000
2.991101e+003,3.878357e+000
2.992065e+003,3.192621e+000
2.993029e+003,2.668069e+000
2.993993e+003,2.532083e+000
2.994958e+003,2.802051e+000
2.995922e+003,2.770914e+000
2.996886e+003,2.452005e+000
2.997850e+003,2.911960e+000
2.998814e+003,4.122443e+000
2.999779e+003,4.354492e+000
3.000743e+003,3.142172e+000
3.001707e+003,2.677557e+000
3.002671e+003,3.301590e+000
3.003635e+003,3.619864e+000
3.004600e+003,3.593475e+000
3.005564e+003,2.645871e+000
3.006528e+003,1.151697e+000
3.007492e+003,1.551605e-001
3.008457e+003,-2.586975e-001
3.009421e+003,-1.741150e-001
3.010385e+003,2.934174e-001
3.011349e+003,1.187000e+000
3.012314e+003,2.018054e+000
3.013278e+003,1.239090e+000
3.014242e+003,-3.895203e-001
3.015206e+003,-8.275147e-002
3.016171e+003,8.840240e-001
3.017135e+003,4.897156e-002
3.018099e+003,-1.011179e+000
3.019063e+003,-3.579529e-001
3.020028e+003,7.708648e-001
3.020992e+003,1.398920e+000
3.021956e+003,1.511826e+000
3.022920e+003,1.005597e+000
3.023885e+003,6.147674e-001
3.024849e+003,1.263232e+000
3.025813e+003,2.085849e+000
3.026777e+003,2.523673e+000
3.027741e+003,2.444211e+000
3.028706e+003,1.301916e+000
3.029670e+003,4.286713e-001
3.030634e+003,1.026581e-001
3.031598e+003,5.671692e-001
3.032563e+003,1.772174e+000
3.033527e+003,2.365601e+000
3.034491e+003,1.876309e+000
3.035455e+003,1.646072e+000
3.036420e+003,2.413223e+000
3.037384e+003,2.418237e+000
3.038348e+003,7.238067e-001
3.039312e+003,1.606628e-001
3.040277e+003,7.952179e-001
3.041241e+003,2.204190e+000
3.042205e+003,3.718216e+000
3.043169e+003,2.437463e+000
3.044134e+003,-5.835663e-001
3.045098e+003,-1.099661e+000
3.046062e+003,7.248932e-001
3.047026e+003,1.336197e+000
3.047990e+003,8.431549e-001
3.048955e+003,3.321228e-002
3.049919e+003,-1.010599e+000
3.050883e+003,-2.368124e+000
3.051847e+003,-3.255667e+000
3.052812e+003,-1.643909e+000
3.053776e+003,5.736786e-001
3.054740e+003,1.164850e+000
3.055704e+003,7.822876e-001
3.056668e+003,-7.446289e-004
3.057633e+003,-3.981659e-001
3.058597e+003,5.022156e-001
3.059561e+003,1.622717e+000
3.060525e+003,1.666940e+000
3.061490e+003,1.174521e+000
3.062454e+003,2.881409e-001
3.063418e+003,-5.266418e-001
3.064382e+003,-1.151199e+000
3.065347e+003,-1.668765e+000
3.066311e+003,-2.086243e+000
3.067275e+003,-2.112265e+000
3.068239e+003,-1.665338e+000
3.069204e+003,-1.261984e+000
3.070168e+003,-1.179846e+000
3.071132e+003,-7.643738e-001
3.072096e+003,6.794068e-001
3.073061e+003,9.054657e-001
3.074025e+003,-2.508820e-001
3.074989e+003,6.591491e-002
3.075953e+003,1.444702e+000
3.076917e+003,9.938049e-001
3.077882e+003,-7.676209e-001
3.078846e+003,-1.538254e+000
3.079810e+003,-1.270178e+000
3.080774e+003,-1.018600e+000
3.081739e+003,-8.656036e-001
3.082703e+003,-8.463013e-001
3.083667e+003,-9.091675e-001
3.084631e+003,-7.633880e-001
3.085595e+003,-5.615234e-001
3.086560e+003,-6.571716e-001
3.087524e+003,-6.552399e-001
3.088488e+003,3.736023e-001
3.089452e+003,7.939178e-001
3.090417e+003,-5.495850e-001
3.091381e+003,-2.495193e+000
3.092345e+003,-4.202283e+000
3.093309e+003,-4.740161e+000
3.094274e+003,-2.874680e+000
3.095238e+003,-9.854096e-001
3.096202e+003,-5.858246e-001
3.097166e+003,-3.078186e-001
3.098131e+003,2.261322e-001
3.099095e+003,7.864990e-002
3.100059e+003,-8.735901e-001
3.101023e+003,-2.011774e+000
3.101988e+003,-2.860352e+000
3.102952e+003,-1.725601e+000
3.103916e+003,1.348636e+000
3.104880e+003,1.658090e+000
3.105844e+003,-1.359918e+000
3.106809e+003,-2.683743e+000
3.107773e+003,-2.458869e+000
3.108737e+003,-2.142068e+000
3.109701e+003,-1.988797e+000
3.110666e+003,-2.784540e+000
3.111630e+003,-3.696622e+000
3.112594e+003,-3.037128e+000
3.113558e+003,-2.048578e+000
3.114522e+003,-2.659744e+000
3.115487e+003,-3.316800e+000
3.116451e+003,-1.570410e+000
3.117415e+003,5.837860e-001
3.118379e+003,2.244842e-001
3.119344e+003,-9.977997e-001
3.120308e+003,-2.538699e+000
3.121272e+003,-3.472711e+000
3.122236e+003,-3.418308e+000
3.123201e+003,-2.943408e+000
3.124165e+003,-2.256113e+000
3.125129e+003,-2.044855e+000
3.126093e+003,-2.563269e+000
3.127058e+003,-3.292059e+000
3.128022e+003,-4.109766e+000
3.128986e+003,-3.934964e+000
3.129950e+003,-2.129813e+000
3.130915e+003,-1.724835e+000
3.131879e+003,-2.574133e+000
3.132843e+003,-3.392645e+000
3.133807e+003,-3.972836e+000
3.134771e+003,-4.118469e+000
3.135736e+003,-3.855945e+000
3.136700e+003,-3.133896e+000
3.137664e+003,-2.084869e+000
3.138628e+003,-7.017761e-001
3.139593e+003,9.875488e-002
3.140557e+003,-3.162698e+000
3.141521e+003,-6.594351e+000
3.142485e+003,-2.513339e+000
3.143449e+003,1.809863e+000
3.144414e+003,3.689270e-002
3.145378e+003,-2.464059e+000
3.146342e+003,-3.648788e+000
3.147306e+003,-3.726444e+000
3.148271e+003,-2.866580e+000
3.149235e+003,-1.697415e+000
3.150199e+003,-5.071442e-001
3.151163e+003,-7.319824e-001
3.152128e+003,-3.986053e+000
3.153092e+003,-6.147498e+000
3.154056e+003,-7.156598e+000
3.155020e+003,-5.921750e+000
3.155985e+003,-3.215359e+000
3.156949e+003,-2.885272e+000
3.157913e+003,-4.194537e+000
3.158877e+003,-3.712054e+000
3.159842e+003,-2.186691e+000
3.160806e+003,-3.241208e+000
3.161770e+003,-5.284988e+000
3.162734e+003,-3.346188e+000
3.163698e+003,-1.950714e-001
3.164663e+003,-3.009921e+000
3.165627e+003,-6.553445e+000
3.166591e+003,-4.645383e+000
3.167555e+003,-2.386911e+000
3.168520e+003,-2.735428e+000
3.169484e+003,-3.808542e+000
3.170448e+003,-4.708331e+000
3.171412e+003,-4.866013e+000
3.172376e+003,-3.959009e+000
3.173341e+003,-3.098309e+000
3.174305e+003,-2.625876e+000
3.175269e+003,-3.232913e+000
3.176233e+003,-5.395142e+000
3.177198e+003,-5.309747e+000
3.178162e+003,-3.271518e+000
3.179126e+003,-2.140253e+000
3.180090e+003,-2.357071e+000
3.181055e+003,-4.705811e+000
3.182019e+003,-7.884146e+000
3.182983e+003,-8.629947e+000
3.183947e+003,-7.423944e+000
3.184912e+003,-5.163248e+000
3.185876e+003,-2.648245e+000
3.186840e+003,-1.602802e+000
3.187804e+003,-1.457404e+000
3.188769e+003,-2.071579e+000
3.189733e+003,-2.515381e+000
3.190697e+003,-1.901386e+000
3.191661e+003,-2.729764e+000
3.192625e+003,-6.012949e+000
3.193590e+003,-7.796814e+000
3.194554e+003,-6.122312e+000
3.195518e+003,-4.787955e+000
3.196482e+003,-5.981409e+000
3.197447e+003,-5.705496e+000
3.198411e+003,-3.257336e+000
3.199375e+003,-2.689065e+000
3.200339e+003,-3.667892e+000
3.201303e+003,-3.401782e+000
3.202268e+003,-2.327332e+000
3.203232e+003,-1.976181e+000
3.204196e+003,-2.492819e+000
3.205160e+003,-3.889420e+000
3.206125e+003,-5.232303e+000
3.207089e+003,-4.680240e+000
3.208053e+003,-3.497760e+000
3.209017e+003,-4.078467e+000
3.209982e+003,-4.819769e+000
3.210946e+003,-4.200137e+000
3.211910e+003,-3.603036e+000
3.212874e+003,-3.579861e+000
3.213839e+003,-3.502170e+000
3.214803e+003,-3.167731e+000
3.215767e+003,-2.559872e+000
3.216731e+003,-1.753229e+000
3.217696e+003,-1.821927e+000
3.218660e+003,-3.415271e+000
3.219624e+003,-3.934808e+000
3.220588e+003,-3.300610e+000
3.221552e+003,-3.162823e+000
3.222517e+003,-3.385046e+000
3.223481e+003,-3.725580e+000
3.224445e+003,-3.926276e+000
3.225409e+003,-3.201331e+000
3.226374e+003,-2.478546e+000
3.227338e+003,-2.929245e+000
3.228302e+003,-3.665143e+000
3.229266e+003,-3.548654e+000
3.230230e+003,-3.345788e+000
3.231195e+003,-4.418243e+000
3.232159e+003,-4.693027e+000
3.233123e+003,-2.181003e+000
3.234087e+003,-1.335367e+000
3.235052e+003,-2.833252e+000
3.236016e+003,-4.119476e+000
3.236980e+003,-4.609830e+000
3.237944e+003,-4.932739e+000
3.238909e+003,-5.215598e+000
3.239873e+003,-4.988534e+000
3.240837e+003,-4.349622e+000
3.241801e+003,-4.185672e+000
3.242766e+003,-4.297296e+000
3.243730e+003,-3.521655e+000
3.244694e+003,-2.851535e+000
3.245658e+003,-4.456698e+000
3.246623e+003,-5.931375e+000
3.247587e+003,-4.933642e+000
3.248551e+003,-4.006162e+000
3.249515e+003,-4.787198e+000
3.250479e+003,-5.418607e+000
3.251444e+003,-4.421247e+000
3.252408e+003,-3.728745e+000
3.253372e+003,-4.816129e+000
3.254336e+003,-5.481680e+000
3.255301e+003,-5.593085e+000
3.256265e+003,-5.068350e+000
3.257229e+003,-4.171515e+000
3.258193e+003,-3.996057e+000
3.259157e+003,-4.431537e+000
3.260122e+003,-4.913770e+000
3.261086e+003,-5.097970e+000
3.262050e+003,-4.321988e+000
3.263014e+003,-3.433844e+000
3.263979e+003,-4.846567e+000
3.264943e+003,-6.629965e+000
3.265907e+003,-6.386420e+000
3.266871e+003,-5.645999e+000
3.267836e+003,-5.276013e+000
3.268800e+003,-4.549329e+000
3.269764e+003,-3.241409e+000
3.270728e+003,-2.218543e+000
3.271693e+003,-1.888101e+000
3.272657e+003,-2.812851e+000
3.273621e+003,-5.289227e+000
3.274585e+003,-5.956583e+000
3.275550e+003,-4.617401e+000
3.276514e+003,-3.735519e+000
3.277478e+003,-3.314157e+000
3.278442e+003,-3.856992e+000
3.279406e+003,-4.456225e+000
3.280371e+003,-3.209015e+000
3.281335e+003,-2.205173e+000
3.282299e+003,-3.451117e+000
3.283263e+003,-4.486682e+000
3.284228e+003,-2.968298e+000
3.285192e+003,-1.069226e+000
3.286156e+003,-1.688995e-001
3.287120e+003,-3.743317e-001
3.288084e+003,-2.422076e+000
3.289049e+003,-2.070654e+000
3.290013e+003,5.869964e-001
3.290977e+003,6.612793e-001
3.291941e+003,-1.482889e+000
3.292906e+003,-1.919904e+000
3.293870e+003,-9.340546e-001
3.294834e+003,-1.635391e+000
3.295798e+003,-3.263711e+000
3.296763e+003,-3.972241e+000
3.297727e+003,-3.922592e+000
3.298691e+003,-2.568054e+000
3.299655e+003,-1.626016e+000
3.300620e+003,-3.440060e+000
3.301584e+003,-3.910205e+000
3.302548e+003,-1.795868e+000
3.303512e+003,-1.360510e+000
3.304477e+003,-3.749591e+000
3.305441e+003,-4.363983e+000
3.306405e+003,-1.506824e+000
3.307369e+003,-2.108612e-001
3.308333e+003,-8.618897e-001
3.309298e+003,-6.191223e-001
3.310262e+003,6.901856e-002
3.311226e+003,-3.423187e-001
3.312190e+003,-1.114777e+000
3.313155e+003,-1.083951e+000
3.314119e+003,-8.142914e-001
3.315083e+003,-7.271851e-001
3.316047e+003,-1.134433e+000
3.317011e+003,-2.377905e+000
3.317976e+003,-3.124597e+000
3.318940e+003,-1.910702e+000
3.319904e+003,-1.215616e+000
3.320868e+003,-1.528799e+000
3.321833e+003,-1.759213e+000
3.322797e+003,-1.767950e+000
3.323761e+003,-1.317044e+000
3.324725e+003,-4.904297e-001
3.325690e+003,8.790131e-001
3.326654e+003,1.979944e+000
3.327618e+003,1.196689e+000
3.328582e+003,-3.404663e-001
3.329547e+003,-5.105683e-001
3.330511e+003,-3.350830e-003
3.331475e+003,7.508850e-001
3.332439e+003,1.232431e+000
3.333404e+003,1.198480e+000
3.334368e+003,1.088193e+000
3.335332e+003,1.011758e+000
3.336296e+003,7.892273e-001
3.337260e+003,4.438294e-001
3.338225e+003,6.775421e-001
3.339189e+003,1.420102e+000
3.340153e+003,3.760956e-001
3.341117e+003,-1.826559e+000
3.342082e+003,-1.581656e+000
3.343046e+003,-1.773651e-001
3.344010e+003,1.041278e+000
3.344974e+003,1.490329e+000
3.345938e+003,4.996216e-001
3.346903e+003,-3.395508e-001
3.347867e+003,-2.876922e-001
3.348831e+003,4.358826e-001
3.349795e+003,1.738467e+000
3.350760e+003,2.178967e+000
3.351724e+003,6.847290e-001
3.352688e+003,6.810455e-001
3.353652e+003,1.974335e+000
3.354617e+003,2.292243e+000
3.355581e+003,2.066016e+000
3.356545e+003,2.858783e+000
3.357509e+003,3.392426e+000
3.358474e+003,1.662555e+000
3.359438e+003,-6.713562e-002
3.360402e+003,3.422302e-001
3.361366e+003,1.714288e+000
3.362331e+003,3.591592e+000
3.363295e+003,4.235196e+000
3.364259e+003,2.324090e+000
3.365223e+003,1.144705e+000
3.366188e+003,9.759003e-001
3.367152e+003,2.172598e+000
3.368116e+003,3.974634e+000
3.369080e+003,3.973352e+000
3.370044e+003,2.998477e+000
3.371009e+003,4.041864e+000
3.371973e+003,5.650375e+000
3.372937e+003,4.781320e+000
3.373901e+003,3.227039e+000
3.374865e+003,3.032471e+000
3.375830e+003,3.166760e+000
3.376794e+003,3.453015e+000
3.377758e+003,2.734058e+000
3.378722e+003,9.976562e-001
3.379687e+003,5.591705e-001
3.380651e+003,1.742917e+000
3.381615e+003,3.025632e+000
3.382579e+003,3.989694e+000
3.383544e+003,4.053934e+000
3.384508e+003,3.588260e+000
3.385472e+003,4.096759e+000
3.386436e+003,4.698029e+000
3.387401e+003,4.072370e+000
3.388365e+003,3.390454e+000
3.389329e+003,3.234699e+000
3.390293e+003,3.335049e+000
3.391258e+003,3.557303e+000
3.392222e+003,3.583124e+000
3.393186e+003,3.302863e+000
3.394150e+003,4.309119e+000
3.395115e+003,6.743140e+000
3.396079e+003,7.798728e+000
3.397043e+003,7.794244e+000
3.398007e+003,7.124326e+000
3.398971e+003,6.761670e+000
3.399936e+003,8.723871e+000
3.400900e+003,1.021047e+001
3.401864e+003,9.500867e+000
3.402828e+003,7.724774e+000
3.403792e+003,5.603812e+000
3.404757e+003,4.886194e+000
3.405721e+003,7.555191e+000
3.406685e+003,8.195841e+000
3.407649e+003,6.631927e+000
3.408614e+003,5.931985e+000
3.409578e+003,6.170932e+000
3.410542e+003,7.614053e+000
3.411506e+003,8.950641e+000
3.412471e+003,7.996231e+000
3.413435e+003,7.151526e+000
3.414399e+003,8.944357e+000
3.415363e+003,1.025429e+001
3.416328e+003,7.196173e+000
3.417292e+003,4.850320e+000
3.418256e+003,4.864392e+000
3.419220e+003,6.306157e+000
3.420185e+003,8.786982e+000
3.421149e+003,1.003671e+001
3.422113e+003,1.007242e+001
3.423077e+003,9.183057e+000
3.424042e+003,8.601389e+000
3.425006e+003,1.038977e+001
3.425970e+003,1.270264e+001
3.426934e+003,1.268548e+001
