7.140112e+001,1.903175e+002
7.236536e+001,1.851406e+002
7.332959e+001,1.860384e+002
7.429382e+001,1.921740e+002
7.525806e+001,2.048968e+002
7.622229e+001,2.105045e+002
7.718652e+001,1.993008e+002
7.815076e+001,1.623065e+002
7.911499e+001,1.362222e+002
8.007922e+001,1.170429e+002
8.104346e+001,1.069958e+002
8.200769e+001,1.089968e+002
8.297192e+001,1.309417e+002
8.393616e+001,1.566766e+002
8.490039e+001,1.908113e+002
8.586462e+001,2.252030e+002
8.682886e+001,2.466776e+002
8.779310e+001,2.277152e+002
8.875733e+001,1.948150e+002
8.972157e+001,1.602660e+002
9.068580e+001,1.295323e+002
9.165003e+001,1.039727e+002
9.261427e+001,9.488390e+001
9.357850e+001,9.696071e+001
9.454273e+001,1.020097e+002
9.550697e+001,1.047082e+002
9.647120e+001,1.049587e+002
9.743543e+001,1.029721e+002
9.839967e+001,9.778744e+001
9.936390e+001,9.114618e+001
1.003281e+002,8.490929e+001
1.012924e+002,7.798667e+001
1.022566e+002,7.343408e+001
1.032208e+002,7.257151e+001
1.041851e+002,7.456818e+001
1.051493e+002,7.743205e+001
1.061135e+002,8.191856e+001
1.070778e+002,8.456059e+001
1.080420e+002,8.281441e+001
1.090062e+002,7.635217e+001
1.099705e+002,6.737115e+001
1.109347e+002,5.968787e+001
1.118989e+002,5.366059e+001
1.128632e+002,5.193080e+001
1.138274e+002,5.652366e+001
1.147916e+002,6.891695e+001
1.157559e+002,7.494044e+001
1.167201e+002,7.278865e+001
1.176843e+002,6.783760e+001
1.186486e+002,6.672245e+001
1.196128e+002,7.332408e+001
1.205770e+002,7.866432e+001
1.215413e+002,8.429275e+001
1.225055e+002,8.836452e+001
1.234697e+002,8.716510e+001
1.244340e+002,7.038655e+001
1.253982e+002,5.359844e+001
1.263624e+002,3.974035e+001
1.273267e+002,3.061793e+001
1.282909e+002,2.750825e+001
1.292551e+002,4.073303e+001
1.302194e+002,5.894683e+001
1.311836e+002,7.210592e+001
1.321478e+002,7.381697e+001
1.331121e+002,6.383663e+001
1.340763e+002,5.397462e+001
1.350405e+002,4.345156e+001
1.360048e+002,3.543075e+001
1.369690e+002,3.372350e+001
1.379332e+002,4.434149e+001
1.388975e+002,5.217637e+001
1.398617e+002,5.716549e+001
1.408259e+002,5.940899e+001
1.417902e+002,5.906121e+001
1.427544e+002,5.396016e+001
1.437186e+002,4.844481e+001
1.446829e+002,4.262786e+001
1.456471e+002,3.717993e+001
1.466113e+002,3.318237e+001
1.475756e+002,3.220313e+001
1.485398e+002,3.369171e+001
1.495040e+002,3.969164e+001
1.504683e+002,5.020506e+001
1.514325e+002,6.301841e+001
1.523967e+002,6.391558e+001
1.533610e+002,5.570097e+001
1.543252e+002,4.609069e+001
1.552894e+002,4.066050e+001
1.562537e+002,4.139302e+001
1.572179e+002,4.026516e+001
1.581821e+002,3.410779e+001
1.591464e+002,2.834276e+001
1.601106e+002,2.944764e+001
1.610748e+002,4.623407e+001
1.620391e+002,5.695814e+001
1.630033e+002,5.394530e+001
1.639676e+002,4.284850e+001
1.649318e+002,3.262584e+001
1.658960e+002,3.305087e+001
1.668603e+002,3.621955e+001
1.678245e+002,3.678396e+001
1.687887e+002,3.453417e+001
1.697530e+002,3.145259e+001
1.707172e+002,3.379527e+001
1.716814e+002,3.933796e+001
1.726457e+002,4.268925e+001
1.736099e+002,4.174041e+001
1.745741e+002,3.631382e+001
1.755384e+002,3.093575e+001
1.765026e+002,2.409227e+001
1.774668e+002,1.869812e+001
1.784311e+002,1.700919e+001
1.793953e+002,2.086786e+001
1.803595e+002,2.304847e+001
1.813238e+002,2.098937e+001
1.822880e+002,1.792781e+001
1.832522e+002,1.680917e+001
1.842165e+002,2.054236e+001
1.851807e+002,2.355144e+001
1.861449e+002,2.072087e+001
1.871092e+002,1.487352e+001
1.880734e+002,9.607580e+000
1.890376e+002,9.882238e+000
1.900019e+002,1.461760e+001
1.909661e+002,2.023099e+001
1.919303e+002,2.636743e+001
1.928946e+002,3.209034e+001
1.938588e+002,3.399379e+001
1.948230e+002,2.935588e+001
1.957873e+002,2.690229e+001
1.967515e+002,2.843080e+001
1.977157e+002,3.390918e+001
1.986800e+002,4.033540e+001
1.996442e+002,4.740764e+001
2.006084e+002,5.491343e+001
2.015727e+002,6.463938e+001
2.025369e+002,7.695066e+001
2.035011e+002,8.499474e+001
2.044654e+002,8.268894e+001
2.054296e+002,7.586301e+001
2.063938e+002,6.624608e+001
2.073581e+002,5.514510e+001
2.083223e+002,4.491647e+001
2.092865e+002,3.997541e+001
2.102508e+002,3.947161e+001
2.112150e+002,4.397598e+001
2.121792e+002,5.431438e+001
2.131435e+002,7.298386e+001
2.141077e+002,8.121889e+001
2.150719e+002,7.445231e+001
2.160362e+002,6.140437e+001
2.170004e+002,5.510653e+001
2.179646e+002,6.193101e+001
2.189289e+002,6.754598e+001
2.198931e+002,6.875610e+001
2.208573e+002,6.789732e+001
2.218216e+002,6.983720e+001
2.227858e+002,8.146812e+001
2.237500e+002,9.284779e+001
2.247143e+002,1.025911e+002
2.256785e+002,1.089289e+002
2.266427e+002,1.093603e+002
2.276070e+002,9.364325e+001
2.285712e+002,7.056493e+001
2.295354e+002,5.153770e+001
2.304997e+002,3.989077e+001
2.314639e+002,3.459354e+001
2.324281e+002,2.905872e+001
2.333924e+002,2.302631e+001
2.343566e+002,1.792771e+001
2.353208e+002,1.441860e+001
2.362851e+002,1.269132e+001
2.372493e+002,1.141302e+001
2.382135e+002,9.877356e+000
2.391778e+002,9.079554e+000
2.401420e+002,1.005480e+001
2.411062e+002,1.350330e+001
2.420705e+002,1.615399e+001
2.430347e+002,1.610912e+001
2.439989e+002,1.461863e+001
2.449632e+002,1.226335e+001
2.459274e+002,9.426953e+000
2.468916e+002,6.701770e+000
2.478559e+002,5.240820e+000
2.488201e+002,4.661218e+000
2.497843e+002,4.179773e+000
2.507486e+002,2.859766e+000
2.517128e+002,4.026001e-001
2.526770e+002,5.535889e-002
2.536413e+002,2.242383e+000
2.546055e+002,5.814380e+000
2.555697e+002,9.065991e+000
2.565340e+002,1.211018e+001
2.574982e+002,1.460779e+001
2.584625e+002,1.692079e+001
2.594267e+002,1.884012e+001
2.603909e+002,1.991436e+001
2.613552e+002,1.918051e+001
2.623194e+002,1.786289e+001
2.632836e+002,1.645602e+001
2.642479e+002,1.504369e+001
2.652121e+002,1.354462e+001
2.661763e+002,1.155099e+001
2.671406e+002,9.628260e+000
2.681048e+002,8.700378e+000
2.690690e+002,8.905810e+000
2.700333e+002,9.957397e+000
2.709975e+002,1.082913e+001
2.719617e+002,1.193242e+001
2.729260e+002,1.177762e+001
2.738902e+002,8.928235e+000
2.748544e+002,3.456506e+000
2.758187e+002,6.235107e-001
2.767829e+002,3.715125e+000
2.777471e+002,6.134558e+000
2.787114e+002,5.254907e+000
2.796756e+002,8.649292e-001
2.806398e+002,-2.580652e+000
2.816041e+002,-1.312817e+000
2.825683e+002,1.366846e+000
2.835325e+002,4.212366e+000
2.844968e+002,6.521472e+000
2.854610e+002,8.285364e+000
2.864252e+002,9.362964e+000
2.873895e+002,9.966296e+000
2.883537e+002,1.038407e+001
2.893179e+002,1.082943e+001
2.902822e+002,1.137450e+001
2.912464e+002,1.091606e+001
2.922106e+002,9.535437e+000
2.931749e+002,7.513257e+000
2.941391e+002,4.598315e+000
2.951033e+002,-7.445069e-002
2.960676e+002,-2.978088e+000
2.970318e+002,-3.516504e+000
2.979960e+002,-2.783069e+000
2.989603e+002,-1.467456e+000
2.999245e+002,1.095337e-001
3.008887e+002,2.258228e+000
3.018530e+002,5.875110e+000
3.028172e+002,9.727905e+000
3.037814e+002,1.251105e+001
3.047457e+002,1.308853e+001
3.057099e+002,1.228892e+001
3.066741e+002,1.345731e+001
3.076384e+002,1.596857e+001
3.086026e+002,1.745024e+001
3.095668e+002,1.515133e+001
3.105311e+002,7.239441e+000
3.114953e+002,2.266333e+000
3.124595e+002,9.895874e-001
3.134238e+002,1.609082e+000
3.143880e+002,2.077002e+000
3.153522e+002,1.963245e+000
3.163165e+002,2.230078e+000
3.172807e+002,2.910877e+000
3.182449e+002,4.229346e+000
3.192092e+002,6.685901e+000
3.201734e+002,1.138365e+001
3.211376e+002,1.534584e+001
3.221019e+002,1.598579e+001
3.230661e+002,1.456206e+001
3.240303e+002,1.303599e+001
3.249946e+002,1.382626e+001
3.259588e+002,1.640369e+001
3.269230e+002,1.704613e+001
3.278873e+002,1.568506e+001
3.288515e+002,1.328729e+001
3.298157e+002,1.153871e+001
3.307800e+002,1.061681e+001
3.317442e+002,1.067145e+001
3.327084e+002,1.148927e+001
3.336727e+002,1.311458e+001
3.346369e+002,1.594535e+001
3.356011e+002,2.249741e+001
3.365654e+002,2.672136e+001
3.375296e+002,2.595020e+001
3.384938e+002,2.233827e+001
3.394581e+002,1.921962e+001
3.404223e+002,1.952291e+001
3.413865e+002,2.133475e+001
3.423508e+002,2.268394e+001
3.433150e+002,2.377039e+001
3.442792e+002,2.520470e+001
3.452435e+002,2.789907e+001
3.462077e+002,3.211567e+001
3.471719e+002,3.725189e+001
3.481362e+002,4.288655e+001
3.491004e+002,4.991204e+001
3.500646e+002,6.034286e+001
3.510289e+002,7.295799e+001
3.519931e+002,9.260736e+001
3.529573e+002,1.222138e+002
3.539216e+002,1.582253e+002
3.548858e+002,1.957706e+002
3.558500e+002,2.433033e+002
3.568143e+002,2.758049e+002
3.577785e+002,2.845539e+002
3.587427e+002,2.732234e+002
3.597070e+002,2.476781e+002
3.606712e+002,2.077642e+002
3.616354e+002,1.633652e+002
3.625997e+002,1.260730e+002
3.635639e+002,9.682352e+001
3.645281e+002,7.523710e+001
3.654924e+002,6.051331e+001
3.664566e+002,5.475674e+001
3.674208e+002,4.895347e+001
3.683851e+002,4.276235e+001
3.693493e+002,3.656456e+001
3.703135e+002,3.125889e+001
3.712778e+002,2.747899e+001
3.722420e+002,2.431179e+001
3.732062e+002,2.144559e+001
3.741705e+002,1.915680e+001
3.751347e+002,1.793630e+001
3.760989e+002,1.846614e+001
3.770632e+002,1.968763e+001
3.780274e+002,2.139912e+001
3.789916e+002,2.310270e+001
3.799559e+002,2.423208e+001
3.809201e+002,2.421232e+001
3.818844e+002,2.311836e+001
3.828486e+002,2.133867e+001
3.838128e+002,1.898826e+001
3.847771e+002,1.673624e+001
3.857413e+002,1.557631e+001
3.867055e+002,1.604243e+001
3.876698e+002,1.661132e+001
3.886340e+002,1.633549e+001
3.895982e+002,1.640219e+001
3.905625e+002,1.892839e+001
3.915267e+002,2.704158e+001
3.924909e+002,3.220330e+001
3.934552e+002,3.232751e+001
3.944194e+002,2.953746e+001
3.953836e+002,2.564318e+001
3.963479e+002,2.089789e+001
3.973121e+002,1.753883e+001
3.982763e+002,1.813668e+001
3.992406e+002,2.086401e+001
4.002048e+002,2.305925e+001
4.011690e+002,2.210801e+001
4.021333e+002,1.867282e+001
4.030975e+002,1.829912e+001
4.040617e+002,2.094993e+001
4.050260e+002,2.462191e+001
4.059902e+002,2.713171e+001
4.069544e+002,2.731558e+001
4.079187e+002,2.980948e+001
4.088829e+002,3.614950e+001
4.098471e+002,4.293362e+001
4.108114e+002,4.691768e+001
4.117756e+002,4.622168e+001
4.127398e+002,4.820644e+001
4.137041e+002,5.866409e+001
4.146683e+002,7.039305e+001
4.156325e+002,7.877342e+001
4.165968e+002,8.132821e+001
4.175610e+002,7.898726e+001
4.185252e+002,7.152063e+001
4.194895e+002,6.169187e+001
4.204537e+002,5.225908e+001
4.214179e+002,4.503892e+001
4.223822e+002,4.014169e+001
4.233464e+002,4.068851e+001
4.243106e+002,4.721751e+001
4.252749e+002,5.355487e+001
4.262391e+002,5.573823e+001
4.272033e+002,5.313674e+001
4.281676e+002,5.508817e+001
4.291318e+002,6.436165e+001
4.300960e+002,7.560081e+001
4.310603e+002,8.596167e+001
4.320245e+002,9.543412e+001
4.329887e+002,1.084380e+002
4.339530e+002,1.319493e+002
4.349172e+002,1.585456e+002
4.358814e+002,1.883770e+002
4.368457e+002,2.190690e+002
4.378099e+002,2.458732e+002
4.387741e+002,2.586113e+002
4.397384e+002,2.586879e+002
4.407026e+002,2.490782e+002
4.416668e+002,2.293937e+002
4.426311e+002,2.028755e+002
4.435953e+002,1.804319e+002
4.445595e+002,1.638968e+002
4.455238e+002,1.499555e+002
4.464880e+002,1.389610e+002
4.474522e+002,1.304706e+002
4.484165e+002,1.238808e+002
4.493807e+002,1.208749e+002
4.503449e+002,1.178076e+002
4.513092e+002,1.142159e+002
4.522734e+002,1.095316e+002
4.532376e+002,1.030268e+002
4.542019e+002,9.381226e+001
4.551661e+002,8.301615e+001
4.561303e+002,7.115148e+001
4.570946e+002,5.934115e+001
4.580588e+002,4.997876e+001
4.590230e+002,4.573570e+001
4.599873e+002,4.719493e+001
4.609515e+002,4.791563e+001
4.619157e+002,4.769891e+001
4.628800e+002,4.715417e+001
4.638442e+002,4.653652e+001
4.648084e+002,4.525834e+001
4.657727e+002,4.598909e+001
4.667369e+002,4.935706e+001
4.677011e+002,5.386566e+001
4.686654e+002,5.932565e+001
4.696296e+002,6.575880e+001
4.705938e+002,7.049742e+001
4.715581e+002,7.180453e+001
4.725223e+002,7.062577e+001
4.734865e+002,6.654055e+001
4.744508e+002,5.988094e+001
4.754150e+002,5.213587e+001
4.763792e+002,4.691480e+001
4.773435e+002,4.355708e+001
4.783077e+002,4.093806e+001
4.792719e+002,3.880294e+001
4.802362e+002,3.710329e+001
4.812004e+002,3.544216e+001
4.821646e+002,3.425582e+001
4.831289e+002,3.238493e+001
4.840931e+002,2.861647e+001
4.850573e+002,2.391578e+001
4.860216e+002,2.107155e+001
4.869858e+002,2.334064e+001
4.879500e+002,2.498088e+001
4.889143e+002,2.376207e+001
4.898785e+002,2.070715e+001
4.908427e+002,1.747665e+001
4.918070e+002,1.519249e+001
4.927712e+002,1.396133e+001
4.937354e+002,1.362803e+001
4.946997e+002,1.408074e+001
4.956639e+002,1.503745e+001
4.966281e+002,1.622126e+001
4.975924e+002,1.765743e+001
4.985566e+002,1.922233e+001
4.995208e+002,2.034015e+001
5.004851e+002,2.223156e+001
5.014493e+002,2.646307e+001
5.024135e+002,3.402729e+001
5.033778e+002,3.909290e+001
5.043420e+002,3.941099e+001
5.053063e+002,3.934587e+001
5.062705e+002,4.182544e+001
5.072347e+002,4.692724e+001
5.081990e+002,5.002842e+001
5.091632e+002,4.327697e+001
5.101274e+002,3.464128e+001
5.110917e+002,2.888578e+001
5.120559e+002,2.689569e+001
5.130201e+002,2.673257e+001
5.139844e+002,2.465657e+001
5.149486e+002,2.069778e+001
5.159128e+002,1.671930e+001
5.168771e+002,1.280692e+001
5.178413e+002,9.260736e+000
5.188055e+002,6.759119e+000
5.197698e+002,6.040015e+000
5.207340e+002,5.354346e+000
5.216982e+002,4.783734e+000
5.226625e+002,4.135254e+000
5.236267e+002,3.021222e+000
5.245909e+002,9.382690e-001
5.255552e+002,-4.379272e-001
5.265194e+002,4.488403e-001
5.274836e+002,1.866528e+000
5.284479e+002,2.128333e+000
5.294121e+002,3.630920e-001
5.303763e+002,-2.214642e+000
5.313406e+002,-3.049323e+000
5.323048e+002,-2.706336e+000
5.332690e+002,-1.655145e+000
5.342333e+002,-4.420166e-002
5.351975e+002,1.951831e+000
5.361617e+002,2.810669e+000
5.371260e+002,1.741772e+000
5.380902e+002,8.819153e-001
5.390544e+002,7.285217e-001
5.400187e+002,9.876831e-001
5.409829e+002,7.919739e-001
5.419471e+002,-6.702331e-001
5.429114e+002,-1.609241e+000
5.438756e+002,-1.174805e+000
5.448398e+002,-5.703735e-002
5.458041e+002,6.698853e-001
5.467683e+002,1.554321e-001
5.477325e+002,-7.912720e-001
5.486968e+002,-1.063403e+000
5.496610e+002,-8.257934e-001
5.506252e+002,-3.098145e-001
5.515895e+002,2.953552e-001
5.525537e+002,9.728333e-001
5.535179e+002,1.401648e+000
5.544822e+002,1.846100e+000
5.554464e+002,1.820538e+000
5.564106e+002,6.074219e-001
5.573749e+002,-1.857861e+000
5.583391e+002,-3.237280e+000
5.593033e+002,-1.655072e+000
5.602676e+002,-5.226380e-001
5.612318e+002,-1.457239e+000
5.621960e+002,-3.764429e+000
5.631603e+002,-4.994513e+000
5.641245e+002,-2.114233e+000
5.650887e+002,1.015417e+000
5.660530e+002,8.251038e-001
5.670172e+002,-1.825891e+000
5.679814e+002,-4.781305e+000
5.689457e+002,-5.736072e+000
5.699099e+002,-4.736762e+000
5.708741e+002,-3.698486e+000
5.718384e+002,-2.427368e+000
5.728026e+002,-1.657294e+000
5.737668e+002,-2.439185e+000
5.747311e+002,-5.461987e+000
5.756953e+002,-6.619794e+000
5.766595e+002,-3.624634e+000
5.776238e+002,-1.396417e+000
5.785880e+002,-2.615442e+000
5.795522e+002,-6.944763e+000
5.805165e+002,-1.059741e+001
5.814807e+002,-1.038405e+001
5.824449e+002,-9.145605e+000
5.834092e+002,-8.192035e+000
5.843734e+002,-7.629425e+000
5.853376e+002,-7.045184e+000
5.863019e+002,-5.895929e+000
5.872661e+002,-4.367682e+000
5.882303e+002,-3.510980e+000
5.891946e+002,-3.333032e+000
5.901588e+002,-3.236322e+000
5.911230e+002,-2.511389e+000
5.920873e+002,-7.643433e-001
5.930515e+002,-1.276306e-001
5.940157e+002,-1.045135e+000
5.949800e+002,-2.167438e+000
5.959442e+002,-2.862488e+000
5.969084e+002,-3.098798e+000
5.978727e+002,-3.337390e+000
5.988369e+002,-4.258539e+000
5.998011e+002,-4.845825e+000
6.007654e+002,-4.080261e+000
6.017296e+002,-2.478980e+000
6.026938e+002,-1.555664e+000
6.036581e+002,-3.267572e+000
6.046223e+002,-6.681091e+000
6.055865e+002,-8.871277e+000
6.065508e+002,-9.787201e+000
6.075150e+002,-9.534833e+000
6.084792e+002,-8.138739e+000
6.094435e+002,-5.275171e+000
6.104077e+002,-2.717255e+000
6.113719e+002,5.025513e-001
6.123362e+002,2.506128e+000
6.133004e+002,1.598486e+000
6.142646e+002,-2.187366e+000
6.152289e+002,-5.052460e+000
6.161931e+002,-4.674414e+000
6.171573e+002,-3.743182e+000
6.181216e+002,-3.250268e+000
6.190858e+002,-2.957806e+000
6.200500e+002,-1.818005e+000
6.210143e+002,1.564099e+000
6.219785e+002,5.693091e+000
6.229427e+002,7.600568e+000
6.239070e+002,7.540576e+000
6.248712e+002,6.694739e+000
6.258354e+002,6.178864e+000
6.267997e+002,6.015521e+000
6.277639e+002,7.012378e+000
6.287281e+002,9.927264e+000
6.296924e+002,1.249559e+001
6.306566e+002,1.367007e+001
6.316208e+002,1.354265e+001
6.325851e+002,1.321673e+001
6.335493e+002,1.292617e+001
6.345135e+002,1.269209e+001
6.354778e+002,1.258560e+001
6.364420e+002,1.246929e+001
6.374063e+002,1.210394e+001
6.383705e+002,1.125336e+001
6.393347e+002,1.015996e+001
6.402990e+002,9.110895e+000
6.412632e+002,8.235987e+000
6.422274e+002,7.855750e+000
6.431917e+002,8.209051e+000
6.441559e+002,9.226557e+000
6.451201e+002,9.724078e+000
6.460844e+002,9.622534e+000
6.470486e+002,9.300262e+000
6.480128e+002,9.000287e+000
6.489771e+002,8.619708e+000
6.499413e+002,7.632422e+000
6.509055e+002,5.119195e+000
6.518698e+002,3.007373e+000
6.528340e+002,1.696094e+000
6.537982e+002,1.133960e+000
6.547625e+002,1.405243e+000
6.557267e+002,2.684827e+000
6.566909e+002,3.950555e+000
6.576552e+002,3.446435e+000
6.586194e+002,1.992188e+000
6.595836e+002,7.249511e-001
6.605479e+002,2.462158e-001
6.615121e+002,4.814697e-001
6.624763e+002,1.010516e+000
6.634406e+002,2.041473e+000
6.644048e+002,2.769116e+000
6.653690e+002,2.747021e+000
6.663333e+002,2.322601e+000
6.672975e+002,2.253027e+000
6.682617e+002,2.872058e+000
6.692260e+002,3.585596e+000
6.701902e+002,4.689563e+000
6.711544e+002,5.515765e+000
6.721187e+002,5.116968e+000
6.730829e+002,3.244971e+000
6.740471e+002,1.347620e+000
6.750114e+002,1.812872e+000
6.759756e+002,3.391736e+000
6.769398e+002,5.204285e+000
6.779041e+002,6.919885e+000
6.788683e+002,8.235980e+000
6.798325e+002,8.594714e+000
6.807968e+002,7.679425e+000
6.817610e+002,6.774793e+000
6.827252e+002,5.610754e+000
6.836895e+002,4.666724e+000
6.846537e+002,4.410047e+000
6.856179e+002,4.922827e+000
6.865822e+002,5.529083e+000
6.875464e+002,6.539032e+000
6.885106e+002,7.185736e+000
6.894749e+002,6.641528e+000
6.904391e+002,5.297821e+000
6.914034e+002,4.568854e+000
6.923676e+002,6.089215e+000
6.933318e+002,8.584589e+000
6.942961e+002,1.041303e+001
6.952603e+002,1.151987e+001
6.962245e+002,1.181040e+001
6.971888e+002,1.113501e+001
6.981530e+002,9.428680e+000
6.991172e+002,9.199183e+000
7.000815e+002,1.080494e+001
7.010457e+002,1.262847e+001
7.020099e+002,1.437941e+001
7.029742e+002,1.603555e+001
7.039384e+002,1.733639e+001
7.049026e+002,1.833788e+001
7.058669e+002,1.857577e+001
7.068311e+002,1.688037e+001
7.077953e+002,1.479460e+001
7.087596e+002,1.455066e+001
7.097238e+002,1.746428e+001
7.106880e+002,2.114999e+001
7.116523e+002,2.119956e+001
7.126165e+002,1.944229e+001
7.135807e+002,1.886971e+001
7.145450e+002,2.058820e+001
7.155092e+002,2.310701e+001
7.164734e+002,2.224697e+001
7.174377e+002,1.502861e+001
7.184019e+002,1.088024e+001
7.193661e+002,1.155751e+001
7.203304e+002,1.400707e+001
7.212946e+002,1.501744e+001
7.222589e+002,1.400814e+001
7.232231e+002,1.339943e+001
7.241873e+002,1.488494e+001
7.251516e+002,1.616760e+001
7.261158e+002,1.573411e+001
7.270800e+002,1.365378e+001
7.280443e+002,1.115969e+001
7.290085e+002,9.320684e+000
7.299727e+002,8.366437e+000
7.309370e+002,8.813245e+000
7.319012e+002,1.040700e+001
7.328654e+002,1.162010e+001
7.338297e+002,1.096265e+001
7.347939e+002,8.284045e+000
7.357581e+002,6.966858e+000
7.367224e+002,7.899652e+000
7.376866e+002,8.785284e+000
7.386508e+002,8.812475e+000
7.396151e+002,8.344019e+000
7.405793e+002,8.548040e+000
7.415435e+002,1.056241e+001
7.425078e+002,1.188615e+001
7.434720e+002,1.091368e+001
7.444362e+002,9.009875e+000
7.454005e+002,7.428882e+000
7.463647e+002,6.811438e+000
7.473289e+002,7.075775e+000
7.482932e+002,8.823248e+000
7.492574e+002,1.136218e+001
7.502216e+002,1.272226e+001
7.511859e+002,1.236779e+001
7.521501e+002,1.090728e+001
7.531143e+002,9.406891e+000
7.540786e+002,7.620111e+000
7.550428e+002,6.681836e+000
7.560070e+002,6.633710e+000
7.569713e+002,7.147943e+000
7.579355e+002,8.265515e+000
7.588997e+002,9.877747e+000
7.598640e+002,1.127367e+001
7.608282e+002,1.197664e+001
7.617924e+002,1.249815e+001
7.627567e+002,1.304547e+001
7.637209e+002,1.361119e+001
7.646851e+002,1.382767e+001
7.656494e+002,1.334399e+001
7.666136e+002,1.293719e+001
7.675778e+002,1.702835e+001
7.685421e+002,2.489352e+001
7.695063e+002,3.025240e+001
7.704705e+002,2.968445e+001
7.714348e+002,2.468674e+001
7.723990e+002,2.124847e+001
7.733632e+002,2.036877e+001
7.743275e+002,1.964700e+001
7.752917e+002,1.890568e+001
7.762559e+002,1.829220e+001
7.772202e+002,1.798008e+001
7.781844e+002,1.800079e+001
7.791486e+002,1.808367e+001
7.801129e+002,1.796349e+001
7.810771e+002,1.780351e+001
7.820413e+002,1.758814e+001
7.830056e+002,1.745466e+001
7.839698e+002,1.768648e+001
7.849340e+002,1.860290e+001
7.858983e+002,2.020768e+001
7.868625e+002,2.216531e+001
7.878267e+002,2.464836e+001
7.887910e+002,2.676243e+001
7.897552e+002,2.796476e+001
7.907194e+002,2.836813e+001
7.916837e+002,2.871428e+001
7.926479e+002,2.923356e+001
7.936121e+002,2.931569e+001
7.945764e+002,2.843552e+001
7.955406e+002,2.724682e+001
7.965048e+002,2.624790e+001
7.974691e+002,2.568910e+001
7.984333e+002,2.614716e+001
7.993975e+002,2.961197e+001
8.003618e+002,3.392013e+001
8.013260e+002,3.677493e+001
8.022902e+002,3.774470e+001
8.032545e+002,3.751858e+001
8.042187e+002,3.702360e+001
8.051829e+002,3.586814e+001
8.061472e+002,3.776493e+001
8.071114e+002,4.516663e+001
8.080756e+002,5.211291e+001
8.090399e+002,5.492201e+001
8.100041e+002,5.432008e+001
8.109683e+002,5.528612e+001
8.119326e+002,6.030598e+001
8.128968e+002,6.557858e+001
8.138610e+002,6.948036e+001
8.148253e+002,7.288882e+001
8.157895e+002,7.689727e+001
8.167537e+002,8.208056e+001
8.177180e+002,8.798224e+001
8.186822e+002,9.429633e+001
8.196464e+002,1.006993e+002
8.206107e+002,1.064280e+002
8.215749e+002,1.112504e+002
8.225391e+002,1.151739e+002
8.235034e+002,1.184450e+002
8.244676e+002,1.218286e+002
8.254318e+002,1.215376e+002
8.263961e+002,1.164550e+002
8.273603e+002,1.104972e+002
8.283245e+002,1.048790e+002
8.292888e+002,9.973250e+001
8.302530e+002,9.520684e+001
8.312172e+002,9.207243e+001
8.321815e+002,8.843005e+001
8.331457e+002,8.200682e+001
8.341099e+002,7.491986e+001
8.350742e+002,7.005977e+001
8.360384e+002,6.876107e+001
8.370026e+002,6.957277e+001
8.379669e+002,6.926704e+001
8.389311e+002,6.773243e+001
8.398953e+002,6.587130e+001
8.408596e+002,6.366663e+001
8.418238e+002,6.129108e+001
8.427880e+002,5.900614e+001
8.437523e+002,5.688865e+001
8.447165e+002,5.456309e+001
8.456807e+002,5.149752e+001
8.466450e+002,4.878606e+001
8.476092e+002,4.693203e+001
8.485734e+002,4.564014e+001
8.495377e+002,4.430761e+001
8.505019e+002,4.261389e+001
8.514661e+002,4.090377e+001
8.524304e+002,3.962711e+001
8.533946e+002,3.862280e+001
8.543588e+002,3.769436e+001
8.553231e+002,3.675347e+001
8.562873e+002,3.579935e+001
8.572515e+002,3.479725e+001
8.582158e+002,3.346993e+001
8.591800e+002,3.315836e+001
8.601442e+002,3.494681e+001
8.611085e+002,3.648303e+001
8.620727e+002,3.576422e+001
8.630369e+002,3.305305e+001
8.640012e+002,3.149131e+001
8.649654e+002,3.313937e+001
8.659296e+002,3.490624e+001
8.668939e+002,3.544196e+001
8.678581e+002,3.523915e+001
8.688223e+002,3.500461e+001
8.697866e+002,3.512387e+001
8.707508e+002,3.551561e+001
8.717150e+002,3.613432e+001
8.726793e+002,3.688480e+001
8.736435e+002,3.741984e+001
8.746077e+002,3.775156e+001
8.755720e+002,3.771255e+001
8.765362e+002,3.702254e+001
8.775004e+002,3.556712e+001
8.784647e+002,3.397102e+001
8.794289e+002,3.203765e+001
8.803931e+002,3.015148e+001
8.813574e+002,2.823574e+001
8.823216e+002,2.646850e+001
8.832858e+002,2.525844e+001
8.842501e+002,2.495706e+001
8.852143e+002,2.489663e+001
8.861785e+002,2.461852e+001
8.871428e+002,2.391825e+001
8.881070e+002,2.224159e+001
8.890712e+002,1.960724e+001
8.900355e+002,1.679461e+001
8.909997e+002,1.504391e+001
8.919639e+002,1.446558e+001
8.929282e+002,1.498625e+001
8.938924e+002,1.771788e+001
8.948566e+002,1.992678e+001
8.958209e+002,2.011501e+001
8.967851e+002,1.863751e+001
8.977493e+002,1.689188e+001
8.987136e+002,1.465635e+001
8.996778e+002,1.294863e+001
9.006420e+002,1.271080e+001
9.016063e+002,1.277411e+001
9.025705e+002,1.201516e+001
9.035347e+002,1.017942e+001
9.044990e+002,7.887659e+000
9.054632e+002,5.583160e+000
9.064274e+002,3.629309e+000
9.073917e+002,3.515619e+000
9.083559e+002,5.393121e+000
9.093201e+002,7.098468e+000
9.102844e+002,6.646936e+000
9.112486e+002,4.204858e+000
9.122128e+002,3.180145e+000
9.131771e+002,4.968036e+000
9.141413e+002,6.495893e+000
9.151055e+002,8.010877e+000
9.160698e+002,8.849652e+000
9.170340e+002,7.791425e+000
9.179982e+002,4.685620e+000
9.189625e+002,2.086926e+000
9.199267e+002,2.688464e+000
9.208909e+002,4.467364e+000
9.218552e+002,5.860425e+000
9.228194e+002,6.663733e+000
9.237836e+002,6.754553e+000
9.247479e+002,6.017633e+000
9.257121e+002,4.648895e+000
9.266763e+002,3.807672e+000
9.276406e+002,3.791559e+000
9.286048e+002,3.614746e+000
9.295690e+002,3.009943e+000
9.305333e+002,2.325000e+000
9.314975e+002,1.916663e+000
9.324617e+002,1.810358e+000
9.334260e+002,1.917255e+000
9.343902e+002,2.558215e+000
9.353545e+002,3.082635e+000
9.363187e+002,2.927789e+000
9.372830e+002,2.484637e+000
9.382472e+002,2.680298e+000
9.392114e+002,4.088239e+000
9.401757e+002,5.910504e+000
9.411399e+002,5.785052e+000
9.421041e+002,4.021674e+000
9.430684e+002,3.140509e+000
9.440326e+002,3.803351e+000
9.449968e+002,4.917511e+000
9.459611e+002,5.079865e+000
9.469253e+002,4.150384e+000
9.478895e+002,3.703894e+000
9.488538e+002,4.307263e+000
9.498180e+002,4.804956e+000
9.507822e+002,4.739404e+000
9.517465e+002,4.379065e+000
9.527107e+002,4.130786e+000
9.536749e+002,4.176758e+000
9.546392e+002,4.505005e+000
9.556034e+002,5.103570e+000
9.565676e+002,5.911981e+000
9.575319e+002,7.115057e+000
9.584961e+002,8.681684e+000
9.594603e+002,1.006036e+001
9.604246e+002,1.056960e+001
9.613888e+002,1.016987e+001
9.623530e+002,1.060095e+001
9.633173e+002,1.265666e+001
9.642815e+002,1.440021e+001
9.652457e+002,1.424443e+001
9.662100e+002,1.452615e+001
9.671742e+002,1.812155e+001
9.681384e+002,2.560608e+001
9.691027e+002,3.481773e+001
9.700669e+002,4.470547e+001
9.710311e+002,5.578007e+001
9.719954e+002,7.189421e+001
9.729596e+002,8.941257e+001
9.739238e+002,1.003391e+002
9.748881e+002,9.928635e+001
9.758523e+002,8.900710e+001
9.768165e+002,7.803518e+001
9.777808e+002,6.605627e+001
9.787450e+002,5.538105e+001
9.797092e+002,4.594411e+001
9.806735e+002,3.814733e+001
9.816377e+002,3.249383e+001
9.826019e+002,2.902020e+001
9.835662e+002,2.708595e+001
9.845304e+002,2.840248e+001
9.854946e+002,2.916089e+001
9.864589e+002,2.718198e+001
9.874231e+002,2.433098e+001
9.883873e+002,2.300405e+001
9.893516e+002,2.401216e+001
9.903158e+002,2.607945e+001
9.912800e+002,2.764515e+001
9.922443e+002,2.894673e+001
9.932085e+002,3.049182e+001
9.941727e+002,3.228244e+001
9.951370e+002,3.477134e+001
9.961012e+002,3.748341e+001
9.970654e+002,4.067106e+001
9.980297e+002,4.740175e+001
9.989939e+002,5.668455e+001
9.999581e+002,7.246462e+001
1.000922e+003,9.000014e+001
1.001887e+003,1.176412e+002
1.002851e+003,1.675377e+002
1.003815e+003,2.357989e+002
1.004779e+003,3.050335e+002
1.005744e+003,3.714666e+002
1.006708e+003,4.157376e+002
1.007672e+003,4.069218e+002
1.008636e+003,3.596685e+002
1.009600e+003,3.016914e+002
1.010565e+003,2.444568e+002
1.011529e+003,1.910627e+002
1.012493e+003,1.487303e+002
1.013457e+003,1.197672e+002
1.014422e+003,9.673716e+001
1.015386e+003,8.025639e+001
1.016350e+003,6.724076e+001
1.017314e+003,5.723075e+001
1.018279e+003,4.951768e+001
1.019243e+003,4.317455e+001
1.020207e+003,3.803970e+001
1.021171e+003,3.385236e+001
1.022135e+003,3.075403e+001
1.023100e+003,2.829073e+001
1.024064e+003,2.614235e+001
1.025028e+003,2.420759e+001
1.025992e+003,2.251306e+001
1.026957e+003,2.109467e+001
1.027921e+003,2.004348e+001
1.028885e+003,1.969231e+001
1.029849e+003,2.069595e+001
1.030814e+003,2.088996e+001
1.031778e+003,1.894491e+001
1.032742e+003,1.676420e+001
1.033706e+003,1.663116e+001
1.034671e+003,1.863804e+001
1.035635e+003,1.995450e+001
1.036599e+003,1.915223e+001
1.037563e+003,1.778840e+001
1.038527e+003,1.612384e+001
1.039492e+003,1.467386e+001
1.040456e+003,1.419189e+001
1.041420e+003,1.486275e+001
1.042384e+003,1.600867e+001
1.043349e+003,1.663702e+001
1.044313e+003,1.672883e+001
1.045277e+003,1.690688e+001
1.046241e+003,1.724257e+001
1.047206e+003,1.742132e+001
1.048170e+003,1.716193e+001
1.049134e+003,1.667631e+001
1.050098e+003,1.651678e+001
1.051063e+003,1.688075e+001
1.052027e+003,1.726970e+001
1.052991e+003,1.711331e+001
1.053955e+003,1.712151e+001
1.054919e+003,1.822374e+001
1.055884e+003,1.976844e+001
1.056848e+003,2.019239e+001
1.057812e+003,1.859862e+001
1.058776e+003,1.626022e+001
1.059741e+003,1.580771e+001
1.060705e+003,1.693327e+001
1.061669e+003,1.765431e+001
1.062633e+003,1.759595e+001
1.063598e+003,1.739661e+001
1.064562e+003,1.797231e+001
1.065526e+003,1.926695e+001
1.066490e+003,1.935687e+001
1.067454e+003,1.641073e+001
1.068419e+003,1.500909e+001
1.069383e+003,1.733538e+001
1.070347e+003,2.035524e+001
1.071311e+003,2.165847e+001
1.072276e+003,2.113729e+001
1.073240e+003,2.032856e+001
1.074204e+003,2.042135e+001
1.075168e+003,2.084374e+001
1.076133e+003,2.004349e+001
1.077097e+003,1.837993e+001
1.078061e+003,1.711378e+001
1.079025e+003,1.661194e+001
1.079990e+003,1.664988e+001
1.080954e+003,1.697181e+001
1.081918e+003,1.761731e+001
1.082882e+003,1.829416e+001
1.083846e+003,1.904041e+001
1.084811e+003,1.969726e+001
1.085775e+003,2.049750e+001
1.086739e+003,2.102105e+001
1.087703e+003,2.062727e+001
1.088668e+003,1.936757e+001
1.089632e+003,1.829639e+001
1.090596e+003,1.824289e+001
1.091560e+003,1.891583e+001
1.092525e+003,1.972098e+001
1.093489e+003,2.061245e+001
1.094453e+003,2.164547e+001
1.095417e+003,2.296611e+001
1.096381e+003,2.413654e+001
1.097346e+003,2.399277e+001
1.098310e+003,2.176352e+001
1.099274e+003,2.097508e+001
1.100238e+003,2.284241e+001
1.101203e+003,2.465552e+001
1.102167e+003,2.570068e+001
1.103131e+003,2.613772e+001
1.104095e+003,2.633637e+001
1.105060e+003,2.636181e+001
1.106024e+003,2.571474e+001
1.106988e+003,2.325439e+001
1.107952e+003,2.071819e+001
1.108917e+003,2.101678e+001
1.109881e+003,2.355666e+001
1.110845e+003,2.591574e+001
1.111809e+003,2.680758e+001
1.112773e+003,2.659044e+001
1.113738e+003,2.594059e+001
1.114702e+003,2.427206e+001
1.115666e+003,2.426711e+001
1.116630e+003,2.775041e+001
1.117595e+003,3.025634e+001
1.118559e+003,2.934036e+001
1.119523e+003,2.690384e+001
1.120487e+003,2.600593e+001
1.121452e+003,2.750710e+001
1.122416e+003,2.944921e+001
1.123380e+003,3.031559e+001
1.124344e+003,3.033016e+001
1.125308e+003,2.966166e+001
1.126273e+003,2.858893e+001
1.127237e+003,2.783809e+001
1.128201e+003,2.777430e+001
1.129165e+003,2.838755e+001
1.130130e+003,2.987127e+001
1.131094e+003,3.309129e+001
1.132058e+003,3.413450e+001
1.133022e+003,3.094350e+001
1.133987e+003,2.858347e+001
1.134951e+003,2.942553e+001
1.135915e+003,3.184601e+001
1.136879e+003,3.347971e+001
1.137844e+003,3.370329e+001
1.138808e+003,3.332616e+001
1.139772e+003,3.258355e+001
1.140736e+003,3.179708e+001
1.141700e+003,3.149545e+001
1.142665e+003,3.167892e+001
1.143629e+003,3.227288e+001
1.144593e+003,3.329014e+001
1.145557e+003,3.444278e+001
1.146522e+003,3.507618e+001
1.147486e+003,3.493182e+001
1.148450e+003,3.475235e+001
1.149414e+003,3.449622e+001
1.150379e+003,3.449220e+001
1.151343e+003,3.501294e+001
1.152307e+003,3.575525e+001
1.153271e+003,3.636267e+001
1.154235e+003,3.668226e+001
1.155200e+003,3.662086e+001
1.156164e+003,3.592189e+001
1.157128e+003,3.533193e+001
1.158092e+003,3.587153e+001
1.159057e+003,3.721196e+001
1.160021e+003,3.855709e+001
1.160985e+003,3.958302e+001
1.161949e+003,4.055145e+001
1.162914e+003,4.194405e+001
1.163878e+003,4.389629e+001
1.164842e+003,4.549951e+001
1.165806e+003,4.675079e+001
1.166771e+003,4.749452e+001
1.167735e+003,4.721378e+001
1.168699e+003,4.680510e+001
1.169663e+003,4.713486e+001
1.170627e+003,4.817798e+001
1.171592e+003,4.919858e+001
1.172556e+003,4.972334e+001
1.173520e+003,5.020606e+001
1.174484e+003,5.165899e+001
1.175449e+003,5.344304e+001
1.176413e+003,5.406075e+001
1.177377e+003,5.315203e+001
1.178341e+003,5.220235e+001
1.179306e+003,5.279684e+001
1.180270e+003,5.484307e+001
1.181234e+003,5.671136e+001
1.182198e+003,5.826534e+001
1.183162e+003,5.973753e+001
1.184127e+003,6.162154e+001
1.185091e+003,6.295975e+001
1.186055e+003,6.310729e+001
1.187019e+003,6.236302e+001
1.187984e+003,6.141585e+001
1.188948e+003,6.053349e+001
1.189912e+003,5.928056e+001
1.190876e+003,5.653193e+001
1.191841e+003,5.335784e+001
1.192805e+003,5.274721e+001
1.193769e+003,5.483024e+001
1.194733e+003,5.643517e+001
1.195698e+003,5.511661e+001
1.196662e+003,5.234248e+001
1.197626e+003,5.244996e+001
1.198590e+003,5.684138e+001
1.199554e+003,5.886016e+001
1.200519e+003,5.543565e+001
1.201483e+003,5.237342e+001
1.202447e+003,5.177835e+001
1.203411e+003,5.244503e+001
1.204376e+003,5.267495e+001
1.205340e+003,5.197694e+001
1.206304e+003,5.104534e+001
1.207268e+003,5.060969e+001
1.208233e+003,5.069230e+001
1.209197e+003,5.089547e+001
1.210161e+003,5.114180e+001
1.211125e+003,5.180328e+001
1.212089e+003,5.326115e+001
1.213054e+003,5.445300e+001
1.214018e+003,5.391252e+001
1.214982e+003,5.194827e+001
1.215946e+003,5.132374e+001
1.216911e+003,5.301965e+001
1.217875e+003,5.454958e+001
1.218839e+003,5.546940e+001
1.219803e+003,5.559264e+001
1.220768e+003,5.396061e+001
1.221732e+003,5.166474e+001
1.222696e+003,5.125065e+001
1.223660e+003,5.403744e+001
1.224625e+003,5.816288e+001
1.225589e+003,6.033359e+001
1.226553e+003,6.037164e+001
1.227517e+003,6.035836e+001
1.228481e+003,6.035510e+001
1.229446e+003,6.034604e+001
1.230410e+003,6.048329e+001
1.231374e+003,6.049786e+001
1.232338e+003,5.986626e+001
1.233303e+003,5.856335e+001
1.234267e+003,5.744378e+001
1.235231e+003,5.634335e+001
1.236195e+003,5.604198e+001
1.237160e+003,5.754974e+001
1.238124e+003,5.961362e+001
1.239088e+003,6.100969e+001
1.240052e+003,6.134715e+001
1.241016e+003,6.045100e+001
1.241981e+003,5.807568e+001
1.242945e+003,5.481791e+001
1.243909e+003,5.352137e+001
1.244873e+003,5.540070e+001
1.245838e+003,5.658067e+001
1.246802e+003,5.658058e+001
1.247766e+003,5.634507e+001
1.248730e+003,5.593060e+001
1.249695e+003,5.577253e+001
1.250659e+003,5.716514e+001
1.251623e+003,6.059097e+001
1.252587e+003,6.335221e+001
1.253552e+003,6.303807e+001
1.254516e+003,6.171763e+001
1.255480e+003,6.136678e+001
1.256444e+003,6.173518e+001
1.257408e+003,6.203506e+001
1.258373e+003,6.198100e+001
1.259337e+003,6.212502e+001
1.260301e+003,6.344617e+001
1.261265e+003,6.602064e+001
1.262230e+003,6.661541e+001
1.263194e+003,6.186396e+001
1.264158e+003,5.963042e+001
1.265122e+003,6.235282e+001
1.266087e+003,6.583311e+001
1.267051e+003,6.742949e+001
1.268015e+003,6.747438e+001
1.268979e+003,6.747337e+001
1.269943e+003,6.800867e+001
1.270908e+003,6.859380e+001
1.271872e+003,6.859328e+001
1.272836e+003,6.835800e+001
1.273800e+003,6.884055e+001
1.274765e+003,6.999005e+001
1.275729e+003,7.090543e+001
1.276693e+003,7.113802e+001
1.277657e+003,7.097492e+001
1.278622e+003,7.092580e+001
1.279586e+003,7.098424e+001
1.280550e+003,7.025526e+001
1.281514e+003,6.781627e+001
1.282479e+003,6.632478e+001
1.283443e+003,6.696117e+001
1.284407e+003,6.812610e+001
1.285371e+003,6.830932e+001
1.286335e+003,6.782264e+001
1.287300e+003,6.836940e+001
1.288264e+003,7.081517e+001
1.289228e+003,7.329109e+001
1.290192e+003,7.249700e+001
1.291157e+003,6.864645e+001
1.292121e+003,6.726059e+001
1.293085e+003,6.862984e+001
1.294049e+003,7.061512e+001
1.295014e+003,7.342663e+001
1.295978e+003,7.603466e+001
1.296942e+003,7.679811e+001
1.297906e+003,7.594179e+001
1.298870e+003,7.581941e+001
1.299835e+003,7.726055e+001
1.300799e+003,7.880717e+001
1.301763e+003,7.981892e+001
1.302727e+003,8.025608e+001
1.303692e+003,7.962840e+001
1.304656e+003,7.853079e+001
1.305620e+003,7.856801e+001
1.306584e+003,8.058926e+001
1.307549e+003,8.348184e+001
1.308513e+003,8.521685e+001
1.309477e+003,8.571266e+001
1.310441e+003,8.512016e+001
1.311406e+003,8.185106e+001
1.312370e+003,7.996159e+001
1.313334e+003,8.138010e+001
1.314298e+003,8.326172e+001
1.315263e+003,8.255614e+001
1.316227e+003,8.011804e+001
1.317191e+003,7.968404e+001
1.318155e+003,8.297974e+001
1.319120e+003,8.673734e+001
1.320084e+003,8.720692e+001
1.321048e+003,8.568370e+001
1.322012e+003,8.530568e+001
1.322976e+003,8.601937e+001
1.323941e+003,8.623397e+001
1.324905e+003,8.504865e+001
1.325869e+003,8.362370e+001
1.326833e+003,8.377086e+001
1.327798e+003,8.543948e+001
1.328762e+003,8.651769e+001
1.329726e+003,8.649171e+001
1.330690e+003,8.639966e+001
1.331655e+003,8.648097e+001
1.332619e+003,8.669857e+001
1.333583e+003,8.713947e+001
1.334547e+003,8.765509e+001
1.335511e+003,8.788930e+001
1.336476e+003,8.775517e+001
1.337440e+003,8.779048e+001
1.338404e+003,8.874862e+001
1.339368e+003,9.048622e+001
1.340333e+003,9.135839e+001
1.341297e+003,9.119235e+001
1.342261e+003,9.052562e+001
1.343225e+003,8.901796e+001
1.344190e+003,8.750374e+001
1.345154e+003,8.625249e+001
1.346118e+003,8.549376e+001
1.347082e+003,8.572200e+001
1.348047e+003,8.703893e+001
1.349011e+003,8.914101e+001
1.349975e+003,9.305816e+001
1.350939e+003,9.628201e+001
1.351903e+003,9.547292e+001
1.352868e+003,9.223910e+001
1.353832e+003,8.979144e+001
1.354796e+003,8.903290e+001
1.355760e+003,8.946168e+001
1.356725e+003,9.082124e+001
1.357689e+003,9.283701e+001
1.358653e+003,9.425117e+001
1.359617e+003,9.505487e+001
1.360582e+003,9.524757e+001
1.361546e+003,9.380698e+001
1.362510e+003,9.294063e+001
1.363474e+003,9.391572e+001
1.364438e+003,9.566756e+001
1.365403e+003,9.723853e+001
1.366367e+003,9.815907e+001
1.367331e+003,9.785227e+001
1.368295e+003,9.595039e+001
1.369260e+003,9.382975e+001
1.370224e+003,9.425932e+001
1.371188e+003,9.730531e+001
1.372152e+003,9.811378e+001
1.373117e+003,9.535959e+001
1.374081e+003,9.350826e+001
1.375045e+003,9.494614e+001
1.376009e+003,9.743001e+001
1.376974e+003,9.850495e+001
1.377938e+003,9.835438e+001
1.378902e+003,9.830077e+001
1.379866e+003,9.860551e+001
1.380830e+003,9.902230e+001
1.381795e+003,9.959648e+001
1.382759e+003,1.000609e+002
1.383723e+003,1.000829e+002
1.384687e+003,9.988789e+001
1.385652e+003,9.991963e+001
1.386616e+003,1.003428e+002
1.387580e+003,1.012017e+002
1.388544e+003,1.026516e+002
1.389509e+003,1.045199e+002
1.390473e+003,1.057614e+002
1.391437e+003,1.066442e+002
1.392401e+003,1.065926e+002
1.393365e+003,1.036812e+002
1.394330e+003,1.019580e+002
1.395294e+003,1.041534e+002
1.396258e+003,1.077044e+002
1.397222e+003,1.094776e+002
1.398187e+003,1.093080e+002
1.399151e+003,1.093403e+002
1.400115e+003,1.109492e+002
1.401079e+003,1.129955e+002
1.402044e+003,1.135169e+002
1.403008e+003,1.124612e+002
1.403972e+003,1.108605e+002
1.404936e+003,1.081071e+002
1.405901e+003,1.065490e+002
1.406865e+003,1.068302e+002
1.407829e+003,1.086391e+002
1.408793e+003,1.128450e+002
1.409757e+003,1.185615e+002
1.410722e+003,1.216819e+002
1.411686e+003,1.206805e+002
1.412650e+003,1.187533e+002
1.413614e+003,1.179661e+002
1.414579e+003,1.177444e+002
1.415543e+003,1.173961e+002
1.416507e+003,1.170948e+002
1.417471e+003,1.173114e+002
1.418436e+003,1.181148e+002
1.419400e+003,1.188833e+002
1.420364e+003,1.190941e+002
1.421328e+003,1.189578e+002
1.422292e+003,1.189002e+002
1.423257e+003,1.187190e+002
1.424221e+003,1.188914e+002
1.425185e+003,1.197242e+002
1.426149e+003,1.204749e+002
1.427114e+003,1.210116e+002
1.428078e+003,1.217322e+002
1.429042e+003,1.231654e+002
1.430006e+003,1.248815e+002
1.430971e+003,1.256231e+002
1.431935e+003,1.248567e+002
1.432899e+003,1.238324e+002
1.433863e+003,1.244357e+002
1.434828e+003,1.265925e+002
1.435792e+003,1.281696e+002
1.436756e+003,1.287998e+002
1.437720e+003,1.288966e+002
1.438684e+003,1.279260e+002
1.439649e+003,1.274251e+002
1.440613e+003,1.287186e+002
1.441577e+003,1.308689e+002
1.442541e+003,1.322214e+002
1.443506e+003,1.324272e+002
1.444470e+003,1.321608e+002
1.445434e+003,1.318462e+002
1.446398e+003,1.315829e+002
1.447363e+003,1.308644e+002
1.448327e+003,1.302866e+002
1.449291e+003,1.322010e+002
1.450255e+003,1.369152e+002
1.451219e+003,1.404130e+002
1.452184e+003,1.405295e+002
1.453148e+003,1.386560e+002
1.454112e+003,1.354764e+002
1.455076e+003,1.315595e+002
1.456041e+003,1.310007e+002
1.457005e+003,1.353355e+002
1.457969e+003,1.395869e+002
1.458933e+003,1.423161e+002
1.459898e+003,1.435185e+002
1.460862e+003,1.424126e+002
1.461826e+003,1.400418e+002
1.462790e+003,1.373574e+002
1.463755e+003,1.350066e+002
1.464719e+003,1.346051e+002
1.465683e+003,1.375116e+002
1.466647e+003,1.418271e+002
1.467611e+003,1.428363e+002
1.468576e+003,1.397866e+002
1.469540e+003,1.385502e+002
1.470504e+003,1.410782e+002
1.471468e+003,1.426854e+002
1.472433e+003,1.405117e+002
1.473397e+003,1.395053e+002
1.474361e+003,1.448461e+002
1.475325e+003,1.525656e+002
1.476290e+003,1.556164e+002
1.477254e+003,1.527606e+002
1.478218e+003,1.488883e+002
1.479182e+003,1.479210e+002
1.480146e+003,1.492759e+002
1.481111e+003,1.518573e+002
1.482075e+003,1.559665e+002
1.483039e+003,1.567747e+002
1.484003e+003,1.523569e+002
1.484968e+003,1.482020e+002
1.485932e+003,1.451973e+002
1.486896e+003,1.434538e+002
1.487860e+003,1.436994e+002
1.488825e+003,1.449297e+002
1.489789e+003,1.447541e+002
1.490753e+003,1.427292e+002
1.491717e+003,1.413705e+002
1.492682e+003,1.425708e+002
1.493646e+003,1.448253e+002
1.494610e+003,1.455327e+002
1.495574e+003,1.452259e+002
1.496538e+003,1.460544e+002
1.497503e+003,1.486167e+002
1.498467e+003,1.497764e+002
1.499431e+003,1.459753e+002
1.500395e+003,1.413712e+002
1.501360e+003,1.424072e+002
1.502324e+003,1.477563e+002
1.503288e+003,1.502404e+002
1.504252e+003,1.481890e+002
1.505217e+003,1.453991e+002
1.506181e+003,1.429919e+002
1.507145e+003,1.414276e+002
1.508109e+003,1.414528e+002
1.509073e+003,1.422981e+002
1.510038e+003,1.423278e+002
1.511002e+003,1.415722e+002
1.511966e+003,1.424281e+002
1.512930e+003,1.469133e+002
1.513895e+003,1.519168e+002
1.514859e+003,1.511556e+002
1.515823e+003,1.446016e+002
1.516787e+003,1.404196e+002
1.517752e+003,1.394677e+002
1.518716e+003,1.395761e+002
1.519680e+003,1.407513e+002
1.520644e+003,1.420357e+002
1.521609e+003,1.435045e+002
1.522573e+003,1.445418e+002
1.523537e+003,1.446892e+002
1.524501e+003,1.439044e+002
1.525465e+003,1.417138e+002
1.526430e+003,1.379067e+002
1.527394e+003,1.344618e+002
1.528358e+003,1.347921e+002
1.529322e+003,1.386382e+002
1.530287e+003,1.403715e+002
1.531251e+003,1.389223e+002
1.532215e+003,1.375895e+002
1.533179e+003,1.353272e+002
1.534144e+003,1.344423e+002
1.535108e+003,1.374762e+002
1.536072e+003,1.410572e+002
1.537036e+003,1.411294e+002
1.538000e+003,1.384388e+002
1.538965e+003,1.366678e+002
1.539929e+003,1.373607e+002
1.540893e+003,1.384118e+002
1.541857e+003,1.374240e+002
1.542822e+003,1.352121e+002
1.543786e+003,1.347934e+002
1.544750e+003,1.370060e+002
1.545714e+003,1.377046e+002
1.546679e+003,1.362207e+002
1.547643e+003,1.340589e+002
1.548607e+003,1.308438e+002
1.549571e+003,1.280896e+002
1.550536e+003,1.276079e+002
1.551500e+003,1.285282e+002
1.552464e+003,1.285116e+002
1.553428e+003,1.270246e+002
1.554392e+003,1.256789e+002
1.555357e+003,1.257372e+002
1.556321e+003,1.262360e+002
1.557285e+003,1.251870e+002
1.558249e+003,1.228132e+002
1.559214e+003,1.219369e+002
1.560178e+003,1.233102e+002
1.561142e+003,1.242667e+002
1.562106e+003,1.236734e+002
1.563071e+003,1.222964e+002
1.564035e+003,1.206174e+002
1.564999e+003,1.189786e+002
1.565963e+003,1.178318e+002
1.566927e+003,1.172072e+002
1.567892e+003,1.169978e+002
1.568856e+003,1.172086e+002
1.569820e+003,1.176824e+002
1.570784e+003,1.186224e+002
1.571749e+003,1.194899e+002
1.572713e+003,1.189639e+002
1.573677e+003,1.171298e+002
1.574641e+003,1.151714e+002
1.575606e+003,1.132221e+002
1.576570e+003,1.114236e+002
1.577534e+003,1.099681e+002
1.578498e+003,1.088555e+002
1.579463e+003,1.081223e+002
1.580427e+003,1.076783e+002
1.581391e+003,1.069338e+002
1.582355e+003,1.056706e+002
1.583319e+003,1.044188e+002
1.584284e+003,1.036380e+002
1.585248e+003,1.031259e+002
1.586212e+003,1.024239e+002
1.587176e+003,1.014557e+002
1.588141e+003,1.005160e+002
1.589105e+003,9.978960e+001
1.590069e+003,9.879769e+001
1.591033e+003,9.693745e+001
1.591998e+003,9.485488e+001
1.592962e+003,9.347389e+001
1.593926e+003,9.271751e+001
1.594890e+003,9.254097e+001
1.595854e+003,9.329564e+001
1.596819e+003,9.262524e+001
1.597783e+003,8.844331e+001
1.598747e+003,8.424532e+001
1.599711e+003,8.287583e+001
1.600676e+003,8.280193e+001
1.601640e+003,8.239395e+001
1.602604e+003,8.164903e+001
1.603568e+003,8.115825e+001
1.604533e+003,8.110442e+001
1.605497e+003,8.114943e+001
1.606461e+003,8.104088e+001
1.607425e+003,8.079936e+001
1.608390e+003,8.046635e+001
1.609354e+003,8.011958e+001
1.610318e+003,7.991187e+001
1.611282e+003,7.993578e+001
1.612246e+003,7.944630e+001
1.613211e+003,7.796889e+001
1.614175e+003,7.597196e+001
1.615139e+003,7.325070e+001
1.616103e+003,7.060003e+001
1.617068e+003,6.955974e+001
1.618032e+003,7.005060e+001
1.618996e+003,7.003555e+001
1.619960e+003,6.823360e+001
1.620925e+003,6.583752e+001
1.621889e+003,6.464519e+001
1.622853e+003,6.446962e+001
1.623817e+003,6.392995e+001
1.624781e+003,6.305165e+001
1.625746e+003,6.208764e+001
1.626710e+003,6.081707e+001
1.627674e+003,5.971898e+001
1.628638e+003,5.910122e+001
1.629603e+003,5.850781e+001
1.630567e+003,5.758065e+001
1.631531e+003,5.648632e+001
1.632495e+003,5.577030e+001
1.633460e+003,5.550492e+001
1.634424e+003,5.472147e+001
1.635388e+003,5.245736e+001
1.636352e+003,4.995779e+001
1.637317e+003,4.999382e+001
1.638281e+003,5.229808e+001
1.639245e+003,5.259096e+001
1.640209e+003,5.011436e+001
1.641173e+003,4.814642e+001
1.642138e+003,4.804035e+001
1.643102e+003,4.793310e+001
1.644066e+003,4.679575e+001
1.645030e+003,4.526353e+001
1.645995e+003,4.392188e+001
1.646959e+003,4.272319e+001
1.647923e+003,4.125136e+001
1.648887e+003,3.943944e+001
1.649852e+003,3.805790e+001
1.650816e+003,3.786650e+001
1.651780e+003,3.819988e+001
1.652744e+003,3.744971e+001
1.653708e+003,3.567975e+001
1.654673e+003,3.514093e+001
1.655637e+003,3.640405e+001
1.656601e+003,3.720686e+001
1.657565e+003,3.672712e+001
1.658530e+003,3.588941e+001
1.659494e+003,3.514550e+001
1.660458e+003,3.434810e+001
1.661422e+003,3.338191e+001
1.662387e+003,3.222269e+001
1.663351e+003,3.067054e+001
1.664315e+003,2.871077e+001
1.665279e+003,2.720852e+001
1.666244e+003,2.696604e+001
1.667208e+003,2.759616e+001
1.668172e+003,2.873224e+001
1.669136e+003,3.020573e+001
1.670100e+003,2.955956e+001
1.671065e+003,2.592252e+001
1.672029e+003,2.310839e+001
1.672993e+003,2.294641e+001
1.673957e+003,2.317702e+001
1.674922e+003,2.171726e+001
1.675886e+003,2.019125e+001
1.676850e+003,2.115693e+001
1.677814e+003,2.375534e+001
1.678779e+003,2.452385e+001
1.679743e+003,2.237741e+001
1.680707e+003,1.972448e+001
1.681671e+003,1.816462e+001
1.682635e+003,1.752874e+001
1.683600e+003,1.775447e+001
1.684564e+003,1.873149e+001
1.685528e+003,1.970830e+001
1.686492e+003,2.063229e+001
1.687457e+003,2.079692e+001
1.688421e+003,1.973927e+001
1.689385e+003,1.840355e+001
1.690349e+003,1.728745e+001
1.691314e+003,1.651919e+001
1.692278e+003,1.645734e+001
1.693242e+003,1.681596e+001
1.694206e+003,1.662948e+001
1.695171e+003,1.564159e+001
1.696135e+003,1.440597e+001
1.697099e+003,1.282878e+001
1.698063e+003,1.162623e+001
1.699027e+003,1.223421e+001
1.699992e+003,1.392468e+001
1.700956e+003,1.426052e+001
1.701920e+003,1.300712e+001
1.702884e+003,1.171370e+001
1.703849e+003,1.085950e+001
1.704813e+003,1.026417e+001
1.705777e+003,9.915240e+000
1.706741e+003,9.656293e+000
1.707706e+003,9.225042e+000
1.708670e+003,8.688983e+000
1.709634e+003,8.225122e+000
1.710598e+003,7.854327e+000
1.711563e+003,7.466553e+000
1.712527e+003,7.100629e+000
1.713491e+003,6.596869e+000
1.714455e+003,5.405438e+000
1.715419e+003,4.237726e+000
1.716384e+003,4.648263e+000
1.717348e+003,6.348041e+000
1.718312e+003,7.374121e+000
1.719276e+003,7.107422e+000
1.720241e+003,6.137421e+000
1.721205e+003,4.643762e+000
1.722169e+003,3.396503e+000
1.723133e+003,4.004324e+000
1.724098e+003,6.116559e+000
1.725062e+003,6.455640e+000
1.726026e+003,4.450949e+000
1.726990e+003,3.016956e+000
1.727954e+003,2.764139e+000
1.728919e+003,2.963052e+000
1.729883e+003,4.011823e+000
1.730847e+003,4.753192e+000
1.731811e+003,3.668845e+000
1.732776e+003,1.449039e+000
1.733740e+003,-5.437378e-001
1.734704e+003,-1.799463e+000
1.735668e+003,-1.684860e+000
1.736633e+003,1.453552e-001
1.737597e+003,2.165714e+000
1.738561e+003,2.309094e+000
1.739525e+003,1.132477e+000
1.740490e+003,1.212921e+000
1.741454e+003,3.185462e+000
1.742418e+003,3.911429e+000
1.743382e+003,2.251315e+000
1.744346e+003,1.113794e+000
1.745311e+003,1.801349e+000
1.746275e+003,2.177692e+000
1.747239e+003,2.247223e-001
1.748203e+003,-2.204980e+000
1.749168e+003,-2.555298e+000
1.750132e+003,-1.123874e+000
1.751096e+003,3.407471e-001
1.752060e+003,1.009006e+000
1.753025e+003,7.445740e-001
1.753989e+003,-6.379242e-001
1.754953e+003,-2.367212e+000
1.755917e+003,-2.509476e+000
1.756881e+003,-1.023572e+000
1.757846e+003,-8.625031e-001
1.758810e+003,-2.667093e+000
1.759774e+003,-3.863577e+000
1.760738e+003,-4.001975e+000
1.761703e+003,-3.680527e+000
1.762667e+003,-2.782691e+000
1.763631e+003,-1.835394e+000
1.764595e+003,-1.048422e+000
1.765560e+003,-5.563080e-001
1.766524e+003,-6.993256e-001
1.767488e+003,-1.427182e+000
1.768452e+003,-2.041299e+000
1.769417e+003,-2.109970e+000
1.770381e+003,-2.261581e+000
1.771345e+003,-3.561368e+000
1.772309e+003,-5.347201e+000
1.773273e+003,-5.836368e+000
1.774238e+003,-5.151663e+000
1.775202e+003,-4.471817e+000
1.776166e+003,-3.901611e+000
1.777130e+003,-3.611163e+000
1.778095e+003,-3.798602e+000
1.779059e+003,-3.940680e+000
1.780023e+003,-3.496973e+000
1.780987e+003,-2.825745e+000
1.781952e+003,-2.407004e+000
1.782916e+003,-2.318002e+000
1.783880e+003,-2.928641e+000
1.784844e+003,-4.523593e+000
1.785808e+003,-5.483045e+000
1.786773e+003,-4.630295e+000
1.787737e+003,-3.489468e+000
1.788701e+003,-3.244022e+000
1.789665e+003,-3.464850e+000
1.790630e+003,-3.395306e+000
1.791594e+003,-3.175009e+000
1.792558e+003,-3.627997e+000
1.793522e+003,-4.898334e+000
1.794487e+003,-6.211856e+000
1.795451e+003,-7.128568e+000
1.796415e+003,-6.974365e+000
1.797379e+003,-4.536484e+000
1.798344e+003,-6.578400e-001
1.799308e+003,5.142242e-001
1.800272e+003,-2.152924e+000
1.801236e+003,-3.266119e+000
1.802201e+003,-1.457431e+000
1.803165e+003,-2.419556e-001
1.804129e+003,-6.913147e-001
1.805093e+003,-1.176703e+000
1.806057e+003,-6.921417e-001
1.807022e+003,1.040497e-001
1.807986e+003,5.816956e-001
1.808950e+003,6.397400e-001
1.809914e+003,2.431305e-001
1.810879e+003,-5.332489e-001
1.811843e+003,-1.306561e+000
1.812807e+003,-1.791818e+000
1.813771e+003,-2.284473e+000
1.814736e+003,-3.318823e+000
1.815700e+003,-4.714728e+000
1.816664e+003,-5.551303e+000
1.817628e+003,-5.831708e+000
1.818593e+003,-5.621676e+000
1.819557e+003,-4.592969e+000
1.820521e+003,-3.961462e+000
1.821485e+003,-4.551703e+000
1.822449e+003,-5.186826e+000
1.823414e+003,-5.041879e+000
1.824378e+003,-4.492722e+000
1.825342e+003,-3.803171e+000
1.826306e+003,-3.067297e+000
1.827271e+003,-2.663171e+000
1.828235e+003,-2.726678e+000
1.829199e+003,-2.602469e+000
1.830163e+003,-1.584778e+000
1.831128e+003,-6.812805e-001
1.832092e+003,-1.036166e+000
1.833056e+003,-1.901520e+000
1.834020e+003,-2.007025e+000
1.834984e+003,-1.562418e+000
1.835949e+003,-1.475980e+000
1.836913e+003,-1.912878e+000
1.837877e+003,-2.628467e+000
1.838841e+003,-3.531937e+000
1.839806e+003,-4.311676e+000
1.840770e+003,-4.637744e+000
1.841734e+003,-4.517868e+000
1.842698e+003,-3.842270e+000
1.843663e+003,-2.436835e+000
1.844627e+003,-1.671832e+000
1.845591e+003,-2.180353e+000
1.846555e+003,-2.385934e+000
1.847520e+003,-2.158664e+000
1.848484e+003,-1.820245e+000
1.849448e+003,-9.863098e-001
1.850412e+003,-4.716705e-001
1.851376e+003,-1.619406e+000
1.852341e+003,-3.254059e+000
1.853305e+003,-3.052307e+000
1.854269e+003,-1.177914e+000
1.855233e+003,-4.326782e-002
1.856198e+003,-7.255615e-001
1.857162e+003,-1.820563e+000
1.858126e+003,-2.015677e+000
1.859090e+003,-1.588022e+000
1.860055e+003,-8.672851e-001
1.861019e+003,-5.387878e-002
1.861983e+003,-4.646881e-001
1.862947e+003,-2.211078e+000
1.863911e+003,-2.658405e+000
1.864876e+003,-7.901031e-001
1.865840e+003,7.330841e-001
1.866804e+003,1.500702e-001
1.867768e+003,-9.806916e-001
1.868733e+003,-1.095120e+000
1.869697e+003,-3.237945e-001
1.870661e+003,1.365909e+000
1.871625e+003,3.993161e+000
1.872590e+003,5.097363e+000
1.873554e+003,3.625430e+000
1.874518e+003,2.298190e+000
1.875482e+003,1.586896e+000
1.876447e+003,1.589371e+000
1.877411e+003,3.542490e+000
1.878375e+003,5.321518e+000
1.879339e+003,3.651990e+000
1.880303e+003,7.445373e-002
1.881268e+003,-1.559662e+000
1.882232e+003,-7.037354e-001
1.883196e+003,2.471283e-001
1.884160e+003,5.090332e-003
1.885125e+003,-5.017975e-001
1.886089e+003,-3.177857e-001
1.887053e+003,5.887696e-001
1.888017e+003,2.870221e+000
1.888982e+003,6.586923e+000
1.889946e+003,7.752856e+000
1.890910e+003,5.891995e+000
1.891874e+003,3.800943e+000
1.892839e+003,1.460751e+000
1.893803e+003,8.149109e-002
1.894767e+003,7.904053e-001
1.895731e+003,2.069522e+000
1.896695e+003,2.362216e+000
1.897660e+003,2.358017e+000
1.898624e+003,3.638052e+000
1.899588e+003,5.939835e+000
1.900552e+003,6.582883e+000
1.901517e+003,4.434400e+000
1.902481e+003,2.881390e+000
1.903445e+003,4.086038e+000
1.904409e+003,5.382150e+000
1.905374e+003,4.758765e+000
1.906338e+003,3.543784e+000
1.907302e+003,3.242920e+000
1.908266e+003,3.561438e+000
1.909230e+003,3.708350e+000
1.910195e+003,3.534692e+000
1.911159e+003,3.242126e+000
1.912123e+003,2.960770e+000
1.913087e+003,2.794696e+000
1.914052e+003,2.828250e+000
1.915016e+003,2.920022e+000
1.915980e+003,2.743179e+000
1.916944e+003,2.361691e+000
1.917909e+003,2.739154e+000
1.918873e+003,4.185605e+000
1.919837e+003,4.594827e+000
1.920801e+003,3.291983e+000
1.921766e+003,2.156616e+000
1.922730e+003,1.964481e+000
1.923694e+003,1.841669e+000
1.924658e+003,6.006134e-001
1.925622e+003,-4.489288e-001
1.926587e+003,1.120251e+000
1.927551e+003,4.236121e+000
1.928515e+003,4.747092e+000
1.929479e+003,1.946652e+000
1.930444e+003,-7.868652e-002
1.931408e+003,9.555664e-002
1.932372e+003,7.964447e-001
1.933336e+003,1.262479e+000
1.934301e+003,1.950540e+000
1.935265e+003,3.923865e+000
1.936229e+003,5.922809e+000
1.937193e+003,5.626999e+000
1.938157e+003,3.785239e+000
1.939122e+003,2.974792e+000
1.940086e+003,3.824634e+000
1.941050e+003,5.248297e+000
1.942014e+003,6.534299e+000
1.942979e+003,7.177283e+000
1.943943e+003,6.473706e+000
1.944907e+003,4.994913e+000
1.945871e+003,4.267407e+000
1.946836e+003,4.295349e+000
1.947800e+003,4.676135e+000
1.948764e+003,5.408557e+000
1.949728e+003,5.900617e+000
1.950693e+003,5.901862e+000
1.951657e+003,6.177798e+000
1.952621e+003,7.527777e+000
1.953585e+003,8.545630e+000
1.954549e+003,7.517133e+000
1.955514e+003,5.436569e+000
1.956478e+003,4.429092e+000
1.957442e+003,4.440466e+000
1.958406e+003,4.635581e+000
1.959371e+003,4.997696e+000
1.960335e+003,5.485257e+000
1.961299e+003,6.351712e+000
1.962263e+003,7.024148e+000
1.963228e+003,7.273718e+000
1.964192e+003,7.269440e+000
1.965156e+003,7.048151e+000
1.966120e+003,6.700766e+000
1.967084e+003,6.154932e+000
1.968049e+003,5.665271e+000
1.969013e+003,5.877151e+000
1.969977e+003,6.763388e+000
1.970941e+003,7.272031e+000
1.971906e+003,6.778589e+000
1.972870e+003,6.170355e+000
1.973834e+003,6.468719e+000
1.974798e+003,7.202167e+000
1.975763e+003,7.677820e+000
1.976727e+003,7.811713e+000
1.977691e+003,7.200381e+000
1.978655e+003,5.979950e+000
1.979620e+003,5.229123e+000
1.980584e+003,5.210690e+000
1.981548e+003,5.146759e+000
1.982512e+003,4.567270e+000
1.983476e+003,4.226233e+000
1.984441e+003,4.991345e+000
1.985405e+003,6.308145e+000
1.986369e+003,6.839487e+000
1.987333e+003,6.635431e+000
1.988298e+003,6.752866e+000
1.989262e+003,7.234561e+000
1.990226e+003,7.742133e+000
1.991190e+003,8.290070e+000
1.992155e+003,8.869482e+000
1.993119e+003,9.956579e+000
1.994083e+003,1.052045e+001
1.995047e+003,9.427277e+000
1.996011e+003,7.995215e+000
1.996976e+003,7.740723e+000
1.997940e+003,8.227704e+000
1.998904e+003,8.213629e+000
1.999868e+003,7.615625e+000
2.000833e+003,7.426038e+000
2.001797e+003,8.043164e+000
2.002761e+003,8.619989e+000
2.003725e+003,8.622894e+000
2.004690e+003,8.744641e+000
2.005654e+003,9.677160e+000
2.006618e+003,1.072075e+001
2.007582e+003,1.127902e+001
2.008547e+003,1.134395e+001
2.009511e+003,1.075297e+001
2.010475e+003,9.816462e+000
2.011439e+003,9.510150e+000
2.012403e+003,1.004654e+001
2.013368e+003,1.035396e+001
2.014332e+003,9.653180e+000
2.015296e+003,8.581037e+000
2.016260e+003,7.751269e+000
2.017225e+003,7.341302e+000
2.018189e+003,8.201654e+000
2.019153e+003,9.800244e+000
2.020117e+003,9.679205e+000
2.021082e+003,7.892706e+000
2.022046e+003,7.107123e+000
2.023010e+003,8.009802e+000
2.023974e+003,9.122320e+000
2.024938e+003,9.639105e+000
2.025903e+003,9.795160e+000
2.026867e+003,9.869604e+000
2.027831e+003,9.683874e+000
2.028795e+003,8.753937e+000
2.029760e+003,7.164813e+000
2.030724e+003,6.305817e+000
2.031688e+003,6.296679e+000
2.032652e+003,6.354028e+000
2.033617e+003,6.574295e+000
2.034581e+003,6.601209e+000
2.035545e+003,5.983582e+000
2.036509e+003,5.850690e+000
2.037474e+003,6.925430e+000
2.038438e+003,8.530706e+000
2.039402e+003,1.080482e+001
2.040366e+003,1.285481e+001
2.041330e+003,1.213998e+001
2.042295e+003,8.769892e+000
2.043259e+003,6.768539e+000
2.044223e+003,6.871033e+000
2.045187e+003,7.532324e+000
2.046152e+003,9.308130e+000
2.047116e+003,1.037507e+001
2.048080e+003,9.322205e+000
2.049044e+003,8.068823e+000
2.050009e+003,8.196307e+000
2.050973e+003,8.796362e+000
2.051937e+003,8.621900e+000
2.052901e+003,7.947528e+000
2.053865e+003,7.534387e+000
2.054830e+003,7.577832e+000
2.055794e+003,8.266302e+000
2.056758e+003,9.807043e+000
2.057722e+003,1.082448e+001
2.058687e+003,9.910144e+000
2.059651e+003,8.532385e+000
2.060615e+003,7.813544e+000
2.061579e+003,7.670889e+000
2.062544e+003,8.613696e+000
2.063508e+003,9.874395e+000
2.064472e+003,9.522680e+000
2.065436e+003,7.830396e+000
2.066401e+003,6.678638e+000
2.067365e+003,6.681177e+000
2.068329e+003,7.403961e+000
2.069293e+003,8.549408e+000
2.070258e+003,9.177264e+000
2.071222e+003,7.847266e+000
2.072186e+003,6.051544e+000
2.073150e+003,7.860608e+000
2.074115e+003,1.199539e+001
2.075079e+003,1.236222e+001
2.076043e+003,9.297974e+000
2.077007e+003,7.373291e+000
2.077971e+003,7.317902e+000
2.078936e+003,7.811975e+000
2.079900e+003,8.371490e+000
2.080864e+003,8.435034e+000
2.081828e+003,7.547891e+000
2.082792e+003,6.498346e+000
2.083757e+003,6.383893e+000
2.084721e+003,7.016019e+000
2.085685e+003,7.849457e+000
2.086649e+003,8.931665e+000
2.087614e+003,9.384290e+000
2.088578e+003,8.998865e+000
2.089542e+003,9.051745e+000
2.090506e+003,9.807165e+000
2.091471e+003,1.040746e+001
2.092435e+003,1.057246e+001
2.093399e+003,1.064680e+001
2.094363e+003,1.090791e+001
2.095328e+003,1.111088e+001
2.096292e+003,1.082640e+001
2.097256e+003,1.020435e+001
2.098220e+003,9.813623e+000
2.099185e+003,9.658178e+000
2.100149e+003,1.031179e+001
2.101113e+003,1.305037e+001
2.102077e+003,1.413583e+001
2.103042e+003,1.217323e+001
2.104006e+003,1.042925e+001
2.104970e+003,9.700495e+000
2.105934e+003,9.294049e+000
2.106898e+003,8.257648e+000
2.107863e+003,7.817224e+000
2.108827e+003,1.054947e+001
2.109791e+003,1.443797e+001
2.110755e+003,1.438920e+001
2.111719e+003,1.038325e+001
2.112684e+003,7.969434e+000
2.113648e+003,8.333765e+000
2.114612e+003,9.314740e+000
2.115576e+003,1.132125e+001
2.116541e+003,1.256542e+001
2.117505e+003,1.204867e+001
2.118469e+003,1.106109e+001
2.119433e+003,1.006252e+001
2.120398e+003,9.325750e+000
2.121362e+003,9.129529e+000
2.122326e+003,9.272070e+000
2.123290e+003,9.461792e+000
2.124255e+003,9.654364e+000
2.125219e+003,9.889624e+000
2.126183e+003,1.018086e+001
2.127147e+003,1.025427e+001
2.128112e+003,9.635839e+000
2.129076e+003,9.395221e+000
2.130040e+003,1.061110e+001
2.131004e+003,1.183071e+001
2.131969e+003,1.153939e+001
2.132933e+003,1.087135e+001
2.133897e+003,1.152985e+001
2.134861e+003,1.278685e+001
2.135825e+003,1.273976e+001
2.136790e+003,1.161515e+001
2.137754e+003,1.162320e+001
2.138718e+003,1.329012e+001
2.139682e+003,1.396555e+001
2.140646e+003,1.175198e+001
2.141611e+003,9.591266e+000
2.142575e+003,9.921747e+000
2.143539e+003,1.137485e+001
2.144503e+003,1.352477e+001
2.145468e+003,1.529689e+001
2.146432e+003,1.476581e+001
2.147396e+003,1.292130e+001
2.148360e+003,1.182392e+001
2.149325e+003,1.157216e+001
2.150289e+003,1.106558e+001
2.151253e+003,1.008606e+001
2.152217e+003,9.584192e+000
2.153182e+003,1.012125e+001
2.154146e+003,1.141437e+001
2.155110e+003,1.381585e+001
2.156074e+003,1.587611e+001
2.157039e+003,1.539252e+001
2.158003e+003,1.347778e+001
2.158967e+003,1.123048e+001
2.159931e+003,9.462842e+000
2.160896e+003,1.017323e+001
2.161860e+003,1.269002e+001
2.162824e+003,1.426147e+001
2.163788e+003,1.435485e+001
2.164752e+003,1.467057e+001
2.165717e+003,1.598158e+001
2.166681e+003,1.664170e+001
2.167645e+003,1.501981e+001
2.168609e+003,1.293030e+001
2.169573e+003,1.323821e+001
2.170538e+003,1.466806e+001
2.171502e+003,1.478495e+001
2.172466e+003,1.392722e+001
2.173430e+003,1.269561e+001
2.174395e+003,1.146984e+001
2.175359e+003,1.132114e+001
2.176323e+003,1.215841e+001
2.177287e+003,1.261131e+001
2.178252e+003,1.212099e+001
2.179216e+003,1.103682e+001
2.180180e+003,9.614978e+000
2.181144e+003,8.599951e+000
2.182109e+003,9.040350e+000
2.183073e+003,1.015352e+001
2.184037e+003,1.061893e+001
2.185001e+003,1.051686e+001
2.185966e+003,9.765930e+000
2.186930e+003,8.749695e+000
2.187894e+003,8.519506e+000
2.188858e+003,9.138605e+000
2.189823e+003,1.030027e+001
2.190787e+003,1.171464e+001
2.191751e+003,1.261271e+001
2.192715e+003,1.264514e+001
2.193679e+003,1.227246e+001
2.194644e+003,1.183274e+001
2.195608e+003,1.156483e+001
2.196572e+003,1.199630e+001
2.197536e+003,1.282758e+001
2.198500e+003,1.357001e+001
2.199465e+003,1.404940e+001
2.200429e+003,1.332745e+001
2.201393e+003,1.182764e+001
2.202357e+003,1.157809e+001
2.203322e+003,1.267116e+001
2.204286e+003,1.318978e+001
2.205250e+003,1.250394e+001
2.206214e+003,1.200411e+001
2.207179e+003,1.264598e+001
2.208143e+003,1.370658e+001
2.209107e+003,1.436884e+001
2.210071e+003,1.479884e+001
2.211036e+003,1.563669e+001
2.212000e+003,1.631978e+001
2.212964e+003,1.477241e+001
2.213928e+003,1.202343e+001
2.214893e+003,1.148967e+001
2.215857e+003,1.303854e+001
2.216821e+003,1.458447e+001
2.217785e+003,1.539783e+001
2.218750e+003,1.502776e+001
2.219714e+003,1.346299e+001
2.220678e+003,1.254914e+001
2.221642e+003,1.382345e+001
2.222606e+003,1.623447e+001
2.223571e+003,1.904078e+001
2.224535e+003,2.137054e+001
2.225499e+003,2.075893e+001
2.226463e+003,1.901579e+001
2.227427e+003,2.046415e+001
2.228392e+003,2.392784e+001
2.229356e+003,2.557056e+001
2.230320e+003,2.536022e+001
2.231284e+003,2.559211e+001
2.232249e+003,2.685453e+001
2.233213e+003,2.792089e+001
2.234177e+003,2.821620e+001
2.235141e+003,2.911990e+001
2.236106e+003,3.206085e+001
2.237070e+003,3.541021e+001
2.238034e+003,3.712034e+001
2.238998e+003,3.798665e+001
2.239963e+003,3.896807e+001
2.240927e+003,4.012050e+001
2.241891e+003,4.149280e+001
2.242855e+003,4.308693e+001
2.243820e+003,4.464708e+001
2.244784e+003,4.638808e+001
2.245748e+003,4.942030e+001
2.246712e+003,5.369758e+001
2.247677e+003,5.698720e+001
2.248641e+003,5.812580e+001
2.249605e+003,5.879974e+001
2.250569e+003,6.024410e+001
2.251533e+003,6.182034e+001
2.252498e+003,6.337536e+001
2.253462e+003,6.428802e+001
2.254426e+003,6.353152e+001
2.255390e+003,6.206084e+001
2.256354e+003,6.094952e+001
2.257319e+003,6.022924e+001
2.258283e+003,6.031118e+001
2.259247e+003,6.050520e+001
2.260211e+003,5.850360e+001
2.261176e+003,5.394196e+001
2.262140e+003,4.954237e+001
2.263104e+003,4.635726e+001
2.264068e+003,4.390117e+001
2.265033e+003,4.264205e+001
2.265997e+003,4.104360e+001
2.266961e+003,3.770123e+001
2.267925e+003,3.418707e+001
2.268890e+003,3.170687e+001
2.269854e+003,2.974460e+001
2.270818e+003,2.783782e+001
2.271782e+003,2.590945e+001
2.272747e+003,2.385882e+001
2.273711e+003,2.178751e+001
2.274675e+003,1.996110e+001
2.275639e+003,1.842396e+001
2.276604e+003,1.755906e+001
2.277568e+003,1.805374e+001
2.278532e+003,1.798770e+001
2.279496e+003,1.631610e+001
2.280460e+003,1.468279e+001
2.281425e+003,1.342473e+001
2.282389e+003,1.268726e+001
2.283353e+003,1.333344e+001
2.284317e+003,1.389855e+001
2.285281e+003,1.253317e+001
2.286246e+003,1.038070e+001
2.287210e+003,9.452716e+000
2.288174e+003,9.627118e+000
2.289138e+003,9.901202e+000
2.290103e+003,1.030714e+001
2.291067e+003,1.051436e+001
2.292031e+003,1.104252e+001
2.292995e+003,1.033536e+001
2.293960e+003,7.017874e+000
2.294924e+003,4.869650e+000
2.295888e+003,5.204489e+000
2.296852e+003,6.099353e+000
2.297817e+003,6.937979e+000
2.298781e+003,7.437247e+000
2.299745e+003,7.281430e+000
2.300709e+003,6.761490e+000
2.301674e+003,6.247891e+000
2.302638e+003,5.792184e+000
2.303602e+003,5.818259e+000
2.304566e+003,6.377768e+000
2.305531e+003,6.051669e+000
2.306495e+003,4.713953e+000
2.307459e+003,3.973733e+000
2.308423e+003,4.054709e+000
2.309387e+003,3.576276e+000
2.310352e+003,2.094476e+000
2.311316e+003,1.244290e+000
2.312280e+003,1.884152e+000
2.313244e+003,2.714240e+000
2.314208e+003,2.590109e+000
2.315173e+003,2.303534e+000
2.316137e+003,3.218881e+000
2.317101e+003,4.462302e+000
2.318065e+003,3.110651e+000
2.319030e+003,1.621796e-001
2.319994e+003,-9.643555e-004
2.320958e+003,1.860205e+000
2.321922e+003,2.343009e+000
2.322887e+003,1.478134e+000
2.323851e+003,1.128192e+000
2.324815e+003,1.605408e+000
2.325779e+003,2.279010e+000
2.326744e+003,2.803589e+000
2.327708e+003,2.674286e+000
2.328672e+003,1.532077e+000
2.329636e+003,2.572876e-001
2.330601e+003,-3.565521e-001
2.331565e+003,-5.839661e-001
2.332529e+003,-6.918488e-001
2.333493e+003,-6.317688e-001
2.334458e+003,6.240845e-003
2.335422e+003,5.476685e-001
2.336386e+003,-8.917236e-002
2.337350e+003,-1.371121e+000
2.338314e+003,-2.465262e+000
2.339279e+003,-3.161316e+000
2.340243e+003,-3.259778e+000
2.341207e+003,-2.845850e+000
2.342171e+003,-2.745047e+000
2.343135e+003,-3.298111e+000
2.344100e+003,-3.746292e+000
2.345064e+003,-3.860205e+000
2.346028e+003,-3.760196e+000
2.346992e+003,-3.172226e+000
2.347957e+003,-2.743176e+000
2.348921e+003,-2.829831e+000
2.349885e+003,-3.165900e+000
2.350849e+003,-3.984756e+000
2.351814e+003,-4.644165e+000
2.352778e+003,-4.051611e+000
2.353742e+003,-2.793515e+000
2.354706e+003,-2.265131e+000
2.355671e+003,-2.408298e+000
2.356635e+003,-2.875690e+000
2.357599e+003,-3.945087e+000
2.358563e+003,-4.110300e+000
2.359528e+003,-2.730997e+000
2.360492e+003,-2.794467e+000
2.361456e+003,-5.164075e+000
2.362420e+003,-6.657034e+000
2.363385e+003,-6.215756e+000
2.364349e+003,-5.474597e+000
2.365313e+003,-5.293976e+000
2.366277e+003,-5.123843e+000
2.367241e+003,-4.452395e+000
2.368206e+003,-3.495633e+000
2.369170e+003,-2.436591e+000
2.370134e+003,-1.768481e+000
2.371098e+003,-3.750577e+000
2.372063e+003,-7.247278e+000
2.373027e+003,-6.697687e+000
2.373991e+003,-3.424405e+000
2.374955e+003,-3.200269e+000
2.375919e+003,-5.560919e+000
2.376884e+003,-6.326209e+000
2.377848e+003,-5.002710e+000
2.378812e+003,-3.656577e+000
2.379776e+003,-3.104431e+000
2.380741e+003,-3.238782e+000
2.381705e+003,-4.020999e+000
2.382669e+003,-4.750308e+000
2.383633e+003,-5.210730e+000
2.384598e+003,-4.862085e+000
2.385562e+003,-2.085144e+000
2.386526e+003,1.860504e-001
2.387490e+003,-1.113849e+000
2.388455e+003,-3.322684e+000
2.389419e+003,-4.000894e+000
2.390383e+003,-3.784644e+000
2.391347e+003,-3.402893e+000
2.392312e+003,-3.243329e+000
2.393276e+003,-4.403693e+000
2.394240e+003,-6.535892e+000
2.395204e+003,-6.229892e+000
2.396168e+003,-2.182022e+000
2.397133e+003,2.625732e-002
2.398097e+003,-1.072598e+000
2.399061e+003,-1.734015e+000
2.400025e+003,-1.417041e+000
2.400990e+003,-1.480090e+000
2.401954e+003,-2.367435e+000
2.402918e+003,-3.420132e+000
2.403882e+003,-4.532535e+000
2.404846e+003,-5.037030e+000
2.405811e+003,-4.318347e+000
2.406775e+003,-2.807330e+000
2.407739e+003,-9.817200e-001
2.408703e+003,5.667877e-001
2.409668e+003,-8.750610e-002
2.410632e+003,-2.335803e+000
2.411596e+003,-2.932257e+000
2.412560e+003,-2.308185e+000
2.413525e+003,-2.329651e+000
2.414489e+003,-2.895773e+000
2.415453e+003,-3.005832e+000
2.416417e+003,-2.604993e+000
2.417382e+003,-2.435718e+000
2.418346e+003,-2.563019e+000
2.419310e+003,-1.917835e+000
2.420274e+003,-1.148590e-001
2.421239e+003,1.265182e+000
2.422203e+003,1.195755e+000
2.423167e+003,5.501801e-001
2.424131e+003,-7.529785e-001
2.425095e+003,-1.472058e+000
2.426060e+003,7.221679e-002
2.427024e+003,1.492920e+000
2.427988e+003,5.062531e-001
2.428952e+003,-1.039331e+000
2.429917e+003,-1.182571e+000
2.430881e+003,-6.280548e-001
2.431845e+003,-8.187897e-001
2.432809e+003,-1.444855e+000
2.433773e+003,-8.807831e-001
2.434738e+003,8.799896e-001
2.435702e+003,1.317346e+000
2.436666e+003,-2.576874e-001
2.437630e+003,-5.110596e-001
2.438595e+003,9.749268e-001
2.439559e+003,1.767239e+000
2.440523e+003,1.445993e+000
2.441487e+003,1.679617e+000
2.442452e+003,2.990326e+000
2.443416e+003,3.573410e+000
2.444380e+003,2.513669e+000
2.445344e+003,1.482663e+000
2.446309e+003,1.863452e+000
2.447273e+003,3.082364e+000
2.448237e+003,4.480795e+000
2.449201e+003,5.966952e+000
2.450166e+003,7.995377e+000
2.451130e+003,9.575739e+000
2.452094e+003,8.459036e+000
2.453058e+003,6.201743e+000
2.454022e+003,5.216608e+000
2.454987e+003,5.041892e+000
2.455951e+003,4.315127e+000
2.456915e+003,3.308588e+000
2.457879e+003,3.286609e+000
2.458844e+003,4.272369e+000
2.459808e+003,4.995050e+000
2.460772e+003,5.101660e+000
2.461736e+003,5.329065e+000
2.462700e+003,5.570346e+000
2.463665e+003,6.306543e+000
2.464629e+003,8.998364e+000
2.465593e+003,9.889185e+000
2.466557e+003,7.207211e+000
2.467522e+003,4.672104e+000
2.468486e+003,3.570874e+000
2.469450e+003,3.764508e+000
2.470414e+003,5.378983e+000
2.471379e+003,7.509753e+000
2.472343e+003,9.159601e+000
2.473307e+003,1.005174e+001
2.474271e+003,9.426453e+000
2.475236e+003,7.865366e+000
2.476200e+003,7.179877e+000
2.477164e+003,7.202628e+000
2.478128e+003,7.586273e+000
2.479093e+003,8.202667e+000
2.480057e+003,8.906931e+000
2.481021e+003,9.512525e+000
2.481985e+003,9.313721e+000
2.482949e+003,8.728394e+000
2.483914e+003,9.901770e+000
2.484878e+003,1.294716e+001
2.485842e+003,1.405181e+001
2.486806e+003,1.147845e+001
2.487771e+003,9.042475e+000
2.488735e+003,7.290802e+000
2.489699e+003,7.224618e+000
2.490663e+003,1.084825e+001
2.491627e+003,1.358821e+001
2.492592e+003,1.380907e+001
2.493556e+003,1.291536e+001
2.494520e+003,1.065775e+001
2.495484e+003,9.377502e+000
2.496449e+003,1.140876e+001
2.497413e+003,1.437336e+001
2.498377e+003,1.481242e+001
2.499341e+003,1.372080e+001
2.500306e+003,1.365027e+001
2.501270e+003,1.440948e+001
2.502234e+003,1.523097e+001
2.503198e+003,1.599405e+001
2.504163e+003,1.612044e+001
2.505127e+003,1.579105e+001
2.506091e+003,1.567736e+001
2.507055e+003,1.577366e+001
2.508020e+003,1.563466e+001
2.508984e+003,1.535168e+001
2.509948e+003,1.555718e+001
2.510912e+003,1.639285e+001
2.511876e+003,1.736058e+001
2.512841e+003,1.839719e+001
2.513805e+003,1.911440e+001
2.514769e+003,1.896835e+001
2.515733e+003,1.910510e+001
2.516698e+003,2.018867e+001
2.517662e+003,2.095950e+001
2.518626e+003,2.071009e+001
2.519590e+003,2.089537e+001
2.520554e+003,2.241817e+001
2.521519e+003,2.409616e+001
2.522483e+003,2.489798e+001
2.523447e+003,2.534420e+001
2.524411e+003,2.627991e+001
2.525376e+003,2.734266e+001
2.526340e+003,2.726480e+001
2.527304e+003,2.659020e+001
2.528268e+003,2.716453e+001
2.529233e+003,2.870687e+001
2.530197e+003,3.050845e+001
2.531161e+003,3.268227e+001
2.532125e+003,3.628762e+001
2.533090e+003,4.025035e+001
2.534054e+003,4.155065e+001
2.535018e+003,4.062835e+001
2.535982e+003,4.098997e+001
2.536947e+003,4.334554e+001
2.537911e+003,4.505913e+001
2.538875e+003,4.516953e+001
2.539839e+003,4.556191e+001
2.540803e+003,4.638528e+001
2.541768e+003,4.772639e+001
2.542732e+003,4.993026e+001
2.543696e+003,5.174744e+001
2.544660e+003,5.297644e+001
2.545625e+003,5.358988e+001
2.546589e+003,5.348546e+001
2.547553e+003,5.355834e+001
2.548517e+003,5.447258e+001
2.549482e+003,5.545549e+001
2.550446e+003,5.565649e+001
2.551410e+003,5.541601e+001
2.552374e+003,5.505038e+001
2.553339e+003,5.471743e+001
2.554303e+003,5.509583e+001
2.555267e+003,5.530994e+001
2.556231e+003,5.408417e+001
2.557196e+003,5.205411e+001
2.558160e+003,4.923791e+001
2.559124e+003,4.688292e+001
2.560088e+003,4.802562e+001
2.561052e+003,5.119764e+001
2.562017e+003,5.032555e+001
2.562981e+003,4.527876e+001
2.563945e+003,4.274699e+001
2.564909e+003,4.323836e+001
2.565874e+003,4.356033e+001
2.566838e+003,4.387542e+001
2.567802e+003,4.280881e+001
2.568766e+003,4.026268e+001
2.569730e+003,3.788146e+001
2.570695e+003,3.597503e+001
2.571659e+003,3.395461e+001
2.572623e+003,3.168269e+001
2.573587e+003,3.004648e+001
2.574552e+003,2.949678e+001
2.575516e+003,2.841590e+001
2.576480e+003,2.539167e+001
2.577444e+003,2.264730e+001
2.578409e+003,2.159283e+001
2.579373e+003,2.114352e+001
2.580337e+003,2.105748e+001
2.581301e+003,2.112329e+001
2.582266e+003,2.163353e+001
2.583230e+003,2.181241e+001
2.584194e+003,2.093837e+001
2.585158e+003,1.970732e+001
2.586123e+003,1.888677e+001
2.587087e+003,1.803275e+001
2.588051e+003,1.622429e+001
2.589015e+003,1.406529e+001
2.589979e+003,1.362979e+001
2.590944e+003,1.436943e+001
2.591908e+003,1.409164e+001
2.592872e+003,1.322679e+001
2.593836e+003,1.295004e+001
2.594801e+003,1.301087e+001
2.595765e+003,1.259913e+001
2.596729e+003,1.187983e+001
2.597693e+003,1.157054e+001
2.598657e+003,1.158949e+001
2.599622e+003,1.104099e+001
2.600586e+003,9.791449e+000
2.601550e+003,9.300455e+000
2.602514e+003,1.036266e+001
2.603479e+003,1.036546e+001
2.604443e+003,8.814157e+000
2.605407e+003,7.683713e+000
2.606371e+003,7.289990e+000
2.607336e+003,6.542963e+000
2.608300e+003,5.183014e+000
2.609264e+003,4.317700e+000
2.610228e+003,4.284873e+000
2.611193e+003,3.730966e+000
2.612157e+003,1.954520e+000
2.613121e+003,9.716492e-001
2.614085e+003,2.532220e+000
2.615050e+003,4.580835e+000
2.616014e+003,5.674399e+000
2.616978e+003,6.219068e+000
2.617942e+003,6.772964e+000
2.618906e+003,6.564758e+000
2.619871e+003,4.479611e+000
2.620835e+003,2.161600e+000
2.621799e+003,4.053650e-001
2.622763e+003,-4.855316e-001
2.623728e+003,5.457153e-002
2.624692e+003,1.073831e+000
2.625656e+003,9.768646e-001
2.626620e+003,3.832336e-001
2.627584e+003,1.157584e+000
2.628549e+003,2.725110e+000
2.629513e+003,3.219788e+000
2.630477e+003,2.968140e+000
2.631441e+003,2.185059e+000
2.632406e+003,1.524924e+000
2.633370e+003,2.675128e+000
2.634334e+003,4.580423e+000
2.635298e+003,4.702161e+000
2.636263e+003,3.373023e+000
2.637227e+003,2.843845e+000
2.638191e+003,3.331586e+000
2.639155e+003,2.930566e+000
2.640120e+003,1.258875e+000
2.641084e+003,9.350799e-001
2.642048e+003,2.217667e+000
2.643012e+003,2.859256e+000
2.643977e+003,2.767456e+000
2.644941e+003,2.870578e+000
2.645905e+003,3.209433e+000
2.646869e+003,2.637915e+000
2.647833e+003,1.038617e+000
2.648798e+003,-2.149506e-001
2.649762e+003,-5.631164e-001
2.650726e+003,-5.600189e-001
2.651690e+003,-4.395111e-001
2.652655e+003,-3.431030e-001
2.653619e+003,-6.401062e-001
2.654583e+003,-4.265564e-001
2.655547e+003,1.289426e+000
2.656511e+003,2.367859e+000
2.657476e+003,2.032346e+000
2.658440e+003,1.463870e+000
2.659404e+003,1.165881e+000
2.660368e+003,6.099914e-001
2.661333e+003,-5.822418e-001
2.662297e+003,-1.287396e+000
2.663261e+003,-3.362793e-001
2.664225e+003,8.171844e-001
2.665190e+003,2.758179e-002
2.666154e+003,-1.140628e+000
2.667118e+003,-1.119562e+000
2.668082e+003,-2.753784e-001
2.669047e+003,2.118722e+000
2.670011e+003,3.957629e+000
2.670975e+003,2.892548e+000
2.671939e+003,6.925049e-001
2.672904e+003,-9.565704e-001
2.673868e+003,-1.938931e+000
2.674832e+003,-2.063284e+000
2.675796e+003,-1.608890e+000
2.676760e+003,-1.199832e+000
2.677725e+003,-9.432739e-001
2.678689e+003,-1.621979e+000
2.679653e+003,-2.590659e+000
2.680617e+003,-1.605841e+000
2.681582e+003,3.021698e-001
2.682546e+003,9.450928e-001
2.683510e+003,7.955261e-001
2.684474e+003,1.180753e+000
2.685438e+003,1.893314e+000
2.686403e+003,1.855682e+000
2.687367e+003,1.161078e+000
2.688331e+003,1.206915e+000
2.689295e+003,2.084290e+000
2.690260e+003,3.046490e+000
2.691224e+003,4.216583e+000
2.692188e+003,3.974307e+000
2.693152e+003,2.374036e+000
2.694117e+003,1.701120e+000
2.695081e+003,2.016773e+000
2.696045e+003,2.189807e+000
2.697009e+003,1.984561e+000
2.697974e+003,1.305991e+000
2.698938e+003,3.976715e-001
2.699902e+003,7.984741e-001
2.700866e+003,3.139413e+000
2.701831e+003,4.379584e+000
2.702795e+003,3.004083e+000
2.703759e+003,1.865143e+000
2.704723e+003,1.073532e+000
2.705688e+003,8.275421e-001
2.706652e+003,1.242401e+000
2.707616e+003,1.359888e+000
2.708580e+003,9.536499e-001
2.709544e+003,7.389526e-002
2.710509e+003,-1.150397e+000
2.711473e+003,-1.771515e+000
2.712437e+003,-1.282071e+000
2.713401e+003,-2.948669e-001
2.714365e+003,1.216022e+000
2.715330e+003,2.016998e+000
2.716294e+003,8.352966e-001
2.717258e+003,-1.990509e-001
2.718222e+003,-2.073151e-001
2.719187e+003,-1.160889e-001
2.720151e+003,-2.139130e-001
2.721115e+003,-2.257355e-001
2.722079e+003,-1.227417e-002
2.723044e+003,1.622070e-001
2.724008e+003,9.348450e-002
2.724972e+003,2.895874e-001
2.725936e+003,1.434705e+000
2.726901e+003,2.419711e+000
2.727865e+003,1.742975e+000
2.728829e+003,7.417237e-001
2.729793e+003,2.956177e-001
2.730758e+003,1.749817e-001
2.731722e+003,5.772308e-001
2.732686e+003,7.289947e-001
2.733650e+003,-2.468201e-001
2.734615e+003,-9.198944e-001
2.735579e+003,1.025818e-001
2.736543e+003,1.309229e+000
2.737507e+003,6.003113e-001
2.738471e+003,-9.005097e-001
2.739436e+003,-1.222046e+000
2.740400e+003,-7.870331e-001
2.741364e+003,2.687134e-001
2.742328e+003,1.071768e+000
2.743292e+003,1.074219e-002
2.744257e+003,-1.276227e+000
2.745221e+003,-6.668183e-001
2.746185e+003,5.064789e-001
2.747149e+003,2.222717e-001
2.748114e+003,-4.961029e-001
2.749078e+003,-2.805176e-002
2.750042e+003,1.099222e+000
2.751006e+003,1.493210e+000
2.751971e+003,1.286255e+000
2.752935e+003,9.646088e-001
2.753899e+003,4.096008e-001
2.754863e+003,-1.150272e+000
2.755828e+003,-2.666013e+000
2.756792e+003,-2.113071e+000
2.757756e+003,-6.341888e-001
2.758720e+003,-2.338226e-001
2.759685e+003,-4.796723e-001
2.760649e+003,5.015961e-001
2.761613e+003,1.814291e+000
2.762577e+003,1.479401e-001
2.763542e+003,-3.790094e+000
2.764506e+003,-4.137659e+000
2.765470e+003,-1.652972e+000
2.766434e+003,1.343964e-001
2.767398e+003,1.005420e+000
2.768363e+003,6.318359e-002
2.769327e+003,-1.708490e+000
2.770291e+003,-2.523254e+000
2.771255e+003,-2.210059e+000
2.772219e+003,-6.698456e-001
2.773184e+003,1.599109e+000
2.774148e+003,2.674249e+000
2.775112e+003,2.538394e+000
2.776076e+003,1.186319e+000
2.777041e+003,-1.397366e+000
2.778005e+003,-2.301642e+000
2.778969e+003,-1.767117e+000
2.779933e+003,-9.466888e-001
2.780898e+003,-8.972473e-002
2.781862e+003,6.369354e-001
2.782826e+003,1.057651e+000
2.783790e+003,7.101196e-001
2.784755e+003,-2.255798e-001
2.785719e+003,-9.746186e-001
2.786683e+003,-1.367456e+000
2.787647e+003,-6.845093e-001
2.788612e+003,1.359921e+000
2.789576e+003,1.313736e+000
2.790540e+003,-6.974945e-001
2.791504e+003,-1.050964e+000
2.792469e+003,4.574890e-002
2.793433e+003,4.670441e-001
2.794397e+003,4.081726e-002
2.795361e+003,-5.648285e-001
2.796325e+003,-1.230435e+000
2.797290e+003,-2.489032e+000
2.798254e+003,-4.253888e+000
2.799218e+003,-3.858594e+000
2.800182e+003,-5.444611e-001
2.801146e+003,2.880859e-001
2.802111e+003,-1.753973e+000
2.803075e+003,-7.384644e-001
2.804039e+003,3.056128e+000
2.805003e+003,4.669269e+000
2.805968e+003,3.821908e+000
2.806932e+003,2.140631e+000
2.807896e+003,5.032989e-001
2.808860e+003,8.570556e-002
2.809825e+003,9.270477e-001
2.810789e+003,1.334888e+000
2.811753e+003,8.747162e-001
2.812717e+003,5.456207e-001
2.813682e+003,3.403259e-001
2.814646e+003,3.418854e-001
2.815610e+003,5.678467e-001
2.816574e+003,1.014063e+000
2.817539e+003,1.626209e+000
2.818503e+003,2.435345e+000
2.819467e+003,3.121228e+000
2.820431e+003,2.379855e+000
2.821396e+003,4.469422e-001
2.822360e+003,4.075012e-002
2.823324e+003,1.898450e+000
2.824288e+003,3.570303e+000
2.825252e+003,5.463687e+000
2.826217e+003,4.267297e+000
2.827181e+003,-1.418976e-001
2.828145e+003,-8.233856e-001
2.829109e+003,1.836517e+000
2.830073e+003,1.445163e+000
2.831038e+003,-1.837131e+000
2.832002e+003,-3.179883e+000
2.832966e+003,-1.866498e+000
2.833930e+003,-2.304474e-001
2.834895e+003,1.161722e+000
2.835859e+003,2.282852e+000
2.836823e+003,3.286472e+000
2.837787e+003,3.223471e+000
2.838752e+003,2.030261e+000
2.839716e+003,9.486908e-001
2.840680e+003,1.647491e-001
2.841644e+003,3.857361e-001
2.842609e+003,1.368979e+000
2.843573e+003,2.318893e+000
2.844537e+003,2.879333e+000
2.845501e+003,2.378320e+000
2.846466e+003,7.878388e-001
2.847430e+003,-1.959076e-001
2.848394e+003,-3.225555e-001
2.849358e+003,-7.139648e-001
2.850323e+003,-1.380692e+000
2.851287e+003,-1.943817e+000
2.852251e+003,-2.248209e+000
2.853215e+003,-1.045758e+000
2.854179e+003,1.126199e+000
2.855144e+003,2.425452e+000
2.856108e+003,2.585620e+000
2.857072e+003,1.873193e+000
2.858036e+003,5.503753e-001
2.859000e+003,-4.054871e-001
2.859965e+003,-9.384003e-001
2.860929e+003,-8.533905e-001
2.861893e+003,-1.639404e-001
2.862857e+003,4.545990e-001
2.863822e+003,9.722473e-001
2.864786e+003,8.816803e-001
2.865750e+003,5.467651e-001
2.866714e+003,1.353333e+000
2.867679e+003,2.673023e+000
2.868643e+003,2.310770e+000
2.869607e+003,6.437927e-001
2.870571e+003,5.297882e-001
2.871536e+003,1.875049e+000
2.872500e+003,3.405325e+000
2.873464e+003,5.000601e+000
2.874428e+003,4.276398e+000
2.875393e+003,1.922711e+000
2.876357e+003,-2.421265e-001
2.877321e+003,-1.737631e+000
2.878285e+003,-1.750561e+000
2.879250e+003,-8.094360e-001
2.880214e+003,3.322876e-001
2.881178e+003,1.285706e+000
2.882142e+003,1.360391e+000
2.883106e+003,7.956330e-001
2.884071e+003,3.161530e-001
2.885035e+003,8.309631e-002
2.885999e+003,1.639536e+000
2.886963e+003,3.711966e+000
2.887927e+003,2.508264e+000
2.888892e+003,2.532349e-001
2.889856e+003,9.308411e-001
2.890820e+003,2.869528e+000
2.891784e+003,3.118359e+000
2.892749e+003,2.329865e+000
2.893713e+003,1.866965e+000
2.894677e+003,1.710236e+000
2.895641e+003,1.875253e+000
2.896606e+003,2.137527e+000
2.897570e+003,1.670538e+000
2.898534e+003,1.134464e+000
2.899498e+003,1.859302e+000
2.900463e+003,2.839255e+000
2.901427e+003,3.235648e+000
2.902391e+003,2.892480e+000
2.903355e+003,1.200272e+000
2.904320e+003,-5.503265e-001
2.905284e+003,-1.097678e+000
2.906248e+003,-8.350403e-001
2.907212e+003,-2.535095e-001
2.908177e+003,5.909179e-001
2.909141e+003,2.035944e+000
2.910105e+003,3.091733e+000
2.911069e+003,2.178329e+000
2.912033e+003,1.080322e+000
2.912998e+003,1.605633e+000
2.913962e+003,1.840366e+000
2.914926e+003,4.197388e-001
2.915890e+003,-1.155313e+000
2.916854e+003,-1.842380e+000
2.917819e+003,-1.551297e+000
2.918783e+003,-1.161194e-002
2.919747e+003,1.324393e+000
2.920711e+003,4.958557e-001
2.921676e+003,-4.303101e-001
2.922640e+003,-1.139954e-001
2.923604e+003,4.105042e-001
2.924568e+003,9.826996e-001
2.925533e+003,9.904510e-001
2.926497e+003,6.642151e-002
2.927461e+003,-3.473541e-001
2.928425e+003,6.529480e-001
2.929390e+003,4.343262e-001
2.930354e+003,-3.568079e+000
2.931318e+003,-6.209125e+000
2.932282e+003,-2.586389e+000
2.933247e+003,2.919373e-001
2.934211e+003,1.064468e+000
2.935175e+003,1.630337e+000
2.936139e+003,1.712845e+000
2.937104e+003,1.461484e+000
2.938068e+003,1.042789e+000
2.939032e+003,1.019080e+000
2.939996e+003,1.502109e+000
2.940960e+003,2.047482e+000
2.941925e+003,2.456653e+000
2.942889e+003,2.504166e+000
2.943853e+003,2.171252e+000
2.944817e+003,1.246964e+000
2.945781e+003,-5.297272e-001
2.946746e+003,-1.399780e+000
2.947710e+003,-1.272583e+000
2.948674e+003,4.095673e-001
2.949638e+003,2.831424e+000
2.950603e+003,2.375497e+000
2.951567e+003,-4.433990e-001
2.952531e+003,-1.154804e+000
2.953495e+003,8.255035e-001
2.954460e+003,2.125961e+000
2.955424e+003,2.621372e+000
2.956388e+003,1.517535e+000
2.957352e+003,-8.456329e-001
2.958317e+003,-5.355102e-001
2.959281e+003,1.304480e+000
2.960245e+003,1.176816e+000
2.961209e+003,-1.179016e-001
2.962174e+003,-5.852844e-001
2.963138e+003,-3.526550e-001
2.964102e+003,-2.275421e-001
2.965066e+003,-8.413391e-002
2.966031e+003,5.313690e-001
2.966995e+003,1.289575e+000
2.967959e+003,7.683838e-001
2.968923e+003,-1.363495e-001
2.969887e+003,6.241608e-001
2.970852e+003,2.002231e+000
2.971816e+003,3.172583e+000
2.972780e+003,3.760815e+000
2.973744e+003,3.303317e+000
2.974708e+003,2.315576e+000
2.975673e+003,1.072833e+000
2.976637e+003,-2.491760e-002
2.977601e+003,-5.621368e-001
2.978565e+003,-4.997101e-001
2.979530e+003,9.706573e-001
2.980494e+003,2.034741e+000
2.981458e+003,4.746643e-001
2.982422e+003,-8.120178e-001
2.983387e+003,5.194397e-002
2.984351e+003,5.669006e-001
2.985315e+003,-1.902527e-001
2.986279e+003,-6.740417e-001
2.987244e+003,-1.249390e-001
2.988208e+003,4.272980e-001
2.989172e+003,3.426361e-001
2.990136e+003,-2.281036e-001
2.991101e+003,-1.816046e+000
2.992065e+003,-2.418860e+000
2.993029e+003,-1.305206e+000
2.993993e+003,-2.222076e-001
2.994958e+003,6.214081e-001
2.995922e+003,2.028897e+000
2.996886e+003,3.811624e+000
2.997850e+003,3.306821e+000
2.998814e+003,5.493194e-001
2.999779e+003,-5.102844e-001
3.000743e+003,1.180984e+000
3.001707e+003,2.007318e+000
3.002671e+003,1.550906e+000
3.003635e+003,1.409644e+000
3.004600e+003,1.515533e+000
3.005564e+003,8.412506e-001
3.006528e+003,-3.728729e-001
3.007492e+003,-1.740457e+000
3.008457e+003,-2.559631e+000
3.009421e+003,-1.073376e+000
3.010385e+003,1.715628e+000
3.011349e+003,3.169531e+000
3.012314e+003,3.380783e+000
3.013278e+003,2.521622e+000
3.014242e+003,1.006436e+000
3.015206e+003,-2.166443e-002
3.016171e+003,-5.077972e-001
3.017135e+003,7.760926e-002
3.018099e+003,8.229248e-001
3.019063e+003,5.080169e-001
3.020028e+003,2.484436e-001
3.020992e+003,1.212546e+000
3.021956e+003,1.935156e+000
3.022920e+003,1.064124e+000
3.023885e+003,5.838013e-002
3.024849e+003,7.521240e-001
3.025813e+003,1.258383e+000
3.026777e+003,-1.060403e+000
3.027741e+003,-2.869333e+000
3.028706e+003,-2.052838e+000
3.029670e+003,-1.041116e+000
3.030634e+003,-2.581726e-001
3.031598e+003,-2.734680e-001
3.032563e+003,-1.206671e+000
3.033527e+003,-1.543484e+000
3.034491e+003,-6.911316e-001
3.035455e+003,1.051788e-001
3.036420e+003,3.374603e-001
3.037384e+003,2.153259e-001
3.038348e+003,-3.696808e-001
3.039312e+003,-9.905792e-001
3.040277e+003,-1.620349e+000
3.041241e+003,-1.552390e+000
3.042205e+003,-8.550262e-001
3.043169e+003,1.388855e-001
3.044134e+003,1.148941e+000
3.045098e+003,1.877033e+000
3.046062e+003,2.034335e+000
3.047026e+003,7.957001e-001
3.047990e+003,-1.421548e+000
3.048955e+003,-2.961719e+000
3.049919e+003,-3.711029e+000
3.050883e+003,-2.618454e+000
3.051847e+003,-8.269104e-001
3.052812e+003,-5.927429e-002
3.053776e+003,3.993530e-002
3.054740e+003,-3.861145e-001
3.055704e+003,-7.220947e-001
3.056668e+003,-2.675110e-001
3.057633e+003,-5.520325e-002
3.058597e+003,-1.394171e+000
3.059561e+003,-2.495337e+000
3.060525e+003,-3.537964e-001
3.061490e+003,1.703098e+000
3.062454e+003,6.364807e-001
3.063418e+003,-4.441071e-001
3.064382e+003,-2.189056e-001
3.065347e+003,-4.518372e-001
3.066311e+003,-1.633575e+000
3.067275e+003,-2.116272e+000
3.068239e+003,-1.304770e+000
3.069204e+003,6.302796e-002
3.070168e+003,1.625122e+000
3.071132e+003,2.053174e+000
3.072096e+003,3.487640e-001
3.073061e+003,-8.495606e-001
3.074025e+003,-1.493848e+000
3.074989e+003,-1.469119e+000
3.075953e+003,-9.355408e-001
3.076917e+003,-4.344727e-001
3.077882e+003,-5.564880e-002
3.078846e+003,4.167908e-001
3.079810e+003,7.904205e-001
3.080774e+003,4.449463e-002
3.081739e+003,-1.153784e+000
3.082703e+003,-5.384064e-001
3.083667e+003,9.803345e-001
3.084631e+003,5.160523e-003
3.085595e+003,-1.753668e+000
3.086560e+003,-1.475650e+000
3.087524e+003,-5.516510e-001
3.088488e+003,-1.693634e-001
3.089452e+003,-3.072174e-001
3.090417e+003,-1.038898e+000
3.091381e+003,-1.508878e+000
3.092345e+003,-1.036484e+000
3.093309e+003,-4.969055e-001
3.094274e+003,-8.096466e-001
3.095238e+003,-9.167541e-001
3.096202e+003,4.002503e-001
3.097166e+003,1.066837e+000
3.098131e+003,6.213501e-001
3.099095e+003,-4.575195e-002
3.100059e+003,-7.696106e-001
3.101023e+003,-1.509457e+000
3.101988e+003,-2.132660e+000
3.102952e+003,-2.144836e+000
3.103916e+003,-1.478565e+000
3.104880e+003,-5.107208e-001
3.105844e+003,7.336792e-001
3.106809e+003,3.030457e-001
3.107773e+003,-1.597238e+000
3.108737e+003,-2.667978e+000
3.109701e+003,-3.092831e+000
3.110666e+003,-3.463803e+000
3.111630e+003,-3.498077e+000
3.112594e+003,-2.187057e+000
3.113558e+003,-7.284638e-001
3.114522e+003,-6.729248e-001
3.115487e+003,-1.417621e+000
3.116451e+003,-2.201434e+000
3.117415e+003,-2.758554e+000
3.118379e+003,-2.672177e+000
3.119344e+003,-2.239645e+000
3.120308e+003,-1.031906e+000
3.121272e+003,-8.217255e-001
3.122236e+003,-2.562158e+000
3.123201e+003,-3.699457e+000
3.124165e+003,-3.423807e+000
3.125129e+003,-2.436093e+000
3.126093e+003,-1.139093e+000
3.127058e+003,6.976318e-002
3.128022e+003,1.143225e+000
3.128986e+003,7.378113e-001
3.129950e+003,-1.879404e+000
3.130915e+003,-3.095544e+000
3.131879e+003,-3.050027e+000
3.132843e+003,-3.564087e+000
3.133807e+003,-4.244143e+000
3.134771e+003,-3.337286e+000
3.135736e+003,-1.482880e+000
3.136700e+003,-1.295929e-001
3.137664e+003,4.321198e-001
3.138628e+003,-1.334717e-001
3.139593e+003,-1.524081e+000
3.140557e+003,-3.818906e+000
3.141521e+003,-5.488721e+000
3.142485e+003,-3.234097e+000
3.143449e+003,-5.648987e-001
3.144414e+003,3.272034e-001
3.145378e+003,-5.033814e-001
3.146342e+003,-3.470694e+000
3.147306e+003,-4.710916e+000
3.148271e+003,-2.516559e+000
3.149235e+003,-3.394135e-001
3.150199e+003,-8.093872e-002
3.151163e+003,-9.826538e-001
3.152128e+003,-3.814545e+000
3.153092e+003,-4.612030e+000
3.154056e+003,-3.071396e+000
3.155020e+003,-2.082898e+000
3.155985e+003,-1.813446e+000
3.156949e+003,-2.006064e+000
3.157913e+003,-2.288852e+000
3.158877e+003,-1.788239e+000
3.159842e+003,-9.497345e-001
3.160806e+003,-1.305850e+000
3.161770e+003,-2.203299e+000
3.162734e+003,-1.726154e+000
3.163698e+003,-7.063233e-001
3.164663e+003,-1.084927e+000
3.165627e+003,-1.805289e+000
3.166591e+003,-2.016644e+000
3.167555e+003,-1.656528e+000
3.168520e+003,-4.298401e-001
3.169484e+003,1.697693e-002
3.170448e+003,-1.077655e+000
3.171412e+003,-2.010150e+000
3.172376e+003,-1.786694e+000
3.173341e+003,-8.014923e-001
3.174305e+003,1.437387e+000
3.175269e+003,2.118341e+000
3.176233e+003,8.763183e-001
3.177198e+003,-1.104059e+000
3.178162e+003,-3.411670e+000
3.179126e+003,-3.690582e+000
3.180090e+003,-2.475992e+000
3.181055e+003,-1.884332e+000
3.182019e+003,-1.911050e+000
3.182983e+003,-1.545581e+000
3.183947e+003,-9.635315e-001
3.184912e+003,-6.119537e-001
3.185876e+003,-5.301544e-001
3.186840e+003,-9.264832e-001
3.187804e+003,-1.523743e+000
3.188769e+003,-2.219232e+000
3.189733e+003,-2.660977e+000
3.190697e+003,-2.710251e+000
3.191661e+003,-2.426022e+000
3.192625e+003,-1.827158e+000
3.193590e+003,-1.427454e+000
3.194554e+003,-1.496912e+000
3.195518e+003,-1.936932e+000
3.196482e+003,-2.902249e+000
3.197447e+003,-3.338132e+000
3.198411e+003,-3.213184e+000
3.199375e+003,-2.360449e+000
3.200339e+003,-8.800476e-001
3.201303e+003,1.526218e+000
3.202268e+003,3.589593e+000
3.203232e+003,1.616159e+000
3.204196e+003,-2.232877e+000
3.205160e+003,-2.816766e+000
3.206125e+003,-1.685083e+000
3.207089e+003,-1.665738e+000
3.208053e+003,-2.174600e+000
3.209017e+003,-2.525757e+000
3.209982e+003,-2.482394e+000
3.210946e+003,-1.476633e+000
3.211910e+003,-5.483368e-001
3.212874e+003,1.866150e-002
3.213839e+003,-1.564972e-001
3.214803e+003,-1.107053e+000
3.215767e+003,-1.483575e+000
3.216731e+003,-8.375580e-001
3.217696e+003,-8.665680e-001
3.218660e+003,-2.380957e+000
3.219624e+003,-2.751233e+000
3.220588e+003,-1.900922e+000
3.221552e+003,-2.083392e+000
3.222517e+003,-2.743915e+000
3.223481e+003,-1.775772e+000
3.224445e+003,-3.582214e-001
3.225409e+003,-1.124548e+000
3.226374e+003,-2.141244e+000
3.227338e+003,-9.010407e-001
3.228302e+003,5.955292e-001
3.229266e+003,-1.908569e-001
3.230230e+003,-1.542126e+000
3.231195e+003,-1.678757e+000
3.232159e+003,-1.523142e+000
3.233123e+003,-1.428177e+000
3.234087e+003,-1.235745e+000
3.235052e+003,-9.179840e-001
3.236016e+003,-9.404114e-001
3.236980e+003,-1.336765e+000
3.237944e+003,-1.895972e+000
3.238909e+003,-2.381187e+000
3.239873e+003,-1.430145e+000
3.240837e+003,6.230286e-001
3.241801e+003,5.178406e-001
3.242766e+003,-1.022586e+000
3.243730e+003,-7.277649e-001
3.244694e+003,-1.379669e-001
3.245658e+003,-2.411853e+000
3.246623e+003,-4.284081e+000
3.247587e+003,-2.442537e+000
3.248551e+003,-9.307801e-001
3.249515e+003,-2.351572e+000
3.250479e+003,-3.909550e+000
3.251444e+003,-3.542563e+000
3.252408e+003,-2.675006e+000
3.253372e+003,-1.360632e+000
3.254336e+003,-1.501709e+000
3.255301e+003,-3.358766e+000
3.256265e+003,-3.034634e+000
3.257229e+003,-9.831513e-001
3.258193e+003,-6.816314e-001
3.259157e+003,-1.875049e+000
3.260122e+003,-2.642064e+000
3.261086e+003,-2.763715e+000
3.262050e+003,-2.298531e+000
3.263014e+003,-1.569199e+000
3.263979e+003,-1.137280e+000
3.264943e+003,-1.084759e+000
3.265907e+003,-1.669128e+000
3.266871e+003,-2.469598e+000
3.267836e+003,-3.616772e+000
3.268800e+003,-3.910229e+000
3.269764e+003,-3.003564e+000
3.270728e+003,-2.099414e+000
3.271693e+003,-1.734462e+000
3.272657e+003,-2.428734e+000
3.273621e+003,-4.456229e+000
3.274585e+003,-3.803523e+000
3.275550e+003,-2.015717e-001
3.276514e+003,7.570953e-001
3.277478e+003,-4.882813e-003
3.278442e+003,2.214996e-001
3.279406e+003,4.438934e-001
3.280371e+003,-1.904408e+000
3.281335e+003,-4.017860e+000
3.282299e+003,-3.392310e+000
3.283263e+003,-1.723035e+000
3.284228e+003,-5.121094e-001
3.285192e+003,4.857727e-001
3.286156e+003,1.833813e+000
3.287120e+003,2.178201e+000
3.288084e+003,7.074615e-001
3.289049e+003,5.589997e-001
3.290013e+003,1.773248e+000
3.290977e+003,1.769052e+000
3.291941e+003,6.664154e-001
3.292906e+003,2.632416e-001
3.293870e+003,5.616577e-001
3.294834e+003,6.125153e-001
3.295798e+003,2.594177e-001
3.296763e+003,-1.509761e+000
3.297727e+003,-3.127473e+000
3.298691e+003,-1.058557e+000
3.299655e+003,1.155771e+000
3.300620e+003,1.138184e-001
3.301584e+003,-2.637329e-002
3.302548e+003,1.956134e+000
3.303512e+003,2.922989e+000
3.304477e+003,1.947742e+000
3.305441e+003,1.779141e+000
3.306405e+003,3.417593e+000
3.307369e+003,3.799262e+000
3.308333e+003,2.691208e+000
3.309298e+003,2.497928e+000
3.310262e+003,2.791730e+000
3.311226e+003,1.779590e+000
3.312190e+003,8.031708e-001
3.313155e+003,2.444925e+000
3.314119e+003,4.376077e+000
3.315083e+003,4.736972e+000
3.316047e+003,4.476352e+000
3.317011e+003,4.340796e+000
3.317976e+003,4.260169e+000
3.318940e+003,4.357849e+000
3.319904e+003,3.947363e+000
3.320868e+003,2.806119e+000
3.321833e+003,2.187701e+000
3.322797e+003,2.063785e+000
3.323761e+003,1.485138e+000
3.324725e+003,7.431488e-001
3.325690e+003,1.182672e+000
3.326654e+003,2.147528e+000
3.327618e+003,1.932971e+000
3.328582e+003,1.303925e+000
3.329547e+003,1.804803e+000
3.330511e+003,2.653293e+000
3.331475e+003,3.265985e+000
3.332439e+003,3.253613e+000
3.333404e+003,2.246988e+000
3.334368e+003,1.677289e+000
3.335332e+003,1.785318e+000
3.336296e+003,1.297559e+000
3.337260e+003,1.015015e-002
3.338225e+003,-9.944916e-001
3.339189e+003,-1.458098e+000
3.340153e+003,-1.748074e+000
3.341117e+003,-1.858839e+000
3.342082e+003,-1.870296e+000
3.343046e+003,-1.640570e+000
3.344010e+003,-3.964401e-001
3.344974e+003,4.478393e-001
3.345938e+003,-4.651138e-001
3.346903e+003,-1.168346e+000
3.347867e+003,-7.381714e-001
3.348831e+003,5.072403e-001
3.349795e+003,2.430459e+000
3.350760e+003,2.836929e+000
3.351724e+003,1.244507e-002
3.352688e+003,-5.371063e-001
3.353652e+003,9.777908e-001
3.354617e+003,2.787350e+000
3.355581e+003,4.207382e+000
3.356545e+003,3.880096e+000
3.357509e+003,2.578970e+000
3.358474e+003,1.261560e+000
3.359438e+003,4.274887e-001
3.360402e+003,5.269378e-001
3.361366e+003,1.340677e+000
3.362331e+003,3.320532e+000
3.363295e+003,4.092911e+000
3.364259e+003,2.043250e+000
3.365223e+003,1.126945e+000
3.366188e+003,1.514868e+000
3.367152e+003,1.557608e+000
3.368116e+003,1.096190e+000
3.369080e+003,5.682465e-001
3.370044e+003,-1.805527e-001
3.371009e+003,-1.817648e+000
3.371973e+003,-3.137080e+000
3.372937e+003,-1.409277e+000
3.373901e+003,1.080626e+000
3.374865e+003,1.655566e+000
3.375830e+003,1.846036e+000
3.376794e+003,2.407813e+000
3.377758e+003,2.056424e+000
3.378722e+003,7.118500e-001
3.379687e+003,2.977295e-001
3.380651e+003,1.143941e+000
3.381615e+003,2.410257e+000
3.382579e+003,3.552173e+000
3.383544e+003,2.503586e+000
3.384508e+003,2.629501e-001
3.385472e+003,4.085464e-001
3.386436e+003,1.587318e+000
3.387401e+003,2.673254e+000
3.388365e+003,3.136389e+000
3.389329e+003,2.650095e+000
3.390293e+003,2.828397e+000
3.391258e+003,4.167807e+000
3.392222e+003,4.291907e+000
3.393186e+003,2.255899e+000
3.394150e+003,2.517715e+000
3.395115e+003,5.566003e+000
3.396079e+003,6.089499e+000
3.397043e+003,5.105014e+000
3.398007e+003,5.590042e+000
3.398971e+003,6.997699e+000
3.399936e+003,9.177289e+000
3.400900e+003,1.033702e+001
3.401864e+003,9.341415e+000
3.402828e+003,8.228287e+000
3.403792e+003,8.385340e+000
3.404757e+003,9.483701e+000
3.405721e+003,1.212111e+001
3.406685e+003,1.285209e+001
3.407649e+003,1.158934e+001
3.408614e+003,1.203408e+001
3.409578e+003,1.380019e+001
3.410542e+003,1.595631e+001
3.411506e+003,1.742787e+001
3.412471e+003,1.649815e+001
3.413435e+003,1.557263e+001
3.414399e+003,1.701471e+001
3.415363e+003,1.928579e+001
3.416328e+003,2.128122e+001
3.417292e+003,2.258107e+001
3.418256e+003,2.279525e+001
3.419220e+003,2.348250e+001
3.420185e+003,2.452873e+001
3.421149e+003,2.358015e+001
3.422113e+003,2.145026e+001
3.423077e+003,2.083277e+001
3.424042e+003,2.159672e+001
3.425006e+003,2.303333e+001
3.425970e+003,2.436889e+001
3.426934e+003,2.448198e+001
