7.140112e+001,1.598686e+002
7.236536e+001,1.553235e+002
7.332959e+001,1.595747e+002
7.429382e+001,1.653817e+002
7.525806e+001,1.742714e+002
7.622229e+001,1.759378e+002
7.718652e+001,1.625561e+002
7.815076e+001,1.261213e+002
7.911499e+001,9.942993e+001
8.007922e+001,7.707839e+001
8.104346e+001,6.383727e+001
8.200769e+001,6.480908e+001
8.297192e+001,8.906543e+001
8.393616e+001,1.192947e+002
8.490039e+001,1.622238e+002
8.586462e+001,2.071584e+002
8.682886e+001,2.366108e+002
8.779310e+001,2.153361e+002
8.875733e+001,1.765487e+002
8.972157e+001,1.358604e+002
9.068580e+001,1.000692e+002
9.165003e+001,7.064317e+001
9.261427e+001,6.065098e+001
9.357850e+001,6.376068e+001
9.454273e+001,6.933733e+001
9.550697e+001,7.016084e+001
9.647120e+001,6.476357e+001
9.743543e+001,6.033638e+001
9.839967e+001,5.706858e+001
9.936390e+001,5.419861e+001
1.003281e+002,5.071328e+001
1.012924e+002,4.457775e+001
1.022566e+002,4.038938e+001
1.032208e+002,3.971677e+001
1.041851e+002,4.173957e+001
1.051493e+002,4.437598e+001
1.061135e+002,4.768254e+001
1.070778e+002,4.927955e+001
1.080420e+002,4.724030e+001
1.090062e+002,4.134898e+001
1.099705e+002,3.335796e+001
1.109347e+002,2.544687e+001
1.118989e+002,1.871316e+001
1.128632e+002,1.707943e+001
1.138274e+002,2.354325e+001
1.147916e+002,4.000246e+001
1.157559e+002,4.812246e+001
1.167201e+002,4.581819e+001
1.176843e+002,3.959414e+001
1.186486e+002,3.736536e+001
1.196128e+002,4.265324e+001
1.205770e+002,4.754590e+001
1.215413e+002,5.422263e+001
1.225055e+002,6.023088e+001
1.234697e+002,6.055399e+001
1.244340e+002,4.384927e+001
1.253982e+002,2.658690e+001
1.263624e+002,1.108275e+001
1.273267e+002,-4.623169e-001
1.282909e+002,-5.195068e+000
1.292551e+002,1.265522e+001
1.302194e+002,3.728180e+001
1.311836e+002,5.451348e+001
1.321478e+002,5.538552e+001
1.331121e+002,3.970520e+001
1.340763e+002,2.563611e+001
1.350405e+002,1.195973e+001
1.360048e+002,2.407568e+000
1.369690e+002,1.795325e+000
1.379332e+002,1.950967e+001
1.388975e+002,3.128097e+001
1.398617e+002,3.566011e+001
1.408259e+002,3.472889e+001
1.417902e+002,3.174008e+001
1.427544e+002,2.571179e+001
1.437186e+002,2.016328e+001
1.446829e+002,1.604185e+001
1.456471e+002,1.327338e+001
1.466113e+002,1.107627e+001
1.475756e+002,5.778552e+000
1.485398e+002,2.109863e+000
1.495040e+002,6.252295e+000
1.504683e+002,1.951476e+001
1.514325e+002,3.816616e+001
1.523967e+002,3.869561e+001
1.533610e+002,2.541992e+001
1.543252e+002,1.095104e+001
1.552894e+002,4.488147e+000
1.562537e+002,9.661036e+000
1.572179e+002,1.197754e+001
1.581821e+002,9.089563e+000
1.591464e+002,5.502112e+000
1.601106e+002,6.420227e+000
1.610748e+002,1.815964e+001
1.620391e+002,2.506550e+001
1.630033e+002,2.056866e+001
1.639676e+002,9.914429e+000
1.649318e+002,1.460938e+000
1.658960e+002,5.972314e+000
1.668603e+002,1.279191e+001
1.678245e+002,1.429994e+001
1.687887e+002,1.050419e+001
1.697530e+002,4.778845e+000
1.707172e+002,7.275354e+000
1.716814e+002,1.473765e+001
1.726457e+002,1.925428e+001
1.736099e+002,1.769608e+001
1.745741e+002,9.770178e+000
1.755384e+002,3.744556e+000
1.765026e+002,-9.732788e-001
1.774668e+002,-4.061194e+000
1.784311e+002,-4.632483e+000
1.793953e+002,-1.320325e+000
1.803595e+002,6.011230e-001
1.813238e+002,-1.086511e+000
1.822880e+002,-3.522693e+000
1.832522e+002,-3.950427e+000
1.842165e+002,5.814697e-001
1.851807e+002,4.002295e+000
1.861449e+002,1.309058e+000
1.871092e+002,-4.929395e+000
1.880734e+002,-1.175841e+001
1.890376e+002,-1.572201e+001
1.900019e+002,-1.610370e+001
1.909661e+002,-1.156692e+001
1.919303e+002,-2.208276e+000
1.928946e+002,9.376086e+000
1.938588e+002,1.436593e+001
1.948230e+002,8.774096e+000
1.957873e+002,5.290112e+000
1.967515e+002,5.852796e+000
1.977157e+002,1.046843e+001
1.986800e+002,1.740570e+001
1.996442e+002,2.825881e+001
2.006084e+002,3.912386e+001
2.015727e+002,5.098640e+001
2.025369e+002,6.392352e+001
2.035011e+002,7.080336e+001
2.044654e+002,6.382598e+001
2.054296e+002,5.171240e+001
2.063938e+002,3.800645e+001
2.073581e+002,2.520731e+001
2.083223e+002,1.482061e+001
2.092865e+002,8.116138e+000
2.102508e+002,5.166821e+000
2.112150e+002,8.598877e+000
2.121792e+002,2.137837e+001
2.131435e+002,4.702184e+001
2.141077e+002,6.276455e+001
2.150719e+002,6.657998e+001
2.160362e+002,6.327708e+001
2.170004e+002,5.961808e+001
2.179646e+002,5.505344e+001
2.189289e+002,5.072526e+001
2.198931e+002,4.319064e+001
2.208573e+002,3.602659e+001
2.218216e+002,3.587856e+001
2.227858e+002,5.254879e+001
2.237500e+002,7.275938e+001
2.247143e+002,9.803047e+001
2.256785e+002,1.234667e+002
2.266427e+002,1.398340e+002
2.276070e+002,1.212813e+002
2.285712e+002,8.529073e+001
2.295354e+002,5.305849e+001
2.304997e+002,3.089811e+001
2.314639e+002,1.781372e+001
2.324281e+002,8.454504e+000
2.333924e+002,2.667334e+000
2.343566e+002,-6.716431e-001
2.353208e+002,-1.288501e+000
2.362851e+002,1.310559e+000
2.372493e+002,3.487549e+000
2.382135e+002,5.758325e+000
2.391778e+002,7.102124e+000
2.401420e+002,6.630286e+000
2.411062e+002,3.791162e+000
2.420705e+002,9.079345e-001
2.430347e+002,-8.406250e-001
2.439989e+002,-2.014136e+000
2.449632e+002,-2.914270e+000
2.459274e+002,-3.747229e+000
2.468916e+002,-4.363452e+000
2.478559e+002,-4.541284e+000
2.488201e+002,-4.422644e+000
2.497843e+002,-4.326648e+000
2.507486e+002,-4.635803e+000
2.517128e+002,-5.456067e+000
2.526770e+002,-5.053174e+000
2.536413e+002,-3.031226e+000
2.546055e+002,-4.031006e-001
2.555697e+002,1.249939e+000
2.565340e+002,8.089477e-001
2.574982e+002,9.890259e-001
2.584625e+002,2.870618e+000
2.594267e+002,5.535474e+000
2.603909e+002,7.292468e+000
2.613552e+002,6.292603e+000
2.623194e+002,4.724951e+000
2.632836e+002,3.442725e+000
2.642479e+002,2.543054e+000
2.652121e+002,1.882922e+000
2.661763e+002,1.287207e+000
2.671406e+002,8.001099e-001
2.681048e+002,2.715820e-001
2.690690e+002,-2.760864e-001
2.700333e+002,-5.261353e-001
2.709975e+002,1.138757e+000
2.719617e+002,6.261145e+000
2.729260e+002,8.427393e+000
2.738902e+002,4.347375e+000
2.748544e+002,-5.851672e+000
2.758187e+002,-1.239125e+001
2.767829e+002,-1.245131e+001
2.777471e+002,-1.154515e+001
2.787114e+002,-1.099840e+001
2.796756e+002,-1.104102e+001
2.806398e+002,-1.058055e+001
2.816041e+002,-8.905530e+000
2.825683e+002,-6.618323e+000
2.835325e+002,-3.555908e+000
2.844968e+002,1.804688e-001
2.854610e+002,3.822046e+000
2.864252e+002,5.700879e+000
2.873895e+002,6.254712e+000
2.883537e+002,5.649683e+000
2.893179e+002,4.002856e+000
2.902822e+002,1.296228e+000
2.912464e+002,-1.415381e+000
2.922106e+002,-4.440588e+000
2.931749e+002,-7.165552e+000
2.941391e+002,-9.168884e+000
2.951033e+002,-1.030079e+001
2.960676e+002,-1.145785e+001
2.970318e+002,-1.398612e+001
2.979960e+002,-1.551611e+001
2.989603e+002,-1.390695e+001
2.999245e+002,-7.587976e+000
3.008887e+002,-1.062378e+000
3.018530e+002,3.024304e+000
3.028172e+002,5.398023e+000
3.037814e+002,6.361524e+000
3.047457e+002,6.118982e+000
3.057099e+002,5.253845e+000
3.066741e+002,6.065930e+000
3.076384e+002,8.006531e+000
3.086026e+002,9.039441e+000
3.095668e+002,6.809778e+000
3.105311e+002,-2.088989e-001
3.114953e+002,-4.837878e+000
3.124595e+002,-6.700025e+000
3.134238e+002,-6.939148e+000
3.143880e+002,-6.839319e+000
3.153522e+002,-6.553174e+000
3.163165e+002,-5.740942e+000
3.172807e+002,-4.276111e+000
3.182449e+002,-2.175427e+000
3.192092e+002,7.000977e-001
3.201734e+002,4.920434e+000
3.211376e+002,8.624048e+000
3.221019e+002,1.036209e+001
3.230661e+002,1.079639e+001
3.240303e+002,1.100656e+001
3.249946e+002,1.236029e+001
3.259588e+002,1.430494e+001
3.269230e+002,1.416947e+001
3.278873e+002,1.187438e+001
3.288515e+002,8.573303e+000
3.298157e+002,6.299780e+000
3.307800e+002,5.700806e+000
3.317442e+002,5.646387e+000
3.327084e+002,5.709253e+000
3.336727e+002,6.210022e+000
3.346369e+002,8.047376e+000
3.356011e+002,1.411726e+001
3.365654e+002,1.755830e+001
3.375296e+002,1.507139e+001
3.384938e+002,9.396692e+000
3.394581e+002,4.786902e+000
3.404223e+002,5.137183e+000
3.413865e+002,7.770007e+000
3.423508e+002,1.042134e+001
3.433150e+002,1.290186e+001
3.442792e+002,1.518801e+001
3.452435e+002,1.715917e+001
3.462077e+002,1.885563e+001
3.471719e+002,2.082203e+001
3.481362e+002,2.246388e+001
3.491004e+002,2.517801e+001
3.500646e+002,3.195624e+001
3.510289e+002,3.935163e+001
3.519931e+002,5.811832e+001
3.529573e+002,8.973262e+001
3.539216e+002,1.321410e+002
3.548858e+002,1.851446e+002
3.558500e+002,2.753022e+002
3.568143e+002,3.367863e+002
3.577785e+002,3.418557e+002
3.587427e+002,3.041989e+002
3.597070e+002,2.470959e+002
3.606712e+002,1.852423e+002
3.616354e+002,1.280089e+002
3.625997e+002,8.540796e+001
3.635639e+002,5.732540e+001
3.645281e+002,4.095962e+001
3.654924e+002,3.157899e+001
3.664566e+002,3.148697e+001
3.674208e+002,2.983805e+001
3.683851e+002,2.590533e+001
3.693493e+002,2.058381e+001
3.703135e+002,1.580712e+001
3.712778e+002,1.157446e+001
3.722420e+002,8.494995e+000
3.732062e+002,6.432861e+000
3.741705e+002,5.504944e+000
3.751347e+002,6.125329e+000
3.760989e+002,9.807068e+000
3.770632e+002,1.318657e+001
3.780274e+002,1.417327e+001
3.789916e+002,1.350778e+001
3.799559e+002,1.261077e+001
3.809201e+002,1.324301e+001
3.818844e+002,1.451720e+001
3.828486e+002,1.352089e+001
3.838128e+002,1.049390e+001
3.847771e+002,7.319788e+000
3.857413e+002,6.859729e+000
3.867055e+002,1.085337e+001
3.876698e+002,1.320565e+001
3.886340e+002,1.198265e+001
3.895982e+002,9.934839e+000
3.905625e+002,1.124074e+001
3.915267e+002,1.948696e+001
3.924909e+002,2.533152e+001
3.934552e+002,2.691766e+001
3.944194e+002,2.579276e+001
3.953836e+002,2.332129e+001
3.963479e+002,1.970775e+001
3.973121e+002,1.641125e+001
3.982763e+002,1.479235e+001
3.992406e+002,1.430054e+001
4.002048e+002,1.412424e+001
4.011690e+002,1.345521e+001
4.021333e+002,1.250731e+001
4.030975e+002,1.318655e+001
4.040617e+002,1.558341e+001
4.050260e+002,1.770350e+001
4.059902e+002,1.714557e+001
4.069544e+002,1.189379e+001
4.079187e+002,9.825537e+000
4.088829e+002,1.305425e+001
4.098471e+002,1.693203e+001
4.108114e+002,1.736913e+001
4.117756e+002,1.230221e+001
4.127398e+002,9.322888e+000
4.137041e+002,1.314385e+001
4.146683e+002,1.856820e+001
4.156325e+002,2.195041e+001
4.165968e+002,2.135715e+001
4.175610e+002,1.873549e+001
4.185252e+002,1.669971e+001
4.194895e+002,1.531462e+001
4.204537e+002,1.474757e+001
4.214179e+002,1.512660e+001
4.223822e+002,1.650338e+001
4.233464e+002,2.011693e+001
4.243106e+002,2.694623e+001
4.252749e+002,3.171836e+001
4.262391e+002,3.036005e+001
4.272033e+002,2.199346e+001
4.281676e+002,1.855388e+001
4.291318e+002,2.284766e+001
4.300960e+002,2.951774e+001
4.310603e+002,3.654449e+001
4.320245e+002,4.369912e+001
4.329887e+002,5.308797e+001
4.339530e+002,6.279711e+001
4.349172e+002,7.850151e+001
4.358814e+002,1.067267e+002
4.368457e+002,1.468307e+002
4.378099e+002,1.930567e+002
4.387741e+002,2.406272e+002
4.397384e+002,2.834286e+002
4.407026e+002,2.999766e+002
4.416668e+002,2.840215e+002
4.426311e+002,2.432149e+002
4.435953e+002,2.028390e+002
4.445595e+002,1.578690e+002
4.455238e+002,1.208584e+002
4.464880e+002,9.374132e+001
4.474522e+002,7.479308e+001
4.484165e+002,6.095299e+001
4.493807e+002,5.455895e+001
4.503449e+002,5.023497e+001
4.513092e+002,4.710511e+001
4.522734e+002,4.449313e+001
4.532376e+002,4.181142e+001
4.542019e+002,3.869972e+001
4.551661e+002,3.512862e+001
4.561303e+002,3.094398e+001
4.570946e+002,2.645919e+001
4.580588e+002,2.224442e+001
4.590230e+002,1.890671e+001
4.599873e+002,1.659325e+001
4.609515e+002,1.486611e+001
4.619157e+002,1.350183e+001
4.628800e+002,1.276643e+001
4.638442e+002,1.294655e+001
4.648084e+002,1.423890e+001
4.657727e+002,1.599533e+001
4.667369e+002,1.880231e+001
4.677011e+002,2.155254e+001
4.686654e+002,2.385673e+001
4.696296e+002,2.561060e+001
4.705938e+002,2.583221e+001
4.715581e+002,2.248704e+001
4.725223e+002,1.829531e+001
4.734865e+002,1.495607e+001
4.744508e+002,1.318804e+001
4.754150e+002,1.245889e+001
4.763792e+002,1.132094e+001
4.773435e+002,1.008350e+001
4.783077e+002,1.007162e+001
4.792719e+002,1.194723e+001
4.802362e+002,1.520509e+001
4.812004e+002,1.685262e+001
4.821646e+002,1.598063e+001
4.831289e+002,1.435250e+001
4.840931e+002,1.076210e+001
4.850573e+002,6.348755e+000
4.860216e+002,4.381494e+000
4.869858e+002,8.718664e+000
4.879500e+002,1.246437e+001
4.889143e+002,1.330876e+001
4.898785e+002,1.206406e+001
4.908427e+002,1.015303e+001
4.918070e+002,8.526026e+000
4.927712e+002,7.166894e+000
4.937354e+002,6.000220e+000
4.946997e+002,5.031165e+000
4.956639e+002,4.232092e+000
4.966281e+002,3.570190e+000
4.975924e+002,3.067017e+000
4.985566e+002,2.579211e+000
4.995208e+002,1.495142e+000
5.004851e+002,1.172607e+000
5.014493e+002,3.329077e+000
5.024135e+002,9.050879e+000
5.033778e+002,1.192200e+001
5.043420e+002,8.979029e+000
5.053063e+002,5.880823e+000
5.062705e+002,5.763916e+000
5.072347e+002,8.917432e+000
5.081990e+002,1.158840e+001
5.091632e+002,8.261072e+000
5.101274e+002,4.127686e+000
5.110917e+002,2.808179e+000
5.120559e+002,4.679626e+000
5.130201e+002,7.570374e+000
5.139844e+002,6.947278e+000
5.149486e+002,3.068909e+000
5.159128e+002,6.747559e-001
5.168771e+002,6.698303e-001
5.178413e+002,1.966028e+000
5.188055e+002,2.105469e+000
5.197698e+002,-2.710205e-001
5.207340e+002,-1.778070e+000
5.216982e+002,-1.906793e+000
5.226625e+002,-1.438403e+000
5.236267e+002,-1.280896e+000
5.245909e+002,-1.879974e+000
5.255552e+002,-2.283478e+000
5.265194e+002,-1.479877e+000
5.274836e+002,-5.572388e-001
5.284479e+002,-7.316955e-001
5.294121e+002,-2.597638e+000
5.303763e+002,-4.959833e+000
5.313406e+002,-5.352984e+000
5.323048e+002,-4.324957e+000
5.332690e+002,-1.961456e+000
5.342333e+002,1.856714e+000
5.351975e+002,6.652344e+000
5.361617e+002,8.420300e+000
5.371260e+002,4.664502e+000
5.380902e+002,1.869537e+000
5.390544e+002,1.427454e+000
5.400187e+002,2.723773e+000
5.409829e+002,3.948645e+000
5.419471e+002,5.067578e+000
5.429114e+002,5.746789e+000
5.438756e+002,5.923608e+000
5.448398e+002,5.572192e+000
5.458041e+002,4.577484e+000
5.467683e+002,2.701044e+000
5.477325e+002,6.271667e-001
5.486968e+002,-8.714234e-001
5.496610e+002,-1.843658e+000
5.506252e+002,-2.269067e+000
5.515895e+002,-2.127331e+000
5.525537e+002,-1.442090e+000
5.535179e+002,-1.189587e+000
5.544822e+002,-1.334900e+000
5.554464e+002,-1.564551e+000
5.564106e+002,-1.777930e+000
5.573749e+002,-2.016791e+000
5.583391e+002,-2.349438e+000
5.593033e+002,-2.953986e+000
5.602676e+002,-3.356561e+000
5.612318e+002,-3.516327e+000
5.621960e+002,-3.380652e+000
5.631603e+002,-2.786304e+000
5.641245e+002,-1.103009e+000
5.650887e+002,4.930115e-001
5.660530e+002,1.036865e+000
5.670172e+002,6.899658e-001
5.679814e+002,-1.693482e-001
5.689457e+002,-1.175348e+000
5.699099e+002,-2.245764e+000
5.708741e+002,-2.475635e+000
5.718384e+002,-1.784393e+000
5.728026e+002,-7.822937e-001
5.737668e+002,9.346924e-002
5.747311e+002,8.299866e-001
5.756953e+002,1.295831e+000
5.766595e+002,1.466180e+000
5.776238e+002,1.471027e+000
5.785880e+002,1.259387e+000
5.795522e+002,8.808899e-001
5.805165e+002,5.858582e-001
5.814807e+002,7.142944e-001
5.824449e+002,8.894226e-001
5.834092e+002,8.573425e-001
5.843734e+002,6.261292e-001
5.853376e+002,3.273193e-001
5.863019e+002,1.308960e-001
5.872661e+002,1.617432e-002
5.882303e+002,-1.972656e-001
5.891946e+002,-5.007385e-001
5.901588e+002,-7.643127e-001
5.911230e+002,-8.961670e-001
5.920873e+002,-9.723083e-001
5.930515e+002,-6.484985e-001
5.940157e+002,9.526245e-001
5.949800e+002,2.025635e+000
5.959442e+002,1.077222e+000
5.969084e+002,-1.847485e+000
5.978727e+002,-3.867236e+000
5.988369e+002,-1.954877e+000
5.998011e+002,1.345642e-001
6.007654e+002,1.006665e+000
6.017296e+002,6.029236e-001
6.026938e+002,-5.562500e-001
6.036581e+002,-2.191119e+000
6.046223e+002,-3.776788e+000
6.055865e+002,-3.559021e+000
6.065508e+002,-1.677881e+000
6.075150e+002,-1.649292e-001
6.084792e+002,-1.458447e+000
6.094435e+002,-6.727667e+000
6.104077e+002,-8.476807e+000
6.113719e+002,-4.606311e+000
6.123362e+002,-6.686646e-001
6.133004e+002,2.513489e-001
6.142646e+002,-1.914557e+000
6.152289e+002,-3.688641e+000
6.161931e+002,-3.183081e+000
6.171573e+002,-2.470276e+000
6.181216e+002,-2.230164e+000
6.190858e+002,-2.350818e+000
6.200500e+002,-2.298041e+000
6.210143e+002,-1.535736e+000
6.219785e+002,-4.409119e-001
6.229427e+002,2.584046e-001
6.239070e+002,5.809082e-001
6.248712e+002,6.545288e-001
6.258354e+002,5.934265e-001
6.267997e+002,3.767395e-001
6.277639e+002,1.228467e+000
6.287281e+002,4.494562e+000
6.296924e+002,6.736407e+000
6.306566e+002,5.658038e+000
6.316208e+002,1.639111e+000
6.325851e+002,-1.025555e+000
6.335493e+002,4.200195e-001
6.345135e+002,2.201068e+000
6.354778e+002,3.458423e+000
6.364420e+002,4.168799e+000
6.374063e+002,4.696466e+000
6.383705e+002,5.396991e+000
6.393347e+002,5.816485e+000
6.402990e+002,5.181970e+000
6.412632e+002,3.869885e+000
6.422274e+002,2.657935e+000
6.431917e+002,2.113483e+000
6.441559e+002,2.188702e+000
6.451201e+002,2.308704e+000
6.460844e+002,2.525006e+000
6.470486e+002,2.672937e+000
6.480128e+002,2.827789e+000
6.489771e+002,2.924591e+000
6.499413e+002,2.604352e+000
6.509055e+002,1.161139e+000
6.518698e+002,9.176026e-002
6.528340e+002,1.671021e-001
6.537982e+002,7.337646e-001
6.547625e+002,7.933533e-001
6.557267e+002,-3.353699e-001
6.566909e+002,-1.608112e+000
6.576552e+002,-1.424585e+000
6.586194e+002,-3.863831e-001
6.595836e+002,8.505920e-001
6.605479e+002,1.967261e+000
6.615121e+002,2.943958e+000
6.624763e+002,3.504297e+000
6.634406e+002,3.550519e+000
6.644048e+002,3.347314e+000
6.653690e+002,2.746490e+000
6.663333e+002,1.823523e+000
6.672975e+002,6.238037e-001
6.682617e+002,-1.511780e+000
6.692260e+002,-2.047955e+000
6.701902e+002,8.645203e-001
6.711544e+002,4.369513e+000
6.721187e+002,5.987506e+000
6.730829e+002,4.890778e+000
6.740471e+002,2.855615e+000
6.750114e+002,2.245404e+000
6.759756e+002,2.233832e+000
6.769398e+002,1.955371e+000
6.779041e+002,1.245178e+000
6.788683e+002,5.004944e-001
6.798325e+002,4.740357e-001
6.807968e+002,1.536951e+000
6.817610e+002,1.806451e+000
6.827252e+002,3.303467e-001
6.836895e+002,-1.129834e+000
6.846537e+002,-7.284668e-001
6.856179e+002,1.987738e+000
6.865822e+002,3.834839e+000
6.875464e+002,3.723022e+000
6.885106e+002,3.033252e+000
6.894749e+002,1.924921e+000
6.904391e+002,7.307312e-001
6.914034e+002,7.365723e-002
6.923676e+002,8.559082e-001
6.933318e+002,2.153357e+000
6.942961e+002,2.558014e+000
6.952603e+002,2.232349e+000
6.962245e+002,1.866046e+000
6.971888e+002,2.098169e+000
6.981530e+002,2.916455e+000
6.991172e+002,2.373669e+000
7.000815e+002,-6.919373e-001
7.010457e+002,-2.763745e+000
7.020099e+002,-1.863037e+000
7.029742e+002,1.356659e+000
7.039384e+002,3.593390e+000
7.049026e+002,3.644189e+000
7.058669e+002,3.212103e+000
7.068311e+002,2.537384e+000
7.077953e+002,1.756012e+000
7.087596e+002,8.849853e-001
7.097238e+002,-7.390137e-002
7.106880e+002,-6.684693e-001
7.116523e+002,5.976563e-002
7.126165e+002,1.392181e+000
7.135807e+002,2.559058e+000
7.145450e+002,3.266339e+000
7.155092e+002,3.407696e+000
7.164734e+002,2.594293e+000
7.174377e+002,-1.411438e-001
7.184019e+002,-1.670483e+000
7.193661e+002,-1.576892e+000
7.203304e+002,-6.619385e-001
7.212946e+002,4.574585e-001
7.222589e+002,1.914667e+000
7.232231e+002,2.923724e+000
7.241873e+002,3.125268e+000
7.251516e+002,2.951727e+000
7.261158e+002,2.343512e+000
7.270800e+002,1.448834e+000
7.280443e+002,6.292602e-001
7.290085e+002,2.600891e-001
7.299727e+002,3.870789e-001
7.309370e+002,1.096948e+000
7.319012e+002,2.277423e+000
7.328654e+002,3.336096e+000
7.338297e+002,3.767352e+000
7.347939e+002,3.568970e+000
7.357581e+002,2.391144e+000
7.367224e+002,-1.373554e+000
7.376866e+002,-3.952991e+000
7.386508e+002,-3.578650e+000
7.396151e+002,-1.264697e+000
7.405793e+002,1.002014e-001
7.415435e+002,-8.700134e-001
7.425078e+002,-1.732056e+000
7.434720e+002,-1.297931e+000
7.444362e+002,-3.807434e-001
7.454005e+002,4.906006e-002
7.463647e+002,-4.052612e-001
7.473289e+002,-1.041950e+000
7.482932e+002,-5.092163e-002
7.492574e+002,1.855280e+000
7.502216e+002,2.615607e+000
7.511859e+002,1.639673e+000
7.521501e+002,-1.420776e-001
7.531143e+002,-9.388794e-001
7.540786e+002,3.505249e-002
7.550428e+002,2.348999e-001
7.560070e+002,-1.175269e+000
7.569713e+002,-2.421692e+000
7.579355e+002,-2.159051e+000
7.588997e+002,-4.522949e-001
7.598640e+002,8.537292e-001
7.608282e+002,2.669678e-001
7.617924e+002,-4.466675e-001
7.627567e+002,-7.696411e-001
7.637209e+002,-4.619751e-001
7.646851e+002,8.056763e-001
7.656494e+002,3.315271e+000
7.666136e+002,6.724750e+000
7.675778e+002,1.039969e+001
7.685421e+002,1.430347e+001
7.695063e+002,1.595378e+001
7.704705e+002,1.355059e+001
7.714348e+002,8.247467e+000
7.723990e+002,4.752429e+000
7.733632e+002,4.981543e+000
7.743275e+002,4.060675e+000
7.752917e+002,1.093750e-002
7.762559e+002,-4.091992e+000
7.772202e+002,-5.045947e+000
7.781844e+002,-2.046588e+000
7.791486e+002,1.215418e+000
7.801129e+002,1.279529e+000
7.810771e+002,3.714111e-001
7.820413e+002,-2.422058e-001
7.830056e+002,-3.472717e-001
7.839698e+002,-2.325378e-001
7.849340e+002,-2.293945e-001
7.858983e+002,-3.565552e-001
7.868625e+002,-7.250732e-001
7.878267e+002,-1.432873e+000
7.887910e+002,-2.083032e+000
7.897552e+002,-2.476794e+000
7.907194e+002,-2.603125e+000
7.916837e+002,-2.518506e+000
7.926479e+002,-2.318915e+000
7.936121e+002,-1.783838e+000
7.945764e+002,2.081909e-002
7.955406e+002,1.688989e+000
7.965048e+002,1.229334e+000
7.974691e+002,-2.101416e+000
7.984333e+002,-5.556885e+000
7.993975e+002,-4.715064e+000
8.003618e+002,-2.300177e+000
8.013260e+002,-1.023718e+000
8.022902e+002,-1.425732e+000
8.032545e+002,-2.643903e+000
8.042187e+002,-3.410797e+000
8.051829e+002,-3.675531e+000
8.061472e+002,-3.358978e+000
8.071114e+002,-1.629651e+000
8.080756e+002,-4.220764e-001
8.090399e+002,-1.531305e+000
8.100041e+002,-4.391004e+000
8.109683e+002,-5.077161e+000
8.119326e+002,-1.249207e-001
8.128968e+002,3.964832e+000
8.138610e+002,4.411859e+000
8.148253e+002,2.870825e+000
8.157895e+002,1.196088e+000
8.167537e+002,3.627747e-001
8.177180e+002,3.233337e-001
8.186822e+002,1.633978e+000
8.196464e+002,3.639801e+000
8.206107e+002,4.713440e+000
8.215749e+002,4.424994e+000
8.225391e+002,3.441522e+000
8.235034e+002,2.817029e+000
8.244676e+002,2.679071e+000
8.254318e+002,2.456256e+000
8.263961e+002,2.114819e+000
8.273603e+002,1.896863e+000
8.283245e+002,2.061810e+000
8.292888e+002,2.428424e+000
8.302530e+002,2.319336e+000
8.312172e+002,9.964234e-001
8.321815e+002,-1.608765e-001
8.331457e+002,-4.061279e-002
8.341099e+002,7.808350e-001
8.350742e+002,1.629150e+000
8.360384e+002,2.109046e+000
8.370026e+002,2.179773e+000
8.379669e+002,1.594965e+000
8.389311e+002,3.011963e-001
8.398953e+002,-3.085693e-001
8.408596e+002,3.385559e-001
8.418238e+002,1.129712e+000
8.427880e+002,5.566467e-001
8.437523e+002,-1.779834e+000
8.447165e+002,-3.318353e+000
8.456807e+002,-2.799091e+000
8.466450e+002,-2.478644e+000
8.476092e+002,-3.539221e+000
8.485734e+002,-5.425738e+000
8.495377e+002,-6.862555e+000
8.505019e+002,-7.134711e+000
8.514661e+002,-6.466773e+000
8.524304e+002,-4.626801e+000
8.533946e+002,-2.355975e+000
8.543588e+002,-1.002295e+000
8.553231e+002,-1.045154e+000
8.562873e+002,-1.773694e+000
8.572515e+002,-1.586450e+000
8.582158e+002,8.340454e-002
8.591800e+002,8.392395e-001
8.601442e+002,1.344666e-001
8.611085e+002,-9.215515e-001
8.620727e+002,-1.668945e+000
8.630369e+002,-2.053369e+000
8.640012e+002,-2.181604e+000
8.649654e+002,-1.714850e+000
8.659296e+002,-1.535925e+000
8.668939e+002,-2.524915e+000
8.678581e+002,-3.842938e+000
8.688223e+002,-4.135913e+000
8.697866e+002,-2.792566e+000
8.707508e+002,-9.376892e-001
8.717150e+002,-1.243481e+000
8.726793e+002,-3.153394e+000
8.736435e+002,-3.789026e+000
8.746077e+002,-2.364746e+000
8.755720e+002,-5.750672e-001
8.765362e+002,-9.330139e-001
8.775004e+002,-4.287567e+000
8.784647e+002,-6.018079e+000
8.794289e+002,-4.971191e+000
8.803931e+002,-3.720191e+000
8.813574e+002,-2.815772e+000
8.823216e+002,-2.349988e+000
8.832858e+002,-2.330536e+000
8.842501e+002,-2.802313e+000
8.852143e+002,-3.397534e+000
8.861785e+002,-4.037024e+000
8.871428e+002,-4.546374e+000
8.881070e+002,-4.404925e+000
8.890712e+002,-3.614087e+000
8.900355e+002,-2.985968e+000
8.909997e+002,-3.882172e+000
8.919639e+002,-6.649493e+000
8.929282e+002,-7.991345e+000
8.938924e+002,-7.265930e+000
8.948566e+002,-6.246027e+000
8.958209e+002,-5.712866e+000
8.967851e+002,-5.581342e+000
8.977493e+002,-5.523211e+000
8.987136e+002,-5.556830e+000
8.996778e+002,-5.612396e+000
9.006420e+002,-5.938599e+000
9.016063e+002,-6.071753e+000
9.025705e+002,-5.237451e+000
9.035347e+002,-3.423724e+000
9.044990e+002,-1.771838e+000
9.054632e+002,-1.961200e+000
9.064274e+002,-3.591083e+000
9.073917e+002,-4.302191e+000
9.083559e+002,-3.982361e+000
9.093201e+002,-3.661572e+000
9.102844e+002,-4.289697e+000
9.112486e+002,-5.792712e+000
9.122128e+002,-6.566125e+000
9.131771e+002,-6.088025e+000
9.141413e+002,-5.449933e+000
9.151055e+002,-4.325665e+000
9.160698e+002,-3.327197e+000
9.170340e+002,-3.421759e+000
9.179982e+002,-4.757410e+000
9.189625e+002,-5.594574e+000
9.199267e+002,-3.694019e+000
9.208909e+002,-1.205823e+000
9.218552e+002,-1.754578e-001
9.228194e+002,-4.755249e-001
9.237836e+002,-1.363245e+000
9.247479e+002,-2.273602e+000
9.257121e+002,-3.038818e+000
9.266763e+002,-2.568201e+000
9.276406e+002,1.730957e-001
9.286048e+002,1.756470e+000
9.295690e+002,1.515259e+000
9.305333e+002,2.051819e-001
9.314975e+002,-1.768164e+000
9.324617e+002,-4.540479e+000
9.334260e+002,-6.256842e+000
9.343902e+002,-5.120374e+000
9.353545e+002,-3.568500e+000
9.363187e+002,-2.420654e+000
9.372830e+002,-1.680902e+000
9.382472e+002,-1.107971e+000
9.392114e+002,-5.241089e-001
9.401757e+002,8.699951e-002
9.411399e+002,6.673462e-001
9.421041e+002,1.160376e+000
9.430684e+002,1.401910e+000
9.440326e+002,1.220343e+000
9.449968e+002,9.406372e-001
9.459611e+002,1.147107e+000
9.469253e+002,2.072992e+000
9.478895e+002,2.520557e+000
9.488538e+002,1.895929e+000
9.498180e+002,1.275812e+000
9.507822e+002,1.066345e+000
9.517465e+002,9.464417e-001
9.527107e+002,4.987793e-002
9.536749e+002,-1.995929e+000
9.546392e+002,-3.307971e+000
9.556034e+002,-4.002319e-001
9.565676e+002,4.117414e+000
9.575319e+002,7.355310e+000
9.584961e+002,8.889807e+000
9.594603e+002,8.931452e+000
9.604246e+002,7.484582e+000
9.613888e+002,4.493823e+000
9.623530e+002,2.960199e+000
9.633173e+002,4.249383e+000
9.642815e+002,5.065393e+000
9.652457e+002,3.945868e+000
9.662100e+002,2.860681e+000
9.671742e+002,4.217407e+000
9.681384e+002,8.486218e+000
9.691027e+002,1.385806e+001
9.700669e+002,1.499451e+001
9.710311e+002,2.080787e+001
9.719954e+002,4.112278e+001
9.729596e+002,7.115770e+001
9.739238e+002,1.020180e+002
9.748881e+002,1.272175e+002
9.758523e+002,1.429129e+002
9.768165e+002,1.331943e+002
9.777808e+002,9.159766e+001
9.787450e+002,5.874005e+001
9.797092e+002,4.115168e+001
9.806735e+002,3.157241e+001
9.816377e+002,2.374993e+001
9.826019e+002,1.769679e+001
9.835662e+002,1.423310e+001
9.845304e+002,1.613300e+001
9.854946e+002,1.787601e+001
9.864589e+002,1.718660e+001
9.874231e+002,1.546321e+001
9.883873e+002,1.445311e+001
9.893516e+002,1.480960e+001
9.903158e+002,1.593261e+001
9.912800e+002,1.714423e+001
9.922443e+002,1.864286e+001
9.932085e+002,2.042315e+001
9.941727e+002,2.242603e+001
9.951370e+002,2.569066e+001
9.961012e+002,3.035615e+001
9.970654e+002,3.650464e+001
9.980297e+002,4.484941e+001
9.989939e+002,4.262047e+001
9.999581e+002,6.706022e+001
1.000922e+003,1.172581e+002
1.001887e+003,1.962680e+002
1.002851e+003,3.463530e+002
1.003815e+003,5.404271e+002
1.004779e+003,6.601031e+002
1.005744e+003,6.066497e+002
1.006708e+003,4.598658e+002
1.007672e+003,3.288157e+002
1.008636e+003,2.157496e+002
1.009600e+003,1.331512e+002
1.010565e+003,8.686391e+001
1.011529e+003,6.611198e+001
1.012493e+003,5.089370e+001
1.013457e+003,4.255162e+001
1.014422e+003,3.644572e+001
1.015386e+003,3.312963e+001
1.016350e+003,3.078241e+001
1.017314e+003,2.890073e+001
1.018279e+003,2.730367e+001
1.019243e+003,2.587744e+001
1.020207e+003,2.463435e+001
1.021171e+003,2.348391e+001
1.022135e+003,2.220885e+001
1.023100e+003,2.114332e+001
1.024064e+003,2.069489e+001
1.025028e+003,2.074487e+001
1.025992e+003,2.078999e+001
1.026957e+003,2.040350e+001
1.027921e+003,1.975074e+001
1.028885e+003,1.964880e+001
1.029849e+003,2.087831e+001
1.030814e+003,2.084199e+001
1.031778e+003,1.749266e+001
1.032742e+003,1.392101e+001
1.033706e+003,1.361902e+001
1.034671e+003,1.672601e+001
1.035635e+003,1.943005e+001
1.036599e+003,2.001100e+001
1.037563e+003,2.017622e+001
1.038527e+003,2.077353e+001
1.039492e+003,2.153641e+001
1.040456e+003,2.210731e+001
1.041420e+003,2.235002e+001
1.042384e+003,2.236191e+001
1.043349e+003,2.223348e+001
1.044313e+003,2.197001e+001
1.045277e+003,2.214952e+001
1.046241e+003,2.310091e+001
1.047206e+003,2.349476e+001
1.048170e+003,2.209941e+001
1.049134e+003,1.982421e+001
1.050098e+003,1.906894e+001
1.051063e+003,2.063659e+001
1.052027e+003,2.197526e+001
1.052991e+003,2.112066e+001
1.053955e+003,2.066432e+001
1.054919e+003,2.314330e+001
1.055884e+003,2.711398e+001
1.056848e+003,2.908877e+001
1.057812e+003,2.701989e+001
1.058776e+003,2.309075e+001
1.059741e+003,2.164567e+001
1.060705e+003,2.232152e+001
1.061669e+003,2.288901e+001
1.062633e+003,2.309603e+001
1.063598e+003,2.303383e+001
1.064562e+003,2.271246e+001
1.065526e+003,2.224046e+001
1.066490e+003,2.222026e+001
1.067454e+003,2.301323e+001
1.068419e+003,2.371072e+001
1.069383e+003,2.364412e+001
1.070347e+003,2.359747e+001
1.071311e+003,2.456959e+001
1.072276e+003,2.639244e+001
1.073240e+003,2.787158e+001
1.074204e+003,2.809609e+001
1.075168e+003,2.739734e+001
1.076133e+003,2.604683e+001
1.077097e+003,2.434883e+001
1.078061e+003,2.366556e+001
1.079025e+003,2.451276e+001
1.079990e+003,2.618555e+001
1.080954e+003,2.800701e+001
1.081918e+003,3.019006e+001
1.082882e+003,3.100628e+001
1.083846e+003,2.859271e+001
1.084811e+003,2.679337e+001
1.085775e+003,2.655767e+001
1.086739e+003,2.716798e+001
1.087703e+003,2.795761e+001
1.088668e+003,2.877871e+001
1.089632e+003,2.983406e+001
1.090596e+003,3.147510e+001
1.091560e+003,3.300285e+001
1.092525e+003,3.281897e+001
1.093489e+003,3.135168e+001
1.094453e+003,3.057639e+001
1.095417e+003,3.151166e+001
1.096381e+003,3.329694e+001
1.097346e+003,3.423997e+001
1.098310e+003,3.427341e+001
1.099274e+003,3.365292e+001
1.100238e+003,3.095768e+001
1.101203e+003,2.948960e+001
1.102167e+003,3.137165e+001
1.103131e+003,3.444680e+001
1.104095e+003,3.572567e+001
1.105060e+003,3.441123e+001
1.106024e+003,3.228362e+001
1.106988e+003,3.037233e+001
1.107952e+003,2.933024e+001
1.108917e+003,3.036636e+001
1.109881e+003,3.295101e+001
1.110845e+003,3.502082e+001
1.111809e+003,3.542605e+001
1.112773e+003,3.472297e+001
1.113738e+003,3.417648e+001
1.114702e+003,3.368507e+001
1.115666e+003,3.406461e+001
1.116630e+003,3.636522e+001
1.117595e+003,3.794738e+001
1.118559e+003,3.719988e+001
1.119523e+003,3.548926e+001
1.120487e+003,3.479249e+001
1.121452e+003,3.570095e+001
1.122416e+003,3.772900e+001
1.123380e+003,4.144076e+001
1.124344e+003,4.498127e+001
1.125308e+003,4.545721e+001
1.126273e+003,4.361343e+001
1.127237e+003,4.236335e+001
1.128201e+003,4.334404e+001
1.129165e+003,4.535093e+001
1.130130e+003,4.543927e+001
1.131094e+003,4.261455e+001
1.132058e+003,4.063634e+001
1.133022e+003,3.945280e+001
1.133987e+003,3.906019e+001
1.134951e+003,4.008643e+001
1.135915e+003,4.173156e+001
1.136879e+003,4.298158e+001
1.137844e+003,4.354761e+001
1.138808e+003,4.341583e+001
1.139772e+003,4.176781e+001
1.140736e+003,3.998995e+001
1.141700e+003,4.041017e+001
1.142665e+003,4.250389e+001
1.143629e+003,4.443854e+001
1.144593e+003,4.535518e+001
1.145557e+003,4.561316e+001
1.146522e+003,4.578172e+001
1.147486e+003,4.567594e+001
1.148450e+003,4.553066e+001
1.149414e+003,4.525739e+001
1.150379e+003,4.535254e+001
1.151343e+003,4.624587e+001
1.152307e+003,4.744435e+001
1.153271e+003,4.835336e+001
1.154235e+003,4.875897e+001
1.155200e+003,4.867513e+001
1.156164e+003,4.792723e+001
1.157128e+003,4.727056e+001
1.158092e+003,4.771853e+001
1.159057e+003,4.894173e+001
1.160021e+003,5.029866e+001
1.160985e+003,5.153851e+001
1.161949e+003,5.228526e+001
1.162914e+003,5.194104e+001
1.163878e+003,5.043699e+001
1.164842e+003,4.914587e+001
1.165806e+003,4.686573e+001
1.166771e+003,4.630420e+001
1.167735e+003,4.965163e+001
1.168699e+003,5.348658e+001
1.169663e+003,5.414530e+001
1.170627e+003,5.193171e+001
1.171592e+003,5.081783e+001
1.172556e+003,5.370912e+001
1.173520e+003,5.748181e+001
1.174484e+003,5.670356e+001
1.175449e+003,5.341694e+001
1.176413e+003,5.136071e+001
1.177377e+003,5.136738e+001
1.178341e+003,5.261884e+001
1.179306e+003,5.477584e+001
1.180270e+003,5.767385e+001
1.181234e+003,5.860149e+001
1.182198e+003,5.539729e+001
1.183162e+003,5.386011e+001
1.184127e+003,5.562453e+001
1.185091e+003,5.789040e+001
1.186055e+003,5.917836e+001
1.187019e+003,5.964575e+001
1.187984e+003,5.997434e+001
1.188948e+003,6.042123e+001
1.189912e+003,6.079015e+001
1.190876e+003,6.079274e+001
1.191841e+003,6.063625e+001
1.192805e+003,6.079403e+001
1.193769e+003,6.130829e+001
1.194733e+003,6.196467e+001
1.195698e+003,6.247604e+001
1.196662e+003,6.310449e+001
1.197626e+003,6.480122e+001
1.198590e+003,6.814192e+001
1.199554e+003,7.035209e+001
1.200519e+003,7.097640e+001
1.201483e+003,7.078766e+001
1.202447e+003,6.919075e+001
1.203411e+003,6.731645e+001
1.204376e+003,6.654502e+001
1.205340e+003,6.701671e+001
1.206304e+003,6.764091e+001
1.207268e+003,6.763107e+001
1.208233e+003,6.731095e+001
1.209197e+003,6.669839e+001
1.210161e+003,6.578336e+001
1.211125e+003,6.628799e+001
1.212089e+003,6.946211e+001
1.213054e+003,7.258451e+001
1.214018e+003,7.218092e+001
1.214982e+003,6.874947e+001
1.215946e+003,6.727521e+001
1.216911e+003,6.955898e+001
1.217875e+003,7.107924e+001
1.218839e+003,6.884349e+001
1.219803e+003,6.673790e+001
1.220768e+003,6.856937e+001
1.221732e+003,7.319820e+001
1.222696e+003,7.684630e+001
1.223660e+003,7.734778e+001
1.224625e+003,7.618263e+001
1.225589e+003,7.597304e+001
1.226553e+003,7.664055e+001
1.227517e+003,7.619141e+001
1.228481e+003,7.395980e+001
1.229446e+003,7.255241e+001
1.230410e+003,7.359702e+001
1.231374e+003,7.590446e+001
1.232338e+003,7.771912e+001
1.233303e+003,7.900346e+001
1.234267e+003,7.978772e+001
1.235231e+003,7.978935e+001
1.236195e+003,7.948226e+001
1.237160e+003,7.882463e+001
1.238124e+003,7.809532e+001
1.239088e+003,7.759862e+001
1.240052e+003,7.749856e+001
1.241016e+003,7.802228e+001
1.241981e+003,7.939436e+001
1.242945e+003,8.125488e+001
1.243909e+003,8.199235e+001
1.244873e+003,8.113570e+001
1.245838e+003,8.035703e+001
1.246802e+003,7.936186e+001
1.247766e+003,7.868839e+001
1.248730e+003,7.851427e+001
1.249695e+003,7.889763e+001
1.250659e+003,8.030042e+001
1.251623e+003,8.297898e+001
1.252587e+003,8.490694e+001
1.253552e+003,8.366451e+001
1.254516e+003,8.201820e+001
1.255480e+003,8.327803e+001
1.256444e+003,8.627311e+001
1.257408e+003,8.798916e+001
1.258373e+003,8.730019e+001
1.259337e+003,8.589677e+001
1.260301e+003,8.623019e+001
1.261265e+003,8.838414e+001
1.262230e+003,8.942312e+001
1.263194e+003,8.710858e+001
1.264158e+003,8.645654e+001
1.265122e+003,8.972252e+001
1.266087e+003,9.290153e+001
1.267051e+003,9.281376e+001
1.268015e+003,9.057076e+001
1.268979e+003,8.944674e+001
1.269943e+003,9.075076e+001
1.270908e+003,9.265220e+001
1.271872e+003,9.332265e+001
1.272836e+003,9.310994e+001
1.273800e+003,9.247426e+001
1.274765e+003,9.158534e+001
1.275729e+003,9.239191e+001
1.276693e+003,9.649629e+001
1.277657e+003,1.013971e+002
1.278622e+003,1.029469e+002
1.279586e+003,1.008710e+002
1.280550e+003,9.926546e+001
1.281514e+003,9.908391e+001
1.282479e+003,9.890778e+001
1.283443e+003,9.779639e+001
1.284407e+003,9.688444e+001
1.285371e+003,9.722096e+001
1.286335e+003,9.839823e+001
1.287300e+003,9.931966e+001
1.288264e+003,9.948564e+001
1.289228e+003,9.937642e+001
1.290192e+003,9.966232e+001
1.291157e+003,1.002815e+002
1.292121e+003,1.002548e+002
1.293085e+003,9.909275e+001
1.294049e+003,9.822569e+001
1.295014e+003,9.838876e+001
1.295978e+003,9.918794e+001
1.296942e+003,1.003511e+002
1.297906e+003,1.018076e+002
1.298870e+003,1.028237e+002
1.299835e+003,1.028583e+002
1.300799e+003,1.026604e+002
1.301763e+003,1.021743e+002
1.302727e+003,1.020616e+002
1.303692e+003,1.032103e+002
1.304656e+003,1.056066e+002
1.305620e+003,1.090957e+002
1.306584e+003,1.134408e+002
1.307549e+003,1.169151e+002
1.308513e+003,1.159585e+002
1.309477e+003,1.095368e+002
1.310441e+003,1.059709e+002
1.311406e+003,1.073345e+002
1.312370e+003,1.087721e+002
1.313334e+003,1.099646e+002
1.314298e+003,1.107299e+002
1.315263e+003,1.105658e+002
1.316227e+003,1.098531e+002
1.317191e+003,1.097577e+002
1.318155e+003,1.107840e+002
1.319120e+003,1.121818e+002
1.320084e+003,1.134453e+002
1.321048e+003,1.142568e+002
1.322012e+003,1.137053e+002
1.322976e+003,1.119351e+002
1.323941e+003,1.108964e+002
1.324905e+003,1.115428e+002
1.325869e+003,1.134509e+002
1.326833e+003,1.165947e+002
1.327798e+003,1.208928e+002
1.328762e+003,1.226302e+002
1.329726e+003,1.193597e+002
1.330690e+003,1.174205e+002
1.331655e+003,1.202851e+002
1.332619e+003,1.232843e+002
1.333583e+003,1.227531e+002
1.334547e+003,1.199627e+002
1.335511e+003,1.180567e+002
1.336476e+003,1.182928e+002
1.337440e+003,1.189397e+002
1.338404e+003,1.177153e+002
1.339368e+003,1.152198e+002
1.340333e+003,1.164334e+002
1.341297e+003,1.234674e+002
1.342261e+003,1.272152e+002
1.343225e+003,1.246623e+002
1.344190e+003,1.207431e+002
1.345154e+003,1.178372e+002
1.346118e+003,1.163420e+002
1.347082e+003,1.173506e+002
1.348047e+003,1.212253e+002
1.349011e+003,1.248672e+002
1.349975e+003,1.267672e+002
1.350939e+003,1.272148e+002
1.351903e+003,1.256982e+002
1.352868e+003,1.233444e+002
1.353832e+003,1.227942e+002
1.354796e+003,1.246798e+002
1.355760e+003,1.270719e+002
1.356725e+003,1.281681e+002
1.357689e+003,1.282581e+002
1.358653e+003,1.286435e+002
1.359617e+003,1.296542e+002
1.360582e+003,1.299859e+002
1.361546e+003,1.291647e+002
1.362510e+003,1.280126e+002
1.363474e+003,1.260813e+002
1.364438e+003,1.246997e+002
1.365403e+003,1.256037e+002
1.366367e+003,1.283038e+002
1.367331e+003,1.304115e+002
1.368295e+003,1.304103e+002
1.369260e+003,1.295470e+002
1.370224e+003,1.303536e+002
1.371188e+003,1.329219e+002
1.372152e+003,1.328860e+002
1.373117e+003,1.284070e+002
1.374081e+003,1.256277e+002
1.375045e+003,1.281754e+002
1.376009e+003,1.323497e+002
1.376974e+003,1.339981e+002
1.377938e+003,1.334737e+002
1.378902e+003,1.334517e+002
1.379866e+003,1.347617e+002
1.380830e+003,1.357500e+002
1.381795e+003,1.345796e+002
1.382759e+003,1.331227e+002
1.383723e+003,1.330614e+002
1.384687e+003,1.343103e+002
1.385652e+003,1.365758e+002
1.386616e+003,1.396570e+002
1.387580e+003,1.419852e+002
1.388544e+003,1.412753e+002
1.389509e+003,1.379032e+002
1.390473e+003,1.364651e+002
1.391437e+003,1.386227e+002
1.392401e+003,1.394703e+002
1.393365e+003,1.366762e+002
1.394330e+003,1.346572e+002
1.395294e+003,1.353417e+002
1.396258e+003,1.375863e+002
1.397222e+003,1.408174e+002
1.398187e+003,1.444038e+002
1.399151e+003,1.466910e+002
1.400115e+003,1.463296e+002
1.401079e+003,1.446261e+002
1.402044e+003,1.443129e+002
1.403008e+003,1.454304e+002
1.403972e+003,1.454722e+002
1.404936e+003,1.441238e+002
1.405901e+003,1.428888e+002
1.406865e+003,1.415568e+002
1.407829e+003,1.409903e+002
1.408793e+003,1.428629e+002
1.409757e+003,1.465479e+002
1.410722e+003,1.487754e+002
1.411686e+003,1.482895e+002
1.412650e+003,1.476037e+002
1.413614e+003,1.494874e+002
1.414579e+003,1.513552e+002
1.415543e+003,1.489582e+002
1.416507e+003,1.444110e+002
1.417471e+003,1.438240e+002
1.418436e+003,1.489481e+002
1.419400e+003,1.544767e+002
1.420364e+003,1.552228e+002
1.421328e+003,1.523502e+002
1.422292e+003,1.499743e+002
1.423257e+003,1.475636e+002
1.424221e+003,1.470108e+002
1.425185e+003,1.506407e+002
1.426149e+003,1.535418e+002
1.427114e+003,1.540333e+002
1.428078e+003,1.539423e+002
1.429042e+003,1.550648e+002
1.430006e+003,1.569856e+002
1.430971e+003,1.577574e+002
1.431935e+003,1.565291e+002
1.432899e+003,1.551799e+002
1.433863e+003,1.566094e+002
1.434828e+003,1.605902e+002
1.435792e+003,1.625208e+002
1.436756e+003,1.607428e+002
1.437720e+003,1.595235e+002
1.438684e+003,1.598553e+002
1.439649e+003,1.604392e+002
1.440613e+003,1.602466e+002
1.441577e+003,1.599553e+002
1.442541e+003,1.609462e+002
1.443506e+003,1.631205e+002
1.444470e+003,1.646152e+002
1.445434e+003,1.644724e+002
1.446398e+003,1.635365e+002
1.447363e+003,1.622497e+002
1.448327e+003,1.609797e+002
1.449291e+003,1.611511e+002
1.450255e+003,1.629647e+002
1.451219e+003,1.646723e+002
1.452184e+003,1.654589e+002
1.453148e+003,1.655685e+002
1.454112e+003,1.649529e+002
1.455076e+003,1.638163e+002
1.456041e+003,1.636127e+002
1.457005e+003,1.647245e+002
1.457969e+003,1.665425e+002
1.458933e+003,1.693451e+002
1.459898e+003,1.721685e+002
1.460862e+003,1.753413e+002
1.461826e+003,1.775767e+002
1.462790e+003,1.760368e+002
1.463755e+003,1.711043e+002
1.464719e+003,1.674356e+002
1.465683e+003,1.685345e+002
1.466647e+003,1.724721e+002
1.467611e+003,1.747877e+002
1.468576e+003,1.751639e+002
1.469540e+003,1.756770e+002
1.470504e+003,1.771510e+002
1.471468e+003,1.777096e+002
1.472433e+003,1.756255e+002
1.473397e+003,1.740397e+002
1.474361e+003,1.751601e+002
1.475325e+003,1.780511e+002
1.476290e+003,1.816292e+002
1.477254e+003,1.849959e+002
1.478218e+003,1.864322e+002
1.479182e+003,1.845527e+002
1.480146e+003,1.811518e+002
1.481111e+003,1.802622e+002
1.482075e+003,1.821550e+002
1.483039e+003,1.826689e+002
1.484003e+003,1.813330e+002
1.484968e+003,1.795294e+002
1.485932e+003,1.765779e+002
1.486896e+003,1.745572e+002
1.487860e+003,1.757613e+002
1.488825e+003,1.788878e+002
1.489789e+003,1.808891e+002
1.490753e+003,1.810943e+002
1.491717e+003,1.811861e+002
1.492682e+003,1.822922e+002
1.493646e+003,1.837742e+002
1.494610e+003,1.848974e+002
1.495574e+003,1.855065e+002
1.496538e+003,1.848461e+002
1.497503e+003,1.826819e+002
1.498467e+003,1.808396e+002
1.499431e+003,1.800154e+002
1.500395e+003,1.799890e+002
1.501360e+003,1.810895e+002
1.502324e+003,1.830851e+002
1.503288e+003,1.839364e+002
1.504252e+003,1.827933e+002
1.505217e+003,1.825501e+002
1.506181e+003,1.865407e+002
1.507145e+003,1.895977e+002
1.508109e+003,1.858427e+002
1.509073e+003,1.793400e+002
1.510038e+003,1.767003e+002
1.511002e+003,1.786602e+002
1.511966e+003,1.818981e+002
1.512930e+003,1.847262e+002
1.513895e+003,1.865968e+002
1.514859e+003,1.856377e+002
1.515823e+003,1.817532e+002
1.516787e+003,1.804137e+002
1.517752e+003,1.831747e+002
1.518716e+003,1.854336e+002
1.519680e+003,1.857640e+002
1.520644e+003,1.853176e+002
1.521609e+003,1.840415e+002
1.522573e+003,1.826167e+002
1.523537e+003,1.819172e+002
1.524501e+003,1.820828e+002
1.525465e+003,1.829106e+002
1.526430e+003,1.840667e+002
1.527394e+003,1.842795e+002
1.528358e+003,1.814907e+002
1.529322e+003,1.760088e+002
1.530287e+003,1.734402e+002
1.531251e+003,1.759772e+002
1.532215e+003,1.774871e+002
1.533179e+003,1.766996e+002
1.534144e+003,1.761484e+002
1.535108e+003,1.772744e+002
1.536072e+003,1.786933e+002
1.537036e+003,1.791098e+002
1.538000e+003,1.784267e+002
1.538965e+003,1.767210e+002
1.539929e+003,1.741246e+002
1.540893e+003,1.717696e+002
1.541857e+003,1.710782e+002
1.542822e+003,1.718602e+002
1.543786e+003,1.726942e+002
1.544750e+003,1.735542e+002
1.545714e+003,1.739077e+002
1.546679e+003,1.731797e+002
1.547643e+003,1.725675e+002
1.548607e+003,1.731747e+002
1.549571e+003,1.737405e+002
1.550536e+003,1.724415e+002
1.551500e+003,1.698067e+002
1.552464e+003,1.676997e+002
1.553428e+003,1.668814e+002
1.554392e+003,1.673481e+002
1.555357e+003,1.692678e+002
1.556321e+003,1.713010e+002
1.557285e+003,1.706055e+002
1.558249e+003,1.674817e+002
1.559214e+003,1.661681e+002
1.560178e+003,1.674817e+002
1.561142e+003,1.686069e+002
1.562106e+003,1.690013e+002
1.563071e+003,1.680972e+002
1.564035e+003,1.645974e+002
1.564999e+003,1.599868e+002
1.565963e+003,1.572865e+002
1.566927e+003,1.569102e+002
1.567892e+003,1.578318e+002
1.568856e+003,1.599915e+002
1.569820e+003,1.619022e+002
1.570784e+003,1.617984e+002
1.571749e+003,1.601274e+002
1.572713e+003,1.575840e+002
1.573677e+003,1.543727e+002
1.574641e+003,1.530199e+002
1.575606e+003,1.551620e+002
1.576570e+003,1.572797e+002
1.577534e+003,1.566326e+002
1.578498e+003,1.542480e+002
1.579463e+003,1.516156e+002
1.580427e+003,1.488440e+002
1.581391e+003,1.466061e+002
1.582355e+003,1.450465e+002
1.583319e+003,1.443918e+002
1.584284e+003,1.455005e+002
1.585248e+003,1.471673e+002
1.586212e+003,1.481066e+002
1.587176e+003,1.478723e+002
1.588141e+003,1.454154e+002
1.589105e+003,1.406804e+002
1.590069e+003,1.365199e+002
1.591033e+003,1.347853e+002
1.591998e+003,1.342656e+002
1.592962e+003,1.335722e+002
1.593926e+003,1.325954e+002
1.594890e+003,1.304975e+002
1.595854e+003,1.269149e+002
1.596819e+003,1.248221e+002
1.597783e+003,1.261726e+002
1.598747e+003,1.276767e+002
1.599711e+003,1.265762e+002
1.600676e+003,1.244124e+002
1.601640e+003,1.230516e+002
1.602604e+003,1.226033e+002
1.603568e+003,1.224333e+002
1.604533e+003,1.222599e+002
1.605497e+003,1.216661e+002
1.606461e+003,1.204534e+002
1.607425e+003,1.184986e+002
1.608390e+003,1.147937e+002
1.609354e+003,1.093573e+002
1.610318e+003,1.065588e+002
1.611282e+003,1.078185e+002
1.612246e+003,1.091612e+002
1.613211e+003,1.093623e+002
1.614175e+003,1.084250e+002
1.615139e+003,1.054353e+002
1.616103e+003,1.019076e+002
1.617068e+003,1.005693e+002
1.618032e+003,1.014395e+002
1.618996e+003,1.016112e+002
1.619960e+003,9.924579e+001
1.620925e+003,9.612235e+001
1.621889e+003,9.512838e+001
1.622853e+003,9.582271e+001
1.623817e+003,9.500502e+001
1.624781e+003,9.248440e+001
1.625746e+003,9.025999e+001
1.626710e+003,8.862329e+001
1.627674e+003,8.722069e+001
1.628638e+003,8.543401e+001
1.629603e+003,8.395166e+001
1.630567e+003,8.428529e+001
1.631531e+003,8.527684e+001
1.632495e+003,8.403286e+001
1.633460e+003,8.021244e+001
1.634424e+003,7.696820e+001
1.635388e+003,7.674217e+001
1.636352e+003,7.754419e+001
1.637317e+003,7.537343e+001
1.638281e+003,7.051334e+001
1.639245e+003,6.794133e+001
1.640209e+003,6.837621e+001
1.641173e+003,6.867477e+001
1.642138e+003,6.875430e+001
1.643102e+003,6.771190e+001
1.644066e+003,6.367606e+001
1.645030e+003,5.950689e+001
1.645995e+003,5.829143e+001
1.646959e+003,5.930459e+001
1.647923e+003,6.013848e+001
1.648887e+003,6.003184e+001
1.649852e+003,5.980639e+001
1.650816e+003,6.026048e+001
1.651780e+003,6.074195e+001
1.652744e+003,5.965348e+001
1.653708e+003,5.705672e+001
1.654673e+003,5.504482e+001
1.655637e+003,5.371447e+001
1.656601e+003,5.302504e+001
1.657565e+003,5.404784e+001
1.658530e+003,5.432581e+001
1.659494e+003,5.158280e+001
1.660458e+003,4.809434e+001
1.661422e+003,4.619823e+001
1.662387e+003,4.582540e+001
1.663351e+003,4.614664e+001
1.664315e+003,4.684104e+001
1.665279e+003,4.732958e+001
1.666244e+003,4.725219e+001
1.667208e+003,4.652103e+001
1.668172e+003,4.470762e+001
1.669136e+003,4.184209e+001
1.670100e+003,3.858080e+001
1.671065e+003,3.432573e+001
1.672029e+003,3.259221e+001
1.672993e+003,3.657661e+001
1.673957e+003,4.059696e+001
1.674922e+003,4.099768e+001
1.675886e+003,3.940475e+001
1.676850e+003,3.693634e+001
1.677814e+003,3.415144e+001
1.678779e+003,3.231145e+001
1.679743e+003,3.181806e+001
1.680707e+003,3.153781e+001
1.681671e+003,3.046313e+001
1.682635e+003,2.914754e+001
1.683600e+003,2.859426e+001
1.684564e+003,2.876210e+001
1.685528e+003,2.919789e+001
1.686492e+003,2.982659e+001
1.687457e+003,3.028494e+001
1.688421e+003,3.080295e+001
1.689385e+003,3.061353e+001
1.690349e+003,2.823681e+001
1.691314e+003,2.552123e+001
1.692278e+003,2.478431e+001
1.693242e+003,2.551276e+001
1.694206e+003,2.567502e+001
1.695171e+003,2.477678e+001
1.696135e+003,2.339583e+001
1.697099e+003,2.160050e+001
1.698063e+003,1.979936e+001
1.699027e+003,1.837104e+001
1.699992e+003,1.742645e+001
1.700956e+003,1.735082e+001
1.701920e+003,1.813132e+001
1.702884e+003,1.907381e+001
1.703849e+003,2.024480e+001
1.704813e+003,2.017631e+001
1.705777e+003,1.675637e+001
1.706741e+003,1.242362e+001
1.707706e+003,1.159301e+001
1.708670e+003,1.337607e+001
1.709634e+003,1.423262e+001
1.710598e+003,1.358773e+001
1.711563e+003,1.287097e+001
1.712527e+003,1.290624e+001
1.713491e+003,1.281937e+001
1.714455e+003,1.137162e+001
1.715419e+003,9.641327e+000
1.716384e+003,9.774976e+000
1.717348e+003,1.150756e+001
1.718312e+003,1.262900e+001
1.719276e+003,1.243870e+001
1.720241e+003,1.197671e+001
1.721205e+003,1.198348e+001
1.722169e+003,1.216486e+001
1.723133e+003,1.214174e+001
1.724098e+003,1.194127e+001
1.725062e+003,1.129301e+001
1.726026e+003,9.968554e+000
1.726990e+003,8.871905e+000
1.727954e+003,8.105072e+000
1.728919e+003,7.643836e+000
1.729883e+003,7.845044e+000
1.730847e+003,8.062182e+000
1.731811e+003,7.382019e+000
1.732776e+003,6.261414e+000
1.733740e+003,5.976770e+000
1.734704e+003,6.629016e+000
1.735668e+003,6.947608e+000
1.736633e+003,6.185278e+000
1.737597e+003,5.071784e+000
1.738561e+003,4.575220e+000
1.739525e+003,4.657178e+000
1.740490e+003,5.010169e+000
1.741454e+003,5.919226e+000
1.742418e+003,5.841382e+000
1.743382e+003,3.362982e+000
1.744346e+003,2.054315e+000
1.745311e+003,3.719263e+000
1.746275e+003,5.300574e+000
1.747239e+003,4.636462e+000
1.748203e+003,3.162659e+000
1.749168e+003,2.793207e+000
1.750132e+003,3.459351e+000
1.751096e+003,4.109210e+000
1.752060e+003,4.246246e+000
1.753025e+003,3.886383e+000
1.753989e+003,3.041284e+000
1.754953e+003,1.934949e+000
1.755917e+003,1.011230e+000
1.756881e+003,2.584656e-001
1.757846e+003,-9.448852e-002
1.758810e+003,2.080139e-001
1.759774e+003,3.321167e-001
1.760738e+003,-5.279236e-001
1.761703e+003,-7.567383e-001
1.762667e+003,8.971313e-001
1.763631e+003,2.747119e+000
1.764595e+003,3.655115e+000
1.765560e+003,3.754218e+000
1.766524e+003,3.299841e+000
1.767488e+003,2.403748e+000
1.768452e+003,1.225000e+000
1.769417e+003,-1.991394e-001
1.770381e+003,-1.108264e+000
1.771345e+003,-2.350342e-001
1.772309e+003,1.541901e+000
1.773273e+003,1.846106e+000
1.774238e+003,8.037232e-001
1.775202e+003,1.774170e-001
1.776166e+003,2.258972e-001
1.777130e+003,8.969787e-001
1.778095e+003,2.822327e+000
1.779059e+003,4.026660e+000
1.780023e+003,2.006397e+000
1.780987e+003,-1.292352e+000
1.781952e+003,-2.739911e+000
1.782916e+003,-2.610034e+000
1.783880e+003,-1.904535e+000
1.784844e+003,-4.471619e-001
1.785808e+003,2.671143e-001
1.786773e+003,-1.139807e+000
1.787737e+003,-2.639215e+000
1.788701e+003,-2.389655e+000
1.789665e+003,-1.467725e+000
1.790630e+003,-1.566107e+000
1.791594e+003,-2.463873e+000
1.792558e+003,-2.960431e+000
1.793522e+003,-2.751819e+000
1.794487e+003,-2.230212e+000
1.795451e+003,-1.592004e+000
1.796415e+003,-8.459290e-001
1.797379e+003,1.815186e-002
1.798344e+003,7.836487e-001
1.799308e+003,5.271362e-001
1.800272e+003,-1.206146e+000
1.801236e+003,-2.371521e+000
1.802201e+003,-2.874933e+000
1.803165e+003,-2.858624e+000
1.804129e+003,-1.757221e+000
1.805093e+003,-8.139831e-001
1.806057e+003,-1.095026e+000
1.807022e+003,-1.626550e+000
1.807986e+003,-8.961426e-001
1.808950e+003,5.162476e-001
1.809914e+003,7.427673e-001
1.810879e+003,-6.073669e-001
1.811843e+003,-2.101544e+000
1.812807e+003,-2.690650e+000
1.813771e+003,-2.922009e+000
1.814736e+003,-3.702985e+000
1.815700e+003,-4.823871e+000
1.816664e+003,-5.213605e+000
1.817628e+003,-4.853699e+000
1.818593e+003,-3.962891e+000
1.819557e+003,-1.829852e+000
1.820521e+003,-1.240100e+000
1.821485e+003,-4.769354e+000
1.822449e+003,-8.117365e+000
1.823414e+003,-7.797369e+000
1.824378e+003,-5.804431e+000
1.825342e+003,-4.247302e+000
1.826306e+003,-3.213660e+000
1.827271e+003,-2.617627e+000
1.828235e+003,-2.515515e+000
1.829199e+003,-2.145343e+000
1.830163e+003,-5.946716e-001
1.831128e+003,7.684021e-001
1.832092e+003,5.566040e-001
1.833056e+003,-4.889649e-001
1.834020e+003,-1.600739e+000
1.834984e+003,-2.461853e+000
1.835949e+003,-1.883142e+000
1.836913e+003,1.717041e-001
1.837877e+003,1.377747e+000
1.838841e+003,4.285645e-001
1.839806e+003,-1.552020e+000
1.840770e+003,-3.487360e+000
1.841734e+003,-5.077649e+000
1.842698e+003,-5.254999e+000
1.843663e+003,-3.782385e+000
1.844627e+003,-2.494928e+000
1.845591e+003,-7.132508e-001
1.846555e+003,-3.058044e-001
1.847520e+003,-2.963159e+000
1.848484e+003,-4.981586e+000
1.849448e+003,-4.455420e+000
1.850412e+003,-3.109222e+000
1.851376e+003,-2.363183e+000
1.852341e+003,-1.949664e+000
1.853305e+003,-8.422729e-001
1.854269e+003,7.075745e-001
1.855233e+003,9.847839e-001
1.856198e+003,-7.068421e-001
1.857162e+003,-2.468732e+000
1.858126e+003,-2.282391e+000
1.859090e+003,-1.183643e+000
1.860055e+003,-1.588373e+000
1.861019e+003,-3.170697e+000
1.861983e+003,-3.451245e+000
1.862947e+003,-2.239795e+000
1.863911e+003,-1.349695e+000
1.864876e+003,-1.254132e+000
1.865840e+003,-1.107220e+000
1.866804e+003,-2.391296e-001
1.867768e+003,4.368530e-001
1.868733e+003,-5.527954e-001
1.869697e+003,-2.434692e+000
1.870661e+003,-2.600739e+000
1.871625e+003,-1.037848e+000
1.872590e+003,-5.802978e-001
1.873554e+003,-2.554279e+000
1.874518e+003,-3.487677e+000
1.875482e+003,-1.363715e+000
1.876447e+003,8.259827e-001
1.877411e+003,1.364160e+000
1.878375e+003,9.702759e-001
1.879339e+003,3.859253e-002
1.880303e+003,-9.940552e-001
1.881268e+003,-1.231457e+000
1.882232e+003,-7.114502e-001
1.883196e+003,-6.560547e-001
1.884160e+003,-1.663647e+000
1.885125e+003,-2.667731e+000
1.886089e+003,-2.459839e+000
1.887053e+003,-1.545874e+000
1.888017e+003,-1.386902e+000
1.888982e+003,-1.985052e+000
1.889946e+003,-1.455792e+000
1.890910e+003,6.591552e-001
1.891874e+003,1.534064e+000
1.892839e+003,2.053223e-002
1.893803e+003,-1.423285e+000
1.894767e+003,-1.677588e+000
1.895731e+003,-1.329865e+000
1.896695e+003,-4.938416e-001
1.897660e+003,3.379883e-001
1.898624e+003,1.565857e-001
1.899588e+003,-9.224060e-001
1.900552e+003,-1.694305e+000
1.901517e+003,-1.954175e+000
1.902481e+003,-1.977185e+000
1.903445e+003,-1.814966e+000
1.904409e+003,-1.438873e+000
1.905374e+003,-4.742371e-001
1.906338e+003,4.916016e-001
1.907302e+003,4.440369e-001
1.908266e+003,-1.708069e-001
1.909230e+003,-7.435302e-002
1.910195e+003,7.191162e-001
1.911159e+003,9.628357e-001
1.912123e+003,1.670044e-001
1.913087e+003,-7.122437e-001
1.914052e+003,-7.747070e-001
1.915016e+003,-6.273254e-001
1.915980e+003,-1.712909e+000
1.916944e+003,-3.813702e+000
1.917909e+003,-3.766272e+000
1.918873e+003,-9.785889e-001
1.919837e+003,5.755249e-001
1.920801e+003,1.980347e-001
1.921766e+003,-7.469482e-001
1.922730e+003,-2.652704e+000
1.923694e+003,-3.846832e+000
1.924658e+003,-2.148077e+000
1.925622e+003,3.023132e-001
1.926587e+003,6.762024e-001
1.927551e+003,-3.844055e-001
1.928515e+003,-4.161133e-001
1.929479e+003,9.777771e-001
1.930444e+003,1.807629e+000
1.931408e+003,1.348419e+000
1.932372e+003,3.766479e-001
1.933336e+003,-1.449091e+000
1.934301e+003,-2.885547e+000
1.935265e+003,-2.625354e+000
1.936229e+003,-1.483936e+000
1.937193e+003,-5.157593e-001
1.938157e+003,1.142456e-001
1.939122e+003,6.437256e-001
1.940086e+003,1.086853e+000
1.941050e+003,9.320434e-001
1.942014e+003,-1.113586e-001
1.942979e+003,-1.073523e+000
1.943943e+003,-6.831115e-001
1.944907e+003,5.766724e-001
1.945871e+003,1.341711e+000
1.946836e+003,1.670740e+000
1.947800e+003,2.216064e+000
1.948764e+003,3.031574e+000
1.949728e+003,2.929846e+000
1.950693e+003,1.256915e+000
1.951657e+003,2.158081e-001
1.952621e+003,1.306598e+000
1.953585e+003,2.726410e+000
1.954549e+003,2.897003e+000
1.955514e+003,2.067487e+000
1.956478e+003,2.458801e-001
1.957442e+003,-2.406226e+000
1.958406e+003,-3.097479e+000
1.959371e+003,-7.866089e-001
1.960335e+003,6.567505e-001
1.961299e+003,-2.791077e-001
1.962263e+003,-7.068970e-001
1.963228e+003,1.015772e+000
1.964192e+003,2.824884e+000
1.965156e+003,3.113641e+000
1.966120e+003,2.729297e+000
1.967084e+003,2.906885e+000
1.968049e+003,3.533832e+000
1.969013e+003,3.754834e+000
1.969977e+003,3.405017e+000
1.970941e+003,3.227405e+000
1.971906e+003,3.693329e+000
1.972870e+003,4.111566e+000
1.973834e+003,3.584369e+000
1.974798e+003,2.733112e+000
1.975763e+003,2.744256e+000
1.976727e+003,3.229633e+000
1.977691e+003,2.952661e+000
1.978655e+003,1.982312e+000
1.979620e+003,1.431067e+000
1.980584e+003,1.599445e+000
1.981548e+003,2.247992e+000
1.982512e+003,3.254333e+000
1.983476e+003,3.973236e+000
1.984441e+003,3.698761e+000
1.985405e+003,2.947723e+000
1.986369e+003,3.034668e+000
1.987333e+003,3.966357e+000
1.988298e+003,3.932648e+000
1.989262e+003,2.295062e+000
1.990226e+003,1.335486e+000
1.991190e+003,1.474146e+000
1.992155e+003,1.725134e+000
1.993119e+003,2.073950e+000
1.994083e+003,2.247070e+000
1.995047e+003,1.779700e+000
1.996011e+003,1.260181e+000
1.996976e+003,1.443341e+000
1.997940e+003,2.071942e+000
1.998904e+003,2.568689e+000
1.999868e+003,2.855377e+000
2.000833e+003,2.606683e+000
2.001797e+003,1.387482e+000
2.002761e+003,4.603333e-001
2.003725e+003,4.667786e-001
2.004690e+003,7.740784e-001
2.005654e+003,8.991638e-001
2.006618e+003,1.190942e+000
2.007582e+003,2.469482e+000
2.008547e+003,3.969519e+000
2.009511e+003,4.434613e+000
2.010475e+003,3.777875e+000
2.011439e+003,2.106445e+000
2.012403e+003,-2.082520e-001
2.013368e+003,-1.118146e+000
2.014332e+003,1.006934e+000
2.015296e+003,3.709656e+000
2.016260e+003,3.372101e+000
2.017225e+003,1.475751e+000
2.018189e+003,1.543903e+000
2.019153e+003,3.084570e+000
2.020117e+003,4.356793e+000
2.021082e+003,5.139758e+000
2.022046e+003,5.113605e+000
2.023010e+003,4.249506e+000
2.023974e+003,3.348724e+000
2.024938e+003,2.805450e+000
2.025903e+003,2.439191e+000
2.026867e+003,2.054974e+000
2.027831e+003,1.815002e+000
2.028795e+003,2.175549e+000
2.029760e+003,3.148932e+000
2.030724e+003,3.778699e+000
2.031688e+003,4.097070e+000
2.032652e+003,3.505933e+000
2.033617e+003,1.140137e+000
2.034581e+003,-6.885986e-002
2.035545e+003,1.123120e+000
2.036509e+003,2.922107e+000
2.037474e+003,4.899976e+000
2.038438e+003,6.332080e+000
2.039402e+003,6.372479e+000
2.040366e+003,5.423053e+000
2.041330e+003,3.986096e+000
2.042295e+003,2.169842e+000
2.043259e+003,1.736700e+000
2.044223e+003,3.653265e+000
2.045187e+003,4.941156e+000
2.046152e+003,4.577997e+000
2.047116e+003,4.080152e+000
2.048080e+003,3.795349e+000
2.049044e+003,3.751727e+000
2.050009e+003,4.060919e+000
2.050973e+003,4.613196e+000
2.051937e+003,5.806079e+000
2.052901e+003,6.960858e+000
2.053865e+003,6.028485e+000
2.054830e+003,3.188092e+000
2.055794e+003,2.084308e+000
2.056758e+003,4.504602e+000
2.057722e+003,6.949872e+000
2.058687e+003,6.721466e+000
2.059651e+003,5.583258e+000
2.060615e+003,4.482727e+000
2.061579e+003,4.028491e+000
2.062544e+003,6.123004e+000
2.063508e+003,9.191693e+000
2.064472e+003,9.452637e+000
2.065436e+003,7.168427e+000
2.066401e+003,5.345270e+000
2.067365e+003,4.938605e+000
2.068329e+003,4.746796e+000
2.069293e+003,4.026373e+000
2.070258e+003,3.586072e+000
2.071222e+003,4.531372e+000
2.072186e+003,6.080035e+000
2.073150e+003,6.496381e+000
2.074115e+003,5.985669e+000
2.075079e+003,5.229883e+000
2.076043e+003,4.301849e+000
2.077007e+003,3.953967e+000
2.077971e+003,4.327277e+000
2.078936e+003,5.010925e+000
2.079900e+003,5.846148e+000
2.080864e+003,6.240283e+000
2.081828e+003,5.743146e+000
2.082792e+003,4.865668e+000
2.083757e+003,4.234576e+000
2.084721e+003,4.028223e+000
2.085685e+003,5.099475e+000
2.086649e+003,7.565369e+000
2.087614e+003,8.863007e+000
2.088578e+003,8.835840e+000
2.089542e+003,8.336390e+000
2.090506e+003,7.222479e+000
2.091471e+003,6.135675e+000
2.092435e+003,5.152258e+000
2.093399e+003,4.746692e+000
2.094363e+003,5.523627e+000
2.095328e+003,6.591077e+000
2.096292e+003,6.704932e+000
2.097256e+003,6.131561e+000
2.098220e+003,5.981757e+000
2.099185e+003,6.405627e+000
2.100149e+003,6.410760e+000
2.101113e+003,5.536047e+000
2.102077e+003,4.976495e+000
2.103042e+003,5.075317e+000
2.104006e+003,5.030487e+000
2.104970e+003,4.324805e+000
2.105934e+003,3.884167e+000
2.106898e+003,4.565301e+000
2.107863e+003,5.402356e+000
2.108827e+003,5.268945e+000
2.109791e+003,4.628778e+000
2.110755e+003,4.449982e+000
2.111719e+003,4.769549e+000
2.112684e+003,5.453644e+000
2.113648e+003,6.877344e+000
2.114612e+003,7.612237e+000
2.115576e+003,6.542951e+000
2.116541e+003,5.810327e+000
2.117505e+003,7.052435e+000
2.118469e+003,7.883374e+000
2.119433e+003,6.082690e+000
2.120398e+003,3.767096e+000
2.121362e+003,3.389307e+000
2.122326e+003,4.049121e+000
2.123290e+003,3.430121e+000
2.124255e+003,1.753943e+000
2.125219e+003,1.702716e+000
2.126183e+003,4.161829e+000
2.127147e+003,6.210663e+000
2.128112e+003,6.171308e+000
2.129076e+003,6.010266e+000
2.130040e+003,7.281470e+000
2.131004e+003,8.247327e+000
2.131969e+003,7.100580e+000
2.132933e+003,5.191553e+000
2.133897e+003,4.067492e+000
2.134861e+003,3.596295e+000
2.135825e+003,3.115772e+000
2.136790e+003,2.569251e+000
2.137754e+003,2.275073e+000
2.138718e+003,2.370142e+000
2.139682e+003,2.987689e+000
2.140646e+003,4.405707e+000
2.141611e+003,5.657819e+000
2.142575e+003,5.942096e+000
2.143539e+003,5.585181e+000
2.144503e+003,4.623224e+000
2.145468e+003,3.577484e+000
2.146432e+003,3.143341e+000
2.147396e+003,3.090442e+000
2.148360e+003,2.838202e+000
2.149325e+003,2.422943e+000
2.150289e+003,2.383050e+000
2.151253e+003,2.781250e+000
2.152217e+003,2.975293e+000
2.153182e+003,2.624762e+000
2.154146e+003,2.244775e+000
2.155110e+003,2.289551e+000
2.156074e+003,2.593311e+000
2.157039e+003,3.030743e+000
2.158003e+003,3.410144e+000
2.158967e+003,3.468866e+000
2.159931e+003,3.324878e+000
2.160896e+003,3.135968e+000
2.161860e+003,2.987805e+000
2.162824e+003,3.042712e+000
2.163788e+003,3.301587e+000
2.164752e+003,3.684839e+000
2.165717e+003,4.099213e+000
2.166681e+003,3.977039e+000
2.167645e+003,2.690112e+000
2.168609e+003,1.216272e+000
2.169573e+003,1.226324e+000
2.170538e+003,1.847803e+000
2.171502e+003,1.104254e+000
2.172466e+003,-3.659607e-001
2.173430e+003,-9.729248e-001
2.174395e+003,-6.966858e-001
2.175359e+003,1.693542e-001
2.176323e+003,1.320581e+000
2.177287e+003,1.783551e+000
2.178252e+003,1.264874e+000
2.179216e+003,8.151062e-001
2.180180e+003,1.216992e+000
2.181144e+003,1.820343e+000
2.182109e+003,1.799249e+000
2.183073e+003,1.378174e+000
2.184037e+003,9.201599e-001
2.185001e+003,4.932190e-001
2.185966e+003,3.814819e-001
2.186930e+003,5.155090e-001
2.187894e+003,6.535400e-001
2.188858e+003,6.458679e-001
2.189823e+003,-2.498230e-001
2.190787e+003,-2.001788e+000
2.191751e+003,-2.616956e+000
2.192715e+003,-1.065955e+000
2.193679e+003,5.466126e-001
2.194644e+003,1.469238e-001
2.195608e+003,-1.161597e+000
2.196572e+003,-1.696289e+000
2.197536e+003,-1.729358e+000
2.198500e+003,-1.730487e+000
2.199465e+003,-1.822205e+000
2.200429e+003,-2.875079e+000
2.201393e+003,-4.378693e+000
2.202357e+003,-3.829358e+000
2.203322e+003,-1.244476e+000
2.204286e+003,6.269226e-001
2.205250e+003,7.490845e-001
2.206214e+003,1.165833e-001
2.207179e+003,-5.877930e-001
2.208143e+003,-1.001862e+000
2.209107e+003,-5.795166e-001
2.210071e+003,1.169067e-001
2.211036e+003,1.123047e-002
2.212000e+003,-5.934998e-001
2.212964e+003,-9.801391e-001
2.213928e+003,-1.236938e+000
2.214893e+003,-1.713959e+000
2.215857e+003,-2.306378e+000
2.216821e+003,-2.476111e+000
2.217785e+003,-2.250140e+000
2.218750e+003,-2.598731e+000
2.219714e+003,-3.862134e+000
2.220678e+003,-4.630615e+000
2.221642e+003,-3.690527e+000
2.222606e+003,-2.209424e+000
2.223571e+003,-1.666888e+000
2.224535e+003,-1.735620e+000
2.225499e+003,-2.031097e+000
2.226463e+003,-2.348822e+000
2.227427e+003,-2.039471e+000
2.228392e+003,-1.450916e+000
2.229356e+003,-1.708337e+000
2.230320e+003,-2.669513e+000
2.231284e+003,-3.302777e+000
2.232249e+003,-3.303479e+000
2.233213e+003,-2.793671e+000
2.234177e+003,-1.889136e+000
2.235141e+003,-1.531897e+000
2.236106e+003,-2.745929e+000
2.237070e+003,-4.229584e+000
2.238034e+003,-4.442798e+000
2.238998e+003,-3.986829e+000
2.239963e+003,-3.413129e+000
2.240927e+003,-2.931952e+000
2.241891e+003,-2.907428e+000
2.242855e+003,-3.198120e+000
2.243820e+003,-3.612054e+000
2.244784e+003,-3.985718e+000
2.245748e+003,-4.081958e+000
2.246712e+003,-3.798791e+000
2.247677e+003,-2.869440e+000
2.248641e+003,-1.082703e+000
2.249605e+003,2.150391e-001
2.250569e+003,-5.259827e-001
2.251533e+003,-1.490295e+000
2.252498e+003,-4.289917e-001
2.253462e+003,6.510132e-001
2.254426e+003,-8.971069e-001
2.255390e+003,-3.333600e+000
2.256354e+003,-4.387103e+000
2.257319e+003,-4.308173e+000
2.258283e+003,-3.888556e+000
2.259247e+003,-3.382935e+000
2.260211e+003,-2.867108e+000
2.261176e+003,-2.388062e+000
2.262140e+003,-2.179834e+000
2.263104e+003,-2.374091e+000
2.264068e+003,-2.805078e+000
2.265033e+003,-3.956659e+000
2.265997e+003,-4.532519e+000
2.266961e+003,-3.233276e+000
2.267925e+003,-1.668121e+000
2.268890e+003,-7.830628e-001
2.269854e+003,-5.897705e-001
2.270818e+003,-1.491138e+000
2.271782e+003,-2.706488e+000
2.272747e+003,-2.856805e+000
2.273711e+003,-2.126898e+000
2.274675e+003,-1.688513e+000
2.275639e+003,-1.765936e+000
2.276604e+003,-2.622107e+000
2.277568e+003,-5.327203e+000
2.278532e+003,-6.650134e+000
2.279496e+003,-4.288031e+000
2.280460e+003,-2.643939e+000
2.281425e+003,-3.920660e+000
2.282389e+003,-5.595416e+000
2.283353e+003,-6.580969e+000
2.284317e+003,-6.827484e+000
2.285281e+003,-5.893671e+000
2.286246e+003,-4.510284e+000
2.287210e+003,-3.985938e+000
2.288174e+003,-4.195380e+000
2.289138e+003,-4.085364e+000
2.290103e+003,-3.518939e+000
2.291067e+003,-3.182855e+000
2.292031e+003,-2.870691e+000
2.292995e+003,-3.186072e+000
2.293960e+003,-4.825086e+000
2.294924e+003,-5.941626e+000
2.295888e+003,-6.259583e+000
2.296852e+003,-5.596503e+000
2.297817e+003,-3.099213e+000
2.298781e+003,-9.422607e-001
2.299745e+003,-1.374585e+000
2.300709e+003,-2.832330e+000
2.301674e+003,-2.620990e+000
2.302638e+003,-1.204266e+000
2.303602e+003,-8.351929e-001
2.304566e+003,-1.617279e+000
2.305531e+003,-2.517181e+000
2.306495e+003,-3.559741e+000
2.307459e+003,-4.096728e+000
2.308423e+003,-4.100946e+000
2.309387e+003,-3.274725e+000
2.310352e+003,-1.385449e+000
2.311316e+003,-1.156842e+000
2.312280e+003,-4.025885e+000
2.313244e+003,-6.431451e+000
2.314208e+003,-5.352960e+000
2.315173e+003,-2.978095e+000
2.316137e+003,-2.335449e+000
2.317101e+003,-3.159741e+000
2.318065e+003,-5.421808e+000
2.319030e+003,-8.380722e+000
2.319994e+003,-8.894064e+000
2.320958e+003,-7.428824e+000
2.321922e+003,-5.628571e+000
2.322887e+003,-3.927106e+000
2.323851e+003,-3.094189e+000
2.324815e+003,-3.253961e+000
2.325779e+003,-4.274414e+000
2.326744e+003,-5.904779e+000
2.327708e+003,-7.130044e+000
2.328672e+003,-7.313293e+000
2.329636e+003,-7.069525e+000
2.330601e+003,-6.835992e+000
2.331565e+003,-6.672162e+000
2.332529e+003,-6.845520e+000
2.333493e+003,-6.929986e+000
2.334458e+003,-6.091583e+000
2.335422e+003,-5.127551e+000
2.336386e+003,-5.462341e+000
2.337350e+003,-6.277930e+000
2.338314e+003,-5.743146e+000
2.339279e+003,-4.254230e+000
2.340243e+003,-3.733533e+000
2.341207e+003,-4.468817e+000
2.342171e+003,-5.038049e+000
2.343135e+003,-5.006775e+000
2.344100e+003,-4.639154e+000
2.345064e+003,-3.720337e+000
2.346028e+003,-2.986322e+000
2.346992e+003,-2.444678e+000
2.347957e+003,-2.390686e+000
2.348921e+003,-3.534784e+000
2.349885e+003,-4.636701e+000
2.350849e+003,-4.892957e+000
2.351814e+003,-4.586688e+000
2.352778e+003,-3.556659e+000
2.353742e+003,-2.422186e+000
2.354706e+003,-2.845935e+000
2.355671e+003,-4.626550e+000
2.356635e+003,-5.479034e+000
2.357599e+003,-5.174707e+000
2.358563e+003,-5.005694e+000
2.359528e+003,-4.942871e+000
2.360492e+003,-5.303174e+000
2.361456e+003,-6.367682e+000
2.362420e+003,-6.667816e+000
2.363385e+003,-5.640137e+000
2.364349e+003,-4.525384e+000
2.365313e+003,-3.969141e+000
2.366277e+003,-3.525445e+000
2.367241e+003,-2.738867e+000
2.368206e+003,-2.202789e+000
2.369170e+003,-2.905560e+000
2.370134e+003,-4.535291e+000
2.371098e+003,-6.688135e+000
2.372063e+003,-8.870059e+000
2.373027e+003,-8.626938e+000
2.373991e+003,-6.507226e+000
2.374955e+003,-4.406525e+000
2.375919e+003,-2.792749e+000
2.376884e+003,-2.420245e+000
2.377848e+003,-3.196240e+000
2.378812e+003,-4.092108e+000
2.379776e+003,-4.711774e+000
2.380741e+003,-5.378870e+000
2.381705e+003,-6.279181e+000
2.382669e+003,-6.859637e+000
2.383633e+003,-6.814661e+000
2.384598e+003,-6.109888e+000
2.385562e+003,-3.764020e+000
2.386526e+003,-1.982092e+000
2.387490e+003,-3.331183e+000
2.388455e+003,-5.225073e+000
2.389419e+003,-4.766870e+000
2.390383e+003,-3.545245e+000
2.391347e+003,-4.123749e+000
2.392312e+003,-5.808014e+000
2.393276e+003,-6.559558e+000
2.394240e+003,-6.282251e+000
2.395204e+003,-5.951410e+000
2.396168e+003,-5.590045e+000
2.397133e+003,-5.380267e+000
2.398097e+003,-5.749426e+000
2.399061e+003,-5.457696e+000
2.400025e+003,-3.787549e+000
2.400990e+003,-2.928992e+000
2.401954e+003,-3.713507e+000
2.402918e+003,-4.598206e+000
2.403882e+003,-5.012842e+000
2.404846e+003,-4.732165e+000
2.405811e+003,-3.355652e+000
2.406775e+003,-1.985858e+000
2.407739e+003,-2.313446e+000
2.408703e+003,-3.637872e+000
2.409668e+003,-3.904572e+000
2.410632e+003,-3.398499e+000
2.411596e+003,-3.988885e+000
2.412560e+003,-5.249933e+000
2.413525e+003,-4.755664e+000
2.414489e+003,-3.013879e+000
2.415453e+003,-2.961359e+000
2.416417e+003,-4.472595e+000
2.417382e+003,-4.890039e+000
2.418346e+003,-3.864172e+000
2.419310e+003,-4.007452e+000
2.420274e+003,-6.350653e+000
2.421239e+003,-8.083224e+000
2.422203e+003,-7.304864e+000
2.423167e+003,-5.831397e+000
2.424131e+003,-4.473102e+000
2.425095e+003,-3.490985e+000
2.426060e+003,-3.199756e+000
2.427024e+003,-3.177087e+000
2.427988e+003,-3.121912e+000
2.428952e+003,-3.173370e+000
2.429917e+003,-3.584583e+000
2.430881e+003,-4.095587e+000
2.431845e+003,-4.441119e+000
2.432809e+003,-4.582477e+000
2.433773e+003,-4.247724e+000
2.434738e+003,-3.431177e+000
2.435702e+003,-3.226392e+000
2.436666e+003,-3.816577e+000
2.437630e+003,-4.357593e+000
2.438595e+003,-4.965833e+000
2.439559e+003,-5.202985e+000
2.440523e+003,-5.032654e+000
2.441487e+003,-3.751916e+000
2.442452e+003,-1.084027e+000
2.443416e+003,6.924194e-001
2.444380e+003,4.223877e-001
2.445344e+003,-7.768250e-001
2.446309e+003,-2.019684e+000
2.447273e+003,-2.955395e+000
2.448237e+003,-3.373285e+000
2.449201e+003,-2.721515e+000
2.450166e+003,1.663708e+000
2.451130e+003,6.364935e+000
2.452094e+003,5.078308e+000
2.453058e+003,7.692932e-001
2.454022e+003,-2.463141e+000
2.454987e+003,-4.493915e+000
2.455951e+003,-6.033661e+000
2.456915e+003,-7.015405e+000
2.457879e+003,-6.589129e+000
2.458844e+003,-5.008655e+000
2.459808e+003,-4.532965e+000
2.460772e+003,-5.957904e+000
2.461736e+003,-6.207391e+000
2.462700e+003,-3.669586e+000
2.463665e+003,-1.688776e+000
2.464629e+003,-1.466064e-002
2.465593e+003,1.974365e-001
2.466557e+003,-2.205524e+000
2.467522e+003,-4.354632e+000
2.468486e+003,-5.198828e+000
2.469450e+003,-5.016742e+000
2.470414e+003,-3.772186e+000
2.471379e+003,-2.427026e+000
2.472343e+003,-2.148810e+000
2.473307e+003,-2.650720e+000
2.474271e+003,-3.435480e+000
2.475236e+003,-4.324029e+000
2.476200e+003,-4.678277e+000
2.477164e+003,-4.656360e+000
2.478128e+003,-4.758124e+000
2.479093e+003,-4.863312e+000
2.480057e+003,-4.615582e+000
2.481021e+003,-4.073401e+000
2.481985e+003,-3.336060e+000
2.482949e+003,-2.543817e+000
2.483914e+003,-1.952588e+000
2.484878e+003,-1.693134e+000
2.485842e+003,-2.105103e+000
2.486806e+003,-3.525970e+000
2.487771e+003,-4.330066e+000
2.488735e+003,-3.589862e+000
2.489699e+003,-2.682153e+000
2.490663e+003,-1.422211e+000
2.491627e+003,-9.398010e-001
2.492592e+003,-1.922101e+000
2.493556e+003,-3.275440e+000
2.494520e+003,-5.009363e+000
2.495484e+003,-5.813208e+000
2.496449e+003,-4.240668e+000
2.497413e+003,-2.202417e+000
2.498377e+003,-2.527826e+000
2.499341e+003,-4.185083e+000
2.500306e+003,-4.508527e+000
2.501270e+003,-3.726129e+000
2.502234e+003,-2.649506e+000
2.503198e+003,-1.528369e+000
2.504163e+003,-1.614282e+000
2.505127e+003,-2.405957e+000
2.506091e+003,-1.836859e+000
2.507055e+003,-4.233826e-001
2.508020e+003,-7.025146e-001
2.508984e+003,-2.568878e+000
2.509948e+003,-3.576770e+000
2.510912e+003,-3.043237e+000
2.511876e+003,-2.222900e+000
2.512841e+003,-1.363837e+000
2.513805e+003,-1.105420e+000
2.514769e+003,-2.741486e+000
2.515733e+003,-3.327857e+000
2.516698e+003,-1.080664e+000
2.517662e+003,7.562317e-001
2.518626e+003,1.545917e+000
2.519590e+003,1.188507e+000
2.520554e+003,-9.242859e-001
2.521519e+003,-3.026556e+000
2.522483e+003,-3.698193e+000
2.523447e+003,-3.098914e+000
2.524411e+003,-1.249695e+000
2.525376e+003,1.119318e+000
2.526340e+003,2.280707e+000
2.527304e+003,2.275134e+000
2.528268e+003,8.379028e-001
2.529233e+003,-1.289917e+000
2.530197e+003,-2.603406e+000
2.531161e+003,-3.004443e+000
2.532125e+003,-2.194379e+000
2.533090e+003,-7.924255e-001
2.534054e+003,-3.229370e-001
2.535018e+003,-5.827820e-001
2.535982e+003,5.361938e-001
2.536947e+003,3.325885e+000
2.537911e+003,3.923151e+000
2.538875e+003,1.934021e-001
2.539839e+003,-2.160034e+000
2.540803e+003,-1.678723e+000
2.541768e+003,-9.321777e-001
2.542732e+003,7.688598e-002
2.543696e+003,7.420594e-001
2.544660e+003,9.092590e-001
2.545625e+003,1.074970e+000
2.546589e+003,1.549963e+000
2.547553e+003,9.758423e-001
2.548517e+003,-1.804840e+000
2.549482e+003,-4.154700e+000
2.550446e+003,-2.699805e+000
2.551410e+003,-1.481872e-001
2.552374e+003,-1.411505e+000
2.553339e+003,-3.630402e+000
2.554303e+003,-1.897357e+000
2.555267e+003,8.132569e-001
2.556231e+003,3.427978e-001
2.557196e+003,-1.400354e+000
2.558160e+003,-1.599133e+000
2.559124e+003,-9.283264e-001
2.560088e+003,-1.140448e+000
2.561052e+003,-1.921063e+000
2.562017e+003,-1.559778e+000
2.562981e+003,-9.038696e-002
2.563945e+003,1.903442e-001
2.564909e+003,-1.126209e+000
2.565874e+003,-1.318048e+000
2.566838e+003,-1.709290e-001
2.567802e+003,5.519837e-001
2.568766e+003,7.124268e-001
2.569730e+003,9.231995e-001
2.570695e+003,1.330066e+000
2.571659e+003,2.290961e+000
2.572623e+003,3.701019e+000
2.573587e+003,4.143811e+000
2.574552e+003,2.946454e+000
2.575516e+003,1.216736e+000
2.576480e+003,-5.468567e-001
2.577444e+003,-1.688196e+000
2.578409e+003,-1.512109e+000
2.579373e+003,-1.159674e+000
2.580337e+003,-1.058521e+000
2.581301e+003,-1.061322e+000
2.582266e+003,-1.578424e+000
2.583230e+003,-1.450775e+000
2.584194e+003,6.711487e-001
2.585158e+003,2.719989e+000
2.586123e+003,2.639362e+000
2.587087e+003,1.332385e+000
2.588051e+003,9.909058e-002
2.589015e+003,-7.281311e-001
2.589979e+003,4.309936e-001
2.590944e+003,2.686371e+000
2.591908e+003,2.450848e+000
2.592872e+003,4.882019e-001
2.593836e+003,-2.209503e+000
2.594801e+003,-4.430432e+000
2.595765e+003,-3.206769e+000
2.596729e+003,3.515625e-003
2.597693e+003,1.232092e+000
2.598657e+003,3.861145e-001
2.599622e+003,-2.799133e-001
2.600586e+003,-3.037781e-001
2.601550e+003,7.018799e-001
2.602514e+003,3.822357e+000
2.603479e+003,4.713080e+000
2.604443e+003,2.514233e+000
2.605407e+003,5.091248e-001
2.606371e+003,-1.074237e+000
2.607336e+003,-1.784589e+000
2.608300e+003,-1.519641e+000
2.609264e+003,-8.737610e-001
2.610228e+003,-1.304016e-001
2.611193e+003,5.409119e-001
2.612157e+003,1.027240e+000
2.613121e+003,6.937988e-001
2.614085e+003,-1.228155e+000
2.615050e+003,-3.037170e+000
2.616014e+003,-3.517566e+000
2.616978e+003,-3.124756e+000
2.617942e+003,-1.086615e+000
2.618906e+003,4.506592e-001
2.619871e+003,4.879151e-002
2.620835e+003,-1.268500e+000
2.621799e+003,-3.890826e+000
2.622763e+003,-5.384223e+000
2.623728e+003,-2.936469e+000
2.624692e+003,8.385315e-001
2.625656e+003,1.745038e+000
2.626620e+003,8.227234e-001
2.627584e+003,7.776001e-001
2.628549e+003,1.311542e+000
2.629513e+003,1.540741e+000
2.630477e+003,1.517645e+000
2.631441e+003,8.838196e-001
2.632406e+003,3.620300e-001
2.633370e+003,2.165710e+000
2.634334e+003,4.728784e+000
2.635298e+003,4.113428e+000
2.636263e+003,1.123975e+000
2.637227e+003,-1.035339e-001
2.638191e+003,8.678101e-001
2.639155e+003,1.387884e+000
2.640120e+003,1.345160e+000
2.641084e+003,7.894165e-001
2.642048e+003,-6.981872e-001
2.643012e+003,-3.173828e-003
2.643977e+003,3.107544e+000
2.644941e+003,4.136828e+000
2.645905e+003,2.607324e+000
2.646869e+003,1.196020e+000
2.647833e+003,6.670044e-001
2.648798e+003,3.491760e-001
2.649762e+003,-3.747559e-003
2.650726e+003,3.378296e-002
2.651690e+003,7.926941e-001
2.652655e+003,1.246735e+000
2.653619e+003,7.709228e-001
2.654583e+003,2.422546e-001
2.655547e+003,-6.725281e-001
2.656511e+003,-5.984192e-001
2.657476e+003,1.115179e+000
2.658440e+003,3.140387e+000
2.659404e+003,5.315021e+000
2.660368e+003,5.457367e+000
2.661333e+003,2.007062e+000
2.662297e+003,-1.553204e+000
2.663261e+003,-1.875690e+000
2.664225e+003,-5.423706e-001
2.665190e+003,1.245349e+000
2.666154e+003,2.421478e+000
2.667118e+003,7.095337e-001
2.668082e+003,-8.928467e-001
2.669047e+003,1.040503e+000
2.670011e+003,3.501776e+000
2.670975e+003,3.799475e+000
2.671939e+003,2.942291e+000
2.672904e+003,1.908954e+000
2.673868e+003,1.085748e+000
2.674832e+003,1.028509e+000
2.675796e+003,1.319690e+000
2.676760e+003,8.091308e-001
2.677725e+003,-1.824646e-001
2.678689e+003,-3.024109e-001
2.679653e+003,2.871704e-001
2.680617e+003,1.436908e+000
2.681582e+003,2.587183e+000
2.682546e+003,2.648560e+000
2.683510e+003,2.001153e+000
2.684474e+003,1.161646e+000
2.685438e+003,4.528992e-001
2.686403e+003,5.034790e-001
2.687367e+003,1.223035e+000
2.688331e+003,1.684357e+000
2.689295e+003,1.905817e+000
2.690260e+003,2.123065e+000
2.691224e+003,2.282642e+000
2.692188e+003,2.949738e+000
2.693152e+003,3.992377e+000
2.694117e+003,3.288702e+000
2.695081e+003,1.142780e+000
2.696045e+003,1.811035e-001
2.697009e+003,6.152222e-001
2.697974e+003,7.724182e-001
2.698938e+003,3.141479e-001
2.699902e+003,4.541260e-001
2.700866e+003,1.647223e+000
2.701831e+003,2.442249e+000
2.702795e+003,2.645380e+000
2.703759e+003,1.763446e+000
2.704723e+003,-1.439276e+000
2.705688e+003,-1.755103e+000
2.706652e+003,1.990143e+000
2.707616e+003,4.488421e+000
2.708580e+003,4.430860e+000
2.709544e+003,3.569025e+000
2.710509e+003,2.716168e+000
2.711473e+003,2.160736e+000
2.712437e+003,2.037433e+000
2.713401e+003,2.282092e+000
2.714365e+003,3.040546e+000
2.715330e+003,3.778992e+000
2.716294e+003,4.759888e+000
2.717258e+003,4.829083e+000
2.718222e+003,2.560980e+000
2.719187e+003,8.818054e-001
2.720151e+003,7.126526e-001
2.721115e+003,1.194751e+000
2.722079e+003,1.986865e+000
2.723044e+003,2.509973e+000
2.724008e+003,2.324713e+000
2.724972e+003,1.987665e+000
2.725936e+003,2.060345e+000
2.726901e+003,2.321484e+000
2.727865e+003,2.314197e+000
2.728829e+003,2.705884e+000
2.729793e+003,4.953570e+000
2.730758e+003,6.605451e+000
2.731722e+003,5.606830e+000
2.732686e+003,3.653107e+000
2.733650e+003,1.392767e+000
2.734615e+003,-6.475830e-003
2.735579e+003,6.501037e-001
2.736543e+003,1.814056e+000
2.737507e+003,1.362286e+000
2.738471e+003,3.173767e-001
2.739436e+003,5.818847e-001
2.740400e+003,1.533386e+000
2.741364e+003,2.527417e+000
2.742328e+003,3.175287e+000
2.743292e+003,2.613574e+000
2.744257e+003,1.871045e+000
2.745221e+003,2.071606e+000
2.746185e+003,2.769202e+000
2.747149e+003,3.543921e+000
2.748114e+003,4.093390e+000
2.749078e+003,3.940607e+000
2.750042e+003,3.390869e+000
2.751006e+003,3.176208e+000
2.751971e+003,3.198651e+000
2.752935e+003,3.397583e+000
2.753899e+003,3.443274e+000
2.754863e+003,2.234314e+000
2.755828e+003,7.199707e-001
2.756792e+003,3.172058e-001
2.757756e+003,7.588318e-001
2.758720e+003,1.788782e+000
2.759685e+003,2.948267e+000
2.760649e+003,3.583057e+000
2.761613e+003,3.592615e+000
2.762577e+003,2.268970e+000
2.763542e+003,5.542602e-002
2.764506e+003,1.373169e+000
2.765470e+003,5.111786e+000
2.766434e+003,4.680737e+000
2.767398e+003,1.893091e+000
2.768363e+003,1.785229e+000
2.769327e+003,3.449268e+000
2.770291e+003,4.344684e+000
2.771255e+003,4.438092e+000
2.772219e+003,4.667951e+000
2.773184e+003,4.874170e+000
2.774148e+003,3.659076e+000
2.775112e+003,1.194623e+000
2.776076e+003,5.687195e-001
2.777041e+003,1.839423e+000
2.778005e+003,1.834192e+000
2.778969e+003,9.310730e-001
2.779933e+003,1.709778e+000
2.780898e+003,3.367694e+000
2.781862e+003,2.515881e+000
2.782826e+003,6.448974e-002
2.783790e+003,-3.947205e-001
2.784755e+003,1.245129e+000
2.785719e+003,2.845435e+000
2.786683e+003,4.086963e+000
2.787647e+003,4.859467e+000
2.788612e+003,5.313110e+000
2.789576e+003,2.883746e+000
2.790540e+003,-2.196509e+000
2.791504e+003,-3.635693e+000
2.792469e+003,-1.795172e+000
2.793433e+003,-2.953552e-001
2.794397e+003,4.964966e-001
2.795361e+003,1.819843e+000
2.796325e+003,3.515509e+000
2.797290e+003,3.913318e+000
2.798254e+003,2.870874e+000
2.799218e+003,3.108612e+000
2.800182e+003,5.327533e+000
2.801146e+003,4.708478e+000
2.802111e+003,8.361694e-001
2.803075e+003,7.145996e-002
2.804039e+003,2.283368e+000
2.805003e+003,3.884216e+000
2.805968e+003,4.405286e+000
2.806932e+003,4.698059e+000
2.807896e+003,4.996979e+000
2.808860e+003,4.960187e+000
2.809825e+003,4.523657e+000
2.810789e+003,3.879102e+000
2.811753e+003,2.862915e+000
2.812717e+003,3.120764e+000
2.813682e+003,5.176752e+000
2.814646e+003,5.484992e+000
2.815610e+003,4.084857e+000
2.816574e+003,4.182294e+000
2.817539e+003,5.538208e+000
2.818503e+003,4.872046e+000
2.819467e+003,2.300153e+000
2.820431e+003,5.608521e-001
2.821396e+003,3.453674e-001
2.822360e+003,8.887573e-001
2.823324e+003,2.038757e+000
2.824288e+003,3.641058e+000
2.825252e+003,6.399213e+000
2.826217e+003,6.087121e+000
2.827181e+003,2.616718e+000
2.828145e+003,1.524536e+000
2.829109e+003,2.724017e+000
2.830073e+003,2.533514e+000
2.831038e+003,9.815491e-001
2.832002e+003,6.450683e-001
2.832966e+003,1.883929e+000
2.833930e+003,3.560986e+000
2.834895e+003,5.371192e+000
2.835859e+003,5.735456e+000
2.836823e+003,4.067981e+000
2.837787e+003,3.954797e+000
2.838752e+003,5.564636e+000
2.839716e+003,5.503491e+000
2.840680e+003,3.976154e+000
2.841644e+003,4.187451e+000
2.842609e+003,5.743823e+000
2.843573e+003,5.655054e+000
2.844537e+003,3.805188e+000
2.845501e+003,1.723145e+000
2.846466e+003,-1.206787e-001
2.847430e+003,1.813904e-001
2.848394e+003,3.200525e+000
2.849358e+003,3.853326e+000
2.850323e+003,1.989471e+000
2.851287e+003,1.428857e+000
2.852251e+003,2.069678e+000
2.853215e+003,2.249310e+000
2.854179e+003,2.083935e+000
2.855144e+003,2.856659e+000
2.856108e+003,4.194482e+000
2.857072e+003,4.220636e+000
2.858036e+003,2.931647e+000
2.859000e+003,2.552545e+000
2.859965e+003,3.229089e+000
2.860929e+003,3.865051e+000
2.861893e+003,4.418756e+000
2.862857e+003,4.162610e+000
2.863822e+003,3.459772e+000
2.864786e+003,4.221271e+000
2.865750e+003,5.667822e+000
2.866714e+003,5.151923e+000
2.867679e+003,3.131757e+000
2.868643e+003,1.693115e+000
2.869607e+003,1.051031e+000
2.870571e+003,8.300781e-002
2.871536e+003,-1.025488e+000
2.872500e+003,2.851257e-001
2.873464e+003,3.753064e+000
2.874428e+003,3.437714e+000
2.875393e+003,9.234314e-001
2.876357e+003,2.407727e+000
2.877321e+003,5.812378e+000
2.878285e+003,5.428992e+000
2.879250e+003,2.880505e+000
2.880214e+003,2.772211e+000
2.881178e+003,4.478631e+000
2.882142e+003,4.956317e+000
2.883106e+003,4.220178e+000
2.884071e+003,1.852448e+000
2.885035e+003,-1.305048e+000
2.885999e+003,2.345642e-001
2.886963e+003,4.087964e+000
2.887927e+003,4.399646e+000
2.888892e+003,3.016406e+000
2.889856e+003,2.979901e+000
2.890820e+003,3.773157e+000
2.891784e+003,4.506531e+000
2.892749e+003,4.741156e+000
2.893713e+003,3.732300e+000
2.894677e+003,2.466217e+000
2.895641e+003,3.425745e+000
2.896606e+003,5.381744e+000
2.897570e+003,4.673358e+000
2.898534e+003,2.953900e+000
2.899498e+003,2.471991e+000
2.900463e+003,2.955756e+000
2.901427e+003,5.230731e+000
2.902391e+003,6.987298e+000
2.903355e+003,5.048480e+000
2.904320e+003,2.376886e+000
2.905284e+003,1.938452e+000
2.906248e+003,2.616174e+000
2.907212e+003,2.902679e+000
2.908177e+003,2.982593e+000
2.909141e+003,3.091302e+000
2.910105e+003,3.125970e+000
2.911069e+003,3.000037e+000
2.912033e+003,2.708154e+000
2.912998e+003,2.187775e+000
2.913962e+003,1.638355e+000
2.914926e+003,1.014557e+000
2.915890e+003,8.037109e-001
2.916854e+003,1.420972e+000
2.917819e+003,2.014276e+000
2.918783e+003,1.640582e+000
2.919747e+003,1.315094e+000
2.920711e+003,2.387329e+000
2.921676e+003,3.536462e+000
2.922640e+003,4.178327e+000
2.923604e+003,4.274365e+000
2.924568e+003,3.790839e+000
2.925533e+003,2.685822e+000
2.926497e+003,6.711609e-001
2.927461e+003,-5.423584e-002
2.928425e+003,1.934644e+000
2.929390e+003,3.539093e+000
2.930354e+003,1.683795e+000
2.931318e+003,-2.070007e-001
2.932282e+003,5.791870e-001
2.933247e+003,1.456824e+000
2.934211e+003,4.064563e+000
2.935175e+003,4.912225e+000
2.936139e+003,2.315607e+000
2.937104e+003,1.659796e+000
2.938068e+003,4.023407e+000
2.939032e+003,4.722931e+000
2.939996e+003,2.591132e+000
2.940960e+003,1.370984e+000
2.941925e+003,2.474384e+000
2.942889e+003,3.100885e+000
2.943853e+003,2.141522e+000
2.944817e+003,1.665375e+000
2.945781e+003,1.864807e+000
2.946746e+003,1.664258e+000
2.947710e+003,1.055414e+000
2.948674e+003,1.410974e+000
2.949638e+003,2.525519e+000
2.950603e+003,2.481775e+000
2.951567e+003,1.569299e+000
2.952531e+003,2.573535e+000
2.953495e+003,5.585767e+000
2.954460e+003,6.341589e+000
2.955424e+003,4.754632e+000
2.956388e+003,2.916309e+000
2.957352e+003,9.713440e-001
2.958317e+003,7.082947e-001
2.959281e+003,1.688104e+000
2.960245e+003,2.987762e+000
2.961209e+003,4.167773e+000
2.962174e+003,4.758154e+000
2.963138e+003,4.699518e+000
2.964102e+003,3.714349e+000
2.965066e+003,2.479120e+000
2.966031e+003,2.484686e+000
2.966995e+003,3.290161e+000
2.967959e+003,3.558881e+000
2.968923e+003,3.427527e+000
2.969887e+003,3.117212e+000
2.970852e+003,2.696069e+000
2.971816e+003,2.015418e+000
2.972780e+003,1.545868e+000
2.973744e+003,1.868872e+000
2.974708e+003,2.552387e+000
2.975673e+003,3.411530e+000
2.976637e+003,3.609082e+000
2.977601e+003,1.927979e+000
2.978565e+003,7.089233e-002
2.979530e+003,8.042908e-001
2.980494e+003,1.799762e+000
2.981458e+003,1.024323e+000
2.982422e+003,1.600342e-001
2.983387e+003,-2.237427e-001
2.984351e+003,1.411072e-001
2.985315e+003,1.604248e+000
2.986279e+003,1.964386e+000
2.987244e+003,1.468994e-001
2.988208e+003,-1.842096e+000
2.989172e+003,-2.821313e+000
2.990136e+003,-2.605975e+000
2.991101e+003,-1.687256e-001
2.992065e+003,1.698926e+000
2.993029e+003,2.454987e+000
2.993993e+003,2.428058e+000
2.994958e+003,1.570483e+000
2.995922e+003,6.931518e-001
2.996886e+003,1.002686e-001
2.997850e+003,4.174255e-001
2.998814e+003,1.536621e+000
2.999779e+003,2.172113e+000
3.000743e+003,1.952954e+000
3.001707e+003,1.638251e+000
3.002671e+003,1.236505e+000
3.003635e+003,2.061249e+000
3.004600e+003,3.903009e+000
3.005564e+003,3.011316e+000
3.006528e+003,4.743225e-001
3.007492e+003,2.697388e-001
3.008457e+003,1.744025e+000
3.009421e+003,2.686761e+000
3.010385e+003,2.988440e+000
3.011349e+003,3.527478e+000
3.012314e+003,3.768652e+000
3.013278e+003,1.711188e+000
3.014242e+003,-1.339417e+000
3.015206e+003,-6.481262e-001
3.016171e+003,1.687769e+000
3.017135e+003,2.755280e+000
3.018099e+003,2.731225e+000
3.019063e+003,9.471253e-001
3.020028e+003,-4.759277e-001
3.020992e+003,3.038208e-001
3.021956e+003,1.558618e+000
3.022920e+003,1.801270e+000
3.023885e+003,1.447461e+000
3.024849e+003,8.451111e-001
3.025813e+003,4.513977e-001
3.026777e+003,1.431146e+000
3.027741e+003,1.612958e+000
3.028706e+003,-1.428686e+000
3.029670e+003,-3.028290e+000
3.030634e+003,-1.877533e+000
3.031598e+003,-9.415893e-002
3.032563e+003,1.467584e+000
3.033527e+003,1.637659e+000
3.034491e+003,1.933227e-001
3.035455e+003,-1.768189e-002
3.036420e+003,2.600592e+000
3.037384e+003,4.171600e+000
3.038348e+003,3.867792e+000
3.039312e+003,2.219183e+000
3.040277e+003,-7.116211e-001
3.041241e+003,-3.173218e-002
3.042205e+003,3.251532e+000
3.043169e+003,3.020947e+000
3.044134e+003,-2.126099e-001
3.045098e+003,-2.362384e+000
3.046062e+003,-2.878265e+000
3.047026e+003,-2.565729e+000
3.047990e+003,-1.739935e+000
3.048955e+003,-2.043823e+000
3.049919e+003,-3.130362e+000
3.050883e+003,-3.806613e+000
3.051847e+003,-3.842493e+000
3.052812e+003,-2.099194e+000
3.053776e+003,-1.946289e-001
3.054740e+003,-5.322143e-001
3.055704e+003,-1.312518e+000
3.056668e+003,-6.876709e-001
3.057633e+003,2.809082e-001
3.058597e+003,3.837524e-001
3.059561e+003,2.605042e-001
3.060525e+003,9.586914e-001
3.061490e+003,1.319153e+000
3.062454e+003,1.454895e-001
3.063418e+003,-1.134760e+000
3.064382e+003,-2.521356e+000
3.065347e+003,-2.334088e+000
3.066311e+003,-4.135132e-002
3.067275e+003,1.796338e+000
3.068239e+003,2.151831e+000
3.069204e+003,1.149738e+000
3.070168e+003,-1.219348e+000
3.071132e+003,-2.781476e+000
3.072096e+003,-2.529126e+000
3.073061e+003,-1.962341e+000
3.074025e+003,-1.040326e+000
3.074989e+003,-2.013733e-001
3.075953e+003,5.312927e-001
3.076917e+003,1.859088e+000
3.077882e+003,3.136084e+000
3.078846e+003,2.289972e+000
3.079810e+003,4.162597e-003
3.080774e+003,-1.206128e+000
3.081739e+003,-1.433124e+000
3.082703e+003,-1.048804e+000
3.083667e+003,-4.178039e-001
3.084631e+003,-8.952698e-001
3.085595e+003,-1.692789e+000
3.086560e+003,-1.241962e+000
3.087524e+003,-7.151367e-001
3.088488e+003,-1.870007e+000
3.089452e+003,-2.725803e+000
3.090417e+003,-1.790570e+000
3.091381e+003,-9.092895e-001
3.092345e+003,-1.543912e+000
3.093309e+003,-2.183212e+000
3.094274e+003,-1.230139e+000
3.095238e+003,-7.032593e-001
3.096202e+003,-3.005539e+000
3.097166e+003,-3.553375e+000
3.098131e+003,-9.263306e-001
3.099095e+003,4.553772e-001
3.100059e+003,-1.494934e-001
3.101023e+003,-1.964908e+000
3.101988e+003,-4.179761e+000
3.102952e+003,-4.164655e+000
3.103916e+003,-1.613611e+000
3.104880e+003,-6.484741e-001
3.105844e+003,-1.773276e+000
3.106809e+003,-1.735333e+000
3.107773e+003,-7.197174e-001
3.108737e+003,-1.243649e+000
3.109701e+003,-2.538525e+000
3.110666e+003,-2.566235e+000
3.111630e+003,-1.806000e+000
3.112594e+003,-9.036896e-001
3.113558e+003,-4.200073e-001
3.114522e+003,-1.077170e+000
3.115487e+003,-1.855280e+000
3.116451e+003,-1.060611e+000
3.117415e+003,-3.250061e-001
3.118379e+003,-2.773965e+000
3.119344e+003,-5.254630e+000
3.120308e+003,-5.299765e+000
3.121272e+003,-4.767932e+000
3.122236e+003,-4.274475e+000
3.123201e+003,-3.654346e+000
3.124165e+003,-2.859076e+000
3.125129e+003,-1.684415e+000
3.126093e+003,-3.069702e-001
3.127058e+003,-1.331900e+000
3.128022e+003,-6.436313e+000
3.128986e+003,-7.854514e+000
3.129950e+003,-2.975525e+000
3.130915e+003,-1.821747e+000
3.131879e+003,-3.968762e+000
3.132843e+003,-4.780295e+000
3.133807e+003,-4.541351e+000
3.134771e+003,-5.314627e+000
3.135736e+003,-6.577329e+000
3.136700e+003,-6.470899e+000
3.137664e+003,-5.530353e+000
3.138628e+003,-5.010959e+000
3.139593e+003,-4.742032e+000
3.140557e+003,-4.623636e+000
3.141521e+003,-4.087585e+000
3.142485e+003,-1.344797e+000
3.143449e+003,1.036893e+000
3.144414e+003,1.021051e+000
3.145378e+003,-2.163483e-001
3.146342e+003,-2.443591e+000
3.147306e+003,-3.890008e+000
3.148271e+003,-3.761090e+000
3.149235e+003,-3.097317e+000
3.150199e+003,-2.428122e+000
3.151163e+003,-2.683926e+000
3.152128e+003,-5.120923e+000
3.153092e+003,-6.128442e+000
3.154056e+003,-5.603833e+000
3.155020e+003,-3.354572e+000
3.155985e+003,-2.531219e-001
3.156949e+003,-3.249603e-001
3.157913e+003,-2.591428e+000
3.158877e+003,-3.376651e+000
3.159842e+003,-2.977176e+000
3.160806e+003,-4.045328e+000
3.161770e+003,-5.401300e+000
3.162734e+003,-3.306985e+000
3.163698e+003,1.065460e-001
3.164663e+003,5.682800e-001
3.165627e+003,-7.485870e-001
3.166591e+003,-4.046466e+000
3.167555e+003,-6.498489e+000
3.168520e+003,-6.561093e+000
3.169484e+003,-5.822619e+000
3.170448e+003,-5.017682e+000
3.171412e+003,-4.018445e+000
3.172376e+003,-2.759015e+000
3.173341e+003,-2.039380e+000
3.174305e+003,-2.327667e+000
3.175269e+003,-3.209589e+000
3.176233e+003,-4.912399e+000
3.177198e+003,-4.861322e+000
3.178162e+003,-3.404486e+000
3.179126e+003,-3.961328e+000
3.180090e+003,-5.886160e+000
3.181055e+003,-6.195831e+000
3.182019e+003,-5.344739e+000
3.182983e+003,-5.887082e+000
3.183947e+003,-7.020169e+000
3.184912e+003,-6.748548e+000
3.185876e+003,-5.389572e+000
3.186840e+003,-2.641022e+000
3.187804e+003,-5.141968e-001
3.188769e+003,-2.064285e+000
3.189733e+003,-3.600897e+000
3.190697e+003,-2.944238e+000
3.191661e+003,-2.375262e+000
3.192625e+003,-2.832419e+000
3.193590e+003,-3.437863e+000
3.194554e+003,-3.738904e+000
3.195518e+003,-4.208322e+000
3.196482e+003,-5.262671e+000
3.197447e+003,-5.507636e+000
3.198411e+003,-4.711295e+000
3.199375e+003,-4.555664e+000
3.200339e+003,-4.807803e+000
3.201303e+003,-3.405698e+000
3.202268e+003,-1.249838e+000
3.203232e+003,-9.931275e-001
3.204196e+003,-1.939362e+000
3.205160e+003,-2.005713e+000
3.206125e+003,-1.494977e+000
3.207089e+003,-8.180450e-001
3.208053e+003,-5.583618e-001
3.209017e+003,-2.269910e+000
3.209982e+003,-4.163248e+000
3.210946e+003,-4.937207e+000
3.211910e+003,-4.953021e+000
3.212874e+003,-4.255301e+000
3.213839e+003,-3.669904e+000
3.214803e+003,-3.501221e+000
3.215767e+003,-3.814731e+000
3.216731e+003,-4.545905e+000
3.217696e+003,-5.088168e+000
3.218660e+003,-5.297153e+000
3.219624e+003,-4.865320e+000
3.220588e+003,-3.746411e+000
3.221552e+003,-3.548850e+000
3.222517e+003,-3.975739e+000
3.223481e+003,-4.202252e+000
3.224445e+003,-4.357248e+000
3.225409e+003,-4.898639e+000
3.226374e+003,-5.240863e+000
3.227338e+003,-4.699084e+000
3.228302e+003,-3.880478e+000
3.229266e+003,-3.467664e+000
3.230230e+003,-3.392184e+000
3.231195e+003,-3.815912e+000
3.232159e+003,-4.045352e+000
3.233123e+003,-3.392453e+000
3.234087e+003,-3.600134e+000
3.235052e+003,-4.939706e+000
3.236016e+003,-5.787412e+000
3.236980e+003,-5.716586e+000
3.237944e+003,-4.466959e+000
3.238909e+003,-2.365805e+000
3.239873e+003,-2.005124e+000
3.240837e+003,-3.225592e+000
3.241801e+003,-3.289636e+000
3.242766e+003,-2.590115e+000
3.243730e+003,-2.678699e+000
3.244694e+003,-3.252890e+000
3.245658e+003,-4.536783e+000
3.246623e+003,-5.161362e+000
3.247587e+003,-3.680161e+000
3.248551e+003,-2.302451e+000
3.249515e+003,-2.425839e+000
3.250479e+003,-3.281369e+000
3.251444e+003,-4.423999e+000
3.252408e+003,-5.270566e+000
3.253372e+003,-5.627658e+000
3.254336e+003,-5.189270e+000
3.255301e+003,-3.855106e+000
3.256265e+003,-3.107489e+000
3.257229e+003,-3.019662e+000
3.258193e+003,-3.581088e+000
3.259157e+003,-4.366940e+000
3.260122e+003,-4.266028e+000
3.261086e+003,-3.594504e+000
3.262050e+003,-3.201623e+000
3.263014e+003,-3.180582e+000
3.263979e+003,-4.140082e+000
3.264943e+003,-5.043414e+000
3.265907e+003,-4.376816e+000
3.266871e+003,-3.529163e+000
3.267836e+003,-3.339206e+000
3.268800e+003,-3.032169e+000
3.269764e+003,-2.353259e+000
3.270728e+003,-1.592883e+000
3.271693e+003,-1.001050e+000
3.272657e+003,-1.819656e+000
3.273621e+003,-4.601395e+000
3.274585e+003,-4.212821e+000
3.275550e+003,-3.263519e-001
3.276514e+003,1.498578e+000
3.277478e+003,1.529541e+000
3.278442e+003,-6.840668e-001
3.279406e+003,-3.100861e+000
3.280371e+003,-2.262869e+000
3.281335e+003,-8.293976e-001
3.282299e+003,-1.222180e+000
3.283263e+003,-1.871274e+000
3.284228e+003,-1.290869e+000
3.285192e+003,-8.754822e-001
3.286156e+003,-2.283389e+000
3.287120e+003,-3.086276e+000
3.288084e+003,-2.702652e+000
3.289049e+003,-1.577505e+000
3.290013e+003,3.551025e-002
3.290977e+003,-5.200195e-003
3.291941e+003,-1.265085e+000
3.292906e+003,-1.114560e+000
3.293870e+003,3.087158e-002
3.294834e+003,-4.729065e-001
3.295798e+003,-1.944638e+000
3.296763e+003,-2.888718e+000
3.297727e+003,-3.121426e+000
3.298691e+003,-1.279755e+000
3.299655e+003,5.342102e-002
3.300620e+003,-2.243915e+000
3.301584e+003,-3.484601e+000
3.302548e+003,-2.329019e+000
3.303512e+003,-7.655243e-001
3.304477e+003,3.558746e-001
3.305441e+003,6.558655e-001
3.306405e+003,-3.584900e-002
3.307369e+003,-1.598480e-001
3.308333e+003,3.894897e-001
3.309298e+003,5.670776e-001
3.310262e+003,5.799133e-001
3.311226e+003,1.179010e+000
3.312190e+003,1.865100e+000
3.313155e+003,2.190887e+000
3.314119e+003,1.547046e+000
3.315083e+003,-6.933380e-001
3.316047e+003,-2.377887e+000
3.317011e+003,-1.683163e+000
3.317976e+003,-6.324188e-001
3.318940e+003,-9.200805e-001
3.319904e+003,-7.238129e-001
3.320868e+003,3.520325e-001
3.321833e+003,1.662433e+000
3.322797e+003,2.926413e+000
3.323761e+003,2.474219e+000
3.324725e+003,1.046439e+000
3.325690e+003,1.140207e+000
3.326654e+003,2.226593e+000
3.327618e+003,2.556519e+000
3.328582e+003,2.346616e+000
3.329547e+003,1.726889e+000
3.330511e+003,1.459616e+000
3.331475e+003,3.107819e+000
3.332439e+003,4.139932e+000
3.333404e+003,3.326865e+000
3.334368e+003,2.720181e+000
3.335332e+003,2.739917e+000
3.336296e+003,2.376935e+000
3.337260e+003,1.492056e+000
3.338225e+003,1.093088e+000
3.339189e+003,1.432178e+000
3.340153e+003,2.218484e+000
3.341117e+003,3.244891e+000
3.342082e+003,3.101575e+000
3.343046e+003,2.481915e+000
3.344010e+003,2.633170e+000
3.344974e+003,2.689206e+000
3.345938e+003,1.718344e+000
3.346903e+003,1.235956e+000
3.347867e+003,1.948090e+000
3.348831e+003,3.066989e+000
3.349795e+003,4.185196e+000
3.350760e+003,4.402991e+000
3.351724e+003,3.145093e+000
3.352688e+003,1.352484e+000
3.353652e+003,-6.958679e-001
3.354617e+003,2.708710e-001
3.355581e+003,2.821576e+000
3.356545e+003,3.961481e+000
3.357509e+003,3.997888e+000
3.358474e+003,3.562067e+000
3.359438e+003,3.686832e+000
3.360402e+003,5.447775e+000
3.361366e+003,6.908319e+000
3.362331e+003,5.968457e+000
3.363295e+003,4.526258e+000
3.364259e+003,2.519217e+000
3.365223e+003,2.990906e+000
3.366188e+003,5.833365e+000
3.367152e+003,7.190463e+000
3.368116e+003,6.902566e+000
3.369080e+003,5.999689e+000
3.370044e+003,5.107904e+000
3.371009e+003,5.169940e+000
3.371973e+003,5.686090e+000
3.372937e+003,5.718955e+000
3.373901e+003,5.469870e+000
3.374865e+003,4.699835e+000
3.375830e+003,4.613040e+000
3.376794e+003,6.000766e+000
3.377758e+003,6.695270e+000
3.378722e+003,6.340106e+000
3.379687e+003,5.960687e+000
3.380651e+003,5.971878e+000
3.381615e+003,6.913571e+000
3.382579e+003,8.549945e+000
3.383544e+003,9.254657e+000
3.384508e+003,9.148776e+000
3.385472e+003,8.230356e+000
3.386436e+003,7.312326e+000
3.387401e+003,7.556131e+000
3.388365e+003,7.887360e+000
3.389329e+003,7.837723e+000
3.390293e+003,6.950485e+000
3.391258e+003,5.273440e+000
3.392222e+003,5.653284e+000
3.393186e+003,9.259150e+000
3.394150e+003,1.053279e+001
3.395115e+003,8.790842e+000
3.396079e+003,9.223187e+000
3.397043e+003,1.082403e+001
3.398007e+003,1.009324e+001
3.398971e+003,8.832669e+000
3.399936e+003,1.010155e+001
3.400900e+003,1.114890e+001
3.401864e+003,1.018506e+001
3.402828e+003,9.218188e+000
3.403792e+003,9.650721e+000
3.404757e+003,9.960363e+000
3.405721e+003,9.037836e+000
3.406685e+003,8.707950e+000
3.407649e+003,9.024304e+000
3.408614e+003,1.115477e+001
3.409578e+003,1.404194e+001
3.410542e+003,1.525518e+001
3.411506e+003,1.466544e+001
3.412471e+003,1.183826e+001
3.413435e+003,9.785208e+000
3.414399e+003,1.157397e+001
3.415363e+003,1.363887e+001
3.416328e+003,1.215179e+001
3.417292e+003,1.072585e+001
3.418256e+003,1.023317e+001
3.419220e+003,1.173079e+001
3.420185e+003,1.477187e+001
3.421149e+003,1.521404e+001
3.422113e+003,1.364628e+001
3.423077e+003,1.265509e+001
3.424042e+003,1.266775e+001
3.425006e+003,1.383939e+001
3.425970e+003,1.526500e+001
3.426934e+003,1.567733e+001
