7.140112e+001,1.894689e+002
7.236536e+001,1.824068e+002
7.332959e+001,1.818114e+002
7.429382e+001,1.873822e+002
7.525806e+001,2.004496e+002
7.622229e+001,2.063439e+002
7.718652e+001,1.949886e+002
7.815076e+001,1.574879e+002
7.911499e+001,1.299554e+002
8.007922e+001,1.069342e+002
8.104346e+001,9.319265e+001
8.200769e+001,9.406936e+001
8.297192e+001,1.198733e+002
8.393616e+001,1.498592e+002
8.490039e+001,1.882231e+002
8.586462e+001,2.262429e+002
8.682886e+001,2.499806e+002
8.779310e+001,2.296826e+002
8.875733e+001,1.944275e+002
8.972157e+001,1.582346e+002
9.068580e+001,1.269899e+002
9.165003e+001,1.015579e+002
9.261427e+001,9.046742e+001
9.357850e+001,8.915535e+001
9.454273e+001,9.137744e+001
9.550697e+001,9.330229e+001
9.647120e+001,9.588269e+001
9.743543e+001,9.447300e+001
9.839967e+001,8.734458e+001
9.936390e+001,7.777744e+001
1.003281e+002,6.930064e+001
1.012924e+002,6.051256e+001
1.022566e+002,5.592065e+001
1.032208e+002,5.835741e+001
1.041851e+002,6.565723e+001
1.051493e+002,7.292554e+001
1.061135e+002,7.720020e+001
1.070778e+002,7.841289e+001
1.080420e+002,7.524107e+001
1.090062e+002,6.777602e+001
1.099705e+002,5.782790e+001
1.109347e+002,4.706506e+001
1.118989e+002,3.722725e+001
1.128632e+002,3.352018e+001
1.138274e+002,3.990099e+001
1.147916e+002,5.874192e+001
1.157559e+002,6.707951e+001
1.167201e+002,6.176947e+001
1.176843e+002,5.181861e+001
1.186486e+002,4.836138e+001
1.196128e+002,5.807744e+001
1.205770e+002,6.565139e+001
1.215413e+002,7.200874e+001
1.225055e+002,7.561565e+001
1.234697e+002,7.358701e+001
1.244340e+002,5.569263e+001
1.253982e+002,3.784554e+001
1.263624e+002,2.232035e+001
1.273267e+002,1.125038e+001
1.282909e+002,7.390552e+000
1.292551e+002,2.597003e+001
1.302194e+002,5.169725e+001
1.311836e+002,7.163829e+001
1.321478e+002,7.746944e+001
1.331121e+002,6.866116e+001
1.340763e+002,5.657053e+001
1.350405e+002,4.026997e+001
1.360048e+002,2.589409e+001
1.369690e+002,2.032095e+001
1.379332e+002,3.123405e+001
1.388975e+002,3.969380e+001
1.398617e+002,4.596118e+001
1.408259e+002,4.966056e+001
1.417902e+002,5.022434e+001
1.427544e+002,4.510455e+001
1.437186e+002,3.893356e+001
1.446829e+002,3.152552e+001
1.456471e+002,2.382461e+001
1.466113e+002,1.758001e+001
1.475756e+002,1.453684e+001
1.485398e+002,1.490414e+001
1.495040e+002,2.227400e+001
1.504683e+002,3.688635e+001
1.514325e+002,5.540194e+001
1.523967e+002,5.664625e+001
1.533610e+002,4.472418e+001
1.543252e+002,3.094030e+001
1.552894e+002,2.334000e+001
1.562537e+002,2.441785e+001
1.572179e+002,2.479944e+001
1.581821e+002,2.264596e+001
1.591464e+002,2.105355e+001
1.601106e+002,2.399759e+001
1.610748e+002,3.807472e+001
1.620391e+002,4.641091e+001
1.630033e+002,4.216826e+001
1.639676e+002,3.083594e+001
1.649318e+002,2.104261e+001
1.658960e+002,2.288081e+001
1.668603e+002,2.745449e+001
1.678245e+002,2.871679e+001
1.687887e+002,2.646006e+001
1.697530e+002,2.296847e+001
1.707172e+002,2.518828e+001
1.716814e+002,3.082145e+001
1.726457e+002,3.442416e+001
1.736099e+002,3.391174e+001
1.745741e+002,2.913462e+001
1.755384e+002,2.357490e+001
1.765026e+002,1.511840e+001
1.774668e+002,8.205322e+000
1.784311e+002,6.045654e+000
1.793953e+002,1.104080e+001
1.803595e+002,1.363796e+001
1.813238e+002,1.039213e+001
1.822880e+002,5.820813e+000
1.832522e+002,3.931751e+000
1.842165e+002,8.539831e+000
1.851807e+002,1.258279e+001
1.861449e+002,1.034728e+001
1.871092e+002,4.466723e+000
1.880734e+002,-1.973267e+000
1.890376e+002,-5.306445e+000
1.900019e+002,-4.964355e+000
1.909661e+002,5.849610e-002
1.919303e+002,9.632849e+000
1.928946e+002,2.115059e+001
1.938588e+002,2.570856e+001
1.948230e+002,1.892092e+001
1.957873e+002,1.478606e+001
1.967515e+002,1.600586e+001
1.977157e+002,2.250709e+001
1.986800e+002,2.991183e+001
1.996442e+002,3.760688e+001
2.006084e+002,4.583472e+001
2.015727e+002,5.688477e+001
2.025369e+002,7.123601e+001
2.035011e+002,8.049364e+001
2.044654e+002,7.672209e+001
2.054296e+002,6.777177e+001
2.063938e+002,5.657435e+001
2.073581e+002,4.522872e+001
2.083223e+002,3.558360e+001
2.092865e+002,3.056198e+001
2.102508e+002,2.958380e+001
2.112150e+002,3.379805e+001
2.121792e+002,4.464680e+001
2.131435e+002,6.493709e+001
2.141077e+002,7.382756e+001
2.150719e+002,6.633225e+001
2.160362e+002,5.196759e+001
2.170004e+002,4.499705e+001
2.179646e+002,5.275635e+001
2.189289e+002,5.857803e+001
2.198931e+002,5.837099e+001
2.208573e+002,5.530486e+001
2.218216e+002,5.577929e+001
2.227858e+002,6.778390e+001
2.237500e+002,8.061731e+001
2.247143e+002,9.352793e+001
2.256785e+002,1.040492e+002
2.266427e+002,1.082083e+002
2.276070e+002,9.274805e+001
2.285712e+002,6.776131e+001
2.295354e+002,4.573457e+001
2.304997e+002,3.039542e+001
2.314639e+002,2.104583e+001
2.324281e+002,1.379331e+001
2.333924e+002,8.295263e+000
2.343566e+002,4.998645e+000
2.353208e+002,4.971069e+000
2.362851e+002,8.973352e+000
2.372493e+002,1.123414e+001
2.382135e+002,1.113049e+001
2.391778e+002,9.990637e+000
2.401420e+002,7.932691e+000
2.411062e+002,4.744470e+000
2.420705e+002,2.429651e+000
2.430347e+002,2.739856e+000
2.439989e+002,3.778320e+000
2.449632e+002,4.135242e+000
2.459274e+002,2.726782e+000
2.468916e+002,4.657471e-001
2.478559e+002,-7.541748e-001
2.488201e+002,-1.191992e+000
2.497843e+002,-1.269470e+000
2.507486e+002,-1.473303e+000
2.517128e+002,-1.794739e+000
2.526770e+002,-1.532398e+000
2.536413e+002,-7.824951e-001
2.546055e+002,3.085693e-001
2.555697e+002,1.570325e+000
2.565340e+002,3.106470e+000
2.574982e+002,4.833923e+000
2.584625e+002,7.878259e+000
2.594267e+002,1.112970e+001
2.603909e+002,1.256102e+001
2.613552e+002,9.241443e+000
2.623194e+002,5.319702e+000
2.632836e+002,2.351404e+000
2.642479e+002,4.862915e-001
2.652121e+002,-5.862182e-001
2.661763e+002,-1.196423e+000
2.671406e+002,-1.249097e+000
2.681048e+002,-4.390381e-001
2.690690e+002,1.226660e+000
2.700333e+002,3.412756e+000
2.709975e+002,4.760718e+000
2.719617e+002,5.192492e+000
2.729260e+002,5.343347e+000
2.738902e+002,5.686231e+000
2.748544e+002,6.196716e+000
2.758187e+002,5.054822e+000
2.767829e+002,3.397949e-001
2.777471e+002,-4.280566e+000
2.787114e+002,-8.158716e+000
2.796756e+002,-1.099984e+001
2.806398e+002,-1.211425e+001
2.816041e+002,-1.020332e+001
2.825683e+002,-7.222180e+000
2.835325e+002,-3.681799e+000
2.844968e+002,1.815186e-002
2.854610e+002,3.430188e+000
2.864252e+002,5.719055e+000
2.873895e+002,7.046338e+000
2.883537e+002,7.249597e+000
2.893179e+002,6.245215e+000
2.902822e+002,4.011169e+000
2.912464e+002,1.426843e+000
2.922106e+002,-1.865369e+000
2.931749e+002,-4.965539e+000
2.941391e+002,-7.500940e+000
2.951033e+002,-9.754847e+000
2.960676e+002,-1.056968e+001
2.970318e+002,-9.437220e+000
2.979960e+002,-7.411523e+000
2.989603e+002,-5.066455e+000
2.999245e+002,-2.571680e+000
3.008887e+002,-3.742188e-001
3.018530e+002,9.585083e-001
3.028172e+002,2.047778e+000
3.037814e+002,3.645825e+000
3.047457e+002,6.436658e+000
3.057099e+002,9.776794e+000
3.066741e+002,1.221593e+001
3.076384e+002,1.363020e+001
3.086026e+002,1.303164e+001
3.095668e+002,9.199695e+000
3.105311e+002,5.772217e-001
3.114953e+002,-5.407190e+000
3.124595e+002,-8.674085e+000
3.134238e+002,-9.975683e+000
3.143880e+002,-9.952295e+000
3.153522e+002,-7.597278e+000
3.163165e+002,-5.839319e+000
3.172807e+002,-5.780615e+000
3.182449e+002,-6.035767e+000
3.192092e+002,-4.936389e+000
3.201734e+002,-8.961059e-001
3.211376e+002,3.518762e+000
3.221019e+002,6.793372e+000
3.230661e+002,8.969238e+000
3.240303e+002,1.012056e+001
3.249946e+002,1.023472e+001
3.259588e+002,9.246740e+000
3.269230e+002,8.124634e+000
3.278873e+002,6.858484e+000
3.288515e+002,5.515368e+000
3.298157e+002,4.206714e+000
3.307800e+002,2.584741e+000
3.317442e+002,2.154346e+000
3.327084e+002,2.493933e+000
3.336727e+002,3.876502e+000
3.346369e+002,7.157739e+000
3.356011e+002,1.571569e+001
3.365654e+002,2.161354e+001
3.375296e+002,2.191024e+001
3.384938e+002,1.874587e+001
3.394581e+002,1.539110e+001
3.404223e+002,1.423481e+001
3.413865e+002,1.451870e+001
3.423508e+002,1.559725e+001
3.433150e+002,1.734026e+001
3.442792e+002,1.948446e+001
3.452435e+002,2.150854e+001
3.462077e+002,2.364049e+001
3.471719e+002,2.736228e+001
3.481362e+002,3.233357e+001
3.491004e+002,3.940032e+001
3.500646e+002,5.050164e+001
3.510289e+002,6.558292e+001
3.519931e+002,8.682312e+001
3.529573e+002,1.155799e+002
3.539216e+002,1.500394e+002
3.548858e+002,1.890415e+002
3.558500e+002,2.472169e+002
3.568143e+002,2.868991e+002
3.577785e+002,2.930114e+002
3.587427e+002,2.727452e+002
3.597070e+002,2.383364e+002
3.606712e+002,1.964450e+002
3.616354e+002,1.535651e+002
3.625997e+002,1.161553e+002
3.635639e+002,8.522308e+001
3.645281e+002,6.179348e+001
3.654924e+002,4.748814e+001
3.664566e+002,4.529553e+001
3.674208e+002,4.212620e+001
3.683851e+002,3.759921e+001
3.693493e+002,3.210702e+001
3.703135e+002,2.646630e+001
3.712778e+002,1.959365e+001
3.722420e+002,1.470466e+001
3.732062e+002,1.236344e+001
3.741705e+002,1.194764e+001
3.751347e+002,1.269225e+001
3.760989e+002,1.519741e+001
3.770632e+002,1.734622e+001
3.780274e+002,1.777544e+001
3.789916e+002,1.697557e+001
3.799559e+002,1.588590e+001
3.809201e+002,1.565908e+001
3.818844e+002,1.579557e+001
3.828486e+002,1.445962e+001
3.838128e+002,1.183962e+001
3.847771e+002,9.389966e+000
3.857413e+002,9.339087e+000
3.867055e+002,1.337625e+001
3.876698e+002,1.536693e+001
3.886340e+002,1.301533e+001
3.895982e+002,9.618872e+000
3.905625e+002,1.010074e+001
3.915267e+002,1.837471e+001
3.924909e+002,2.437761e+001
3.934552e+002,2.645470e+001
3.944194e+002,2.572296e+001
3.953836e+002,2.287046e+001
3.963479e+002,1.725312e+001
3.973121e+002,1.233407e+001
3.982763e+002,1.149661e+001
3.992406e+002,1.316249e+001
4.002048e+002,1.510956e+001
4.011690e+002,1.516904e+001
4.021333e+002,1.383402e+001
4.030975e+002,1.535281e+001
4.040617e+002,1.978844e+001
4.050260e+002,2.423230e+001
4.059902e+002,2.528313e+001
4.069544e+002,2.035768e+001
4.079187e+002,1.956172e+001
4.088829e+002,2.476431e+001
4.098471e+002,3.143293e+001
4.108114e+002,3.603434e+001
4.117756e+002,3.724834e+001
4.127398e+002,3.925398e+001
4.137041e+002,4.520447e+001
4.146683e+002,5.151313e+001
4.156325e+002,5.585204e+001
4.165968e+002,5.696144e+001
4.175610e+002,5.524967e+001
4.185252e+002,5.009822e+001
4.194895e+002,4.353616e+001
4.204537e+002,3.772948e+001
4.214179e+002,3.409269e+001
4.223822e+002,3.268288e+001
4.233464e+002,3.532418e+001
4.243106e+002,4.275770e+001
4.252749e+002,4.914059e+001
4.262391e+002,5.020741e+001
4.272033e+002,4.512423e+001
4.281676e+002,4.573016e+001
4.291318e+002,5.569059e+001
4.300960e+002,6.789465e+001
4.310603e+002,7.947965e+001
4.320245e+002,9.018191e+001
4.329887e+002,1.032424e+002
4.339530e+002,1.227262e+002
4.349172e+002,1.449941e+002
4.358814e+002,1.717140e+002
4.368457e+002,2.010664e+002
4.378099e+002,2.282623e+002
4.387741e+002,2.441233e+002
4.397384e+002,2.489579e+002
4.407026e+002,2.421784e+002
4.416668e+002,2.225598e+002
4.426311e+002,1.939814e+002
4.435953e+002,1.694479e+002
4.445595e+002,1.509590e+002
4.455238e+002,1.347690e+002
4.464880e+002,1.203259e+002
4.474522e+002,1.081393e+002
4.484165e+002,9.992061e+001
4.493807e+002,1.002113e+002
4.503449e+002,9.949570e+001
4.513092e+002,9.434879e+001
4.522734e+002,8.637032e+001
4.532376e+002,7.817226e+001
4.542019e+002,7.199176e+001
4.551661e+002,6.648366e+001
4.561303e+002,5.912008e+001
4.570946e+002,5.076499e+001
4.580588e+002,4.319789e+001
4.590230e+002,3.836066e+001
4.599873e+002,3.660973e+001
4.609515e+002,3.536798e+001
4.619157e+002,3.461193e+001
4.628800e+002,3.410016e+001
4.638442e+002,3.331268e+001
4.648084e+002,3.146841e+001
4.657727e+002,3.206704e+001
4.667369e+002,3.694135e+001
4.677011e+002,4.235484e+001
4.686654e+002,4.613851e+001
4.696296e+002,4.762074e+001
4.705938e+002,4.789709e+001
4.715581e+002,4.794728e+001
4.725223e+002,4.719111e+001
4.734865e+002,4.464698e+001
4.744508e+002,4.026869e+001
4.754150e+002,3.532806e+001
4.763792e+002,3.348537e+001
4.773435e+002,3.365985e+001
4.783077e+002,3.308109e+001
4.792719e+002,3.078906e+001
4.802362e+002,2.719620e+001
4.812004e+002,2.448787e+001
4.821646e+002,2.364263e+001
4.831289e+002,2.235675e+001
4.840931e+002,1.970034e+001
4.850573e+002,1.630786e+001
4.860216e+002,1.406105e+001
4.869858e+002,1.525338e+001
4.879500e+002,1.589813e+001
4.889143e+002,1.410515e+001
4.898785e+002,1.096707e+001
4.908427e+002,8.243616e+000
4.918070e+002,7.312268e+000
4.927712e+002,7.746973e+000
4.937354e+002,8.836023e+000
4.946997e+002,1.031174e+001
4.956639e+002,1.143886e+001
4.966281e+002,1.144403e+001
4.975924e+002,1.018783e+001
4.985566e+002,1.002844e+001
4.995208e+002,1.084550e+001
5.004851e+002,1.245132e+001
5.014493e+002,1.512579e+001
5.024135e+002,1.935823e+001
5.033778e+002,2.231370e+001
5.043420e+002,2.303407e+001
5.053063e+002,2.352539e+001
5.062705e+002,2.508425e+001
5.072347e+002,2.769806e+001
5.081990e+002,2.921226e+001
5.091632e+002,2.570674e+001
5.101274e+002,2.137061e+001
5.110917e+002,1.930585e+001
5.120559e+002,1.971825e+001
5.130201e+002,2.042743e+001
5.139844e+002,1.657595e+001
5.149486e+002,8.581507e+000
5.159128e+002,3.013391e+000
5.168771e+002,1.063574e+000
5.178413e+002,1.363391e+000
5.188055e+002,8.257446e-001
5.197698e+002,-2.282459e+000
5.207340e+002,-3.386639e+000
5.216982e+002,-3.129639e-001
5.226625e+002,3.606940e+000
5.236267e+002,4.101153e+000
5.245909e+002,-1.607098e+000
5.255552e+002,-6.313501e+000
5.265194e+002,-5.727435e+000
5.274836e+002,-3.017066e+000
5.284479e+002,-5.380005e-001
5.294121e+002,3.544250e-001
5.303763e+002,-5.214233e-002
5.313406e+002,-2.104089e+000
5.323048e+002,-5.001483e+000
5.332690e+002,-6.972760e+000
5.342333e+002,-7.114722e+000
5.351975e+002,-5.673401e+000
5.361617e+002,-4.750617e+000
5.371260e+002,-4.501941e+000
5.380902e+002,-4.397235e+000
5.390544e+002,-4.742572e+000
5.400187e+002,-5.312128e+000
5.409829e+002,-5.199384e+000
5.419471e+002,-3.350476e+000
5.429114e+002,-1.628552e+000
5.438756e+002,-1.478638e-001
5.448398e+002,7.373779e-001
5.458041e+002,5.319641e-001
5.467683e+002,-1.293591e+000
5.477325e+002,-3.911139e+000
5.486968e+002,-6.706800e+000
5.496610e+002,-9.214422e+000
5.506252e+002,-1.020541e+001
5.515895e+002,-8.653437e+000
5.525537e+002,-4.646649e+000
5.535179e+002,-3.390247e+000
5.544822e+002,-5.249084e+000
5.554464e+002,-7.287195e+000
5.564106e+002,-8.227221e+000
5.573749e+002,-8.100367e+000
5.583391e+002,-7.559937e+000
5.593033e+002,-5.375488e+000
5.602676e+002,-4.036206e+000
5.612318e+002,-5.042426e+000
5.621960e+002,-7.635699e+000
5.631603e+002,-9.392346e+000
5.641245e+002,-7.760058e+000
5.650887e+002,-5.499682e+000
5.660530e+002,-4.893286e+000
5.670172e+002,-5.651086e+000
5.679814e+002,-6.915942e+000
5.689457e+002,-7.804047e+000
5.699099e+002,-8.255676e+000
5.708741e+002,-7.984693e+000
5.718384e+002,-6.874341e+000
5.728026e+002,-5.642059e+000
5.737668e+002,-4.763293e+000
5.747311e+002,-4.201978e+000
5.756953e+002,-4.444672e+000
5.766595e+002,-6.241174e+000
5.776238e+002,-7.894794e+000
5.785880e+002,-8.669226e+000
5.795522e+002,-8.586157e+000
5.805165e+002,-8.405695e+000
5.814807e+002,-8.465857e+000
5.824449e+002,-8.670947e+000
5.834092e+002,-9.185046e+000
5.843734e+002,-9.874847e+000
5.853376e+002,-1.041471e+001
5.863019e+002,-1.037318e+001
5.872661e+002,-9.856006e+000
5.882303e+002,-9.732183e+000
5.891946e+002,-1.001241e+001
5.901588e+002,-1.014519e+001
5.911230e+002,-9.536402e+000
5.920873e+002,-7.985406e+000
5.930515e+002,-6.521142e+000
5.940157e+002,-4.333606e+000
5.949800e+002,-2.900592e+000
5.959442e+002,-3.612298e+000
5.969084e+002,-6.402795e+000
5.978727e+002,-8.325659e+000
5.988369e+002,-6.119745e+000
5.998011e+002,-3.950714e+000
6.007654e+002,-3.707593e+000
6.017296e+002,-5.182281e+000
6.026938e+002,-7.098376e+000
6.036581e+002,-8.217096e+000
6.046223e+002,-8.446753e+000
6.055865e+002,-7.506433e+000
6.065508e+002,-5.515808e+000
6.075150e+002,-4.099237e+000
6.084792e+002,-5.233362e+000
6.094435e+002,-9.938886e+000
6.104077e+002,-1.168565e+001
6.113719e+002,-8.891004e+000
6.123362e+002,-5.878686e+000
6.133004e+002,-5.066485e+000
6.142646e+002,-6.506323e+000
6.152289e+002,-7.436615e+000
6.161931e+002,-5.862073e+000
6.171573e+002,-4.372815e+000
6.181216e+002,-4.043878e+000
6.190858e+002,-4.571222e+000
6.200500e+002,-4.984406e+000
6.210143e+002,-4.475110e+000
6.219785e+002,-3.137042e+000
6.229427e+002,-9.779114e-001
6.239070e+002,1.698547e+000
6.248712e+002,3.663684e+000
6.258354e+002,3.672894e+000
6.267997e+002,1.457037e+000
6.277639e+002,1.064203e+000
6.287281e+002,3.398822e+000
6.296924e+002,5.604016e+000
6.306566e+002,6.262713e+000
6.316208e+002,5.524335e+000
6.325851e+002,5.136603e+000
6.335493e+002,6.543341e+000
6.345135e+002,7.585626e+000
6.354778e+002,7.211298e+000
6.364420e+002,5.961261e+000
6.374063e+002,5.101819e+000
6.383705e+002,5.806830e+000
6.393347e+002,6.900757e+000
6.402990e+002,6.340411e+000
6.412632e+002,4.665179e+000
6.422274e+002,3.023132e+000
6.431917e+002,2.262079e+000
6.441559e+002,2.313592e+000
6.451201e+002,2.079413e+000
6.460844e+002,1.308087e+000
6.470486e+002,7.558472e-001
6.480128e+002,8.968323e-001
6.489771e+002,1.521997e+000
6.499413e+002,1.689465e+000
6.509055e+002,9.320129e-001
6.518698e+002,-2.879639e-002
6.528340e+002,-1.088055e+000
6.537982e+002,-2.135541e+000
6.547625e+002,-3.231879e+000
6.557267e+002,-4.499963e+000
6.566909e+002,-5.341418e+000
6.576552e+002,-4.480279e+000
6.586194e+002,-2.807098e+000
6.595836e+002,-1.579803e+000
6.605479e+002,-1.391150e+000
6.615121e+002,-1.950439e+000
6.624763e+002,-2.220801e+000
6.634406e+002,-2.164990e+000
6.644048e+002,-1.960846e+000
6.653690e+002,-1.474695e+000
6.663333e+002,-1.017090e+000
6.672975e+002,-1.207385e+000
6.682617e+002,-2.605652e+000
6.692260e+002,-3.242737e+000
6.701902e+002,-2.136468e+000
6.711544e+002,-6.237610e-001
6.721187e+002,1.296814e-001
6.730829e+002,-2.853577e-001
6.740471e+002,-1.090588e+000
6.750114e+002,-1.592133e+000
6.759756e+002,-1.573889e+000
6.769398e+002,-2.350159e-001
6.779041e+002,2.360138e+000
6.788683e+002,4.967822e+000
6.798325e+002,5.282916e+000
6.807968e+002,2.347858e+000
6.817610e+002,6.752259e-001
6.827252e+002,1.081226e+000
6.836895e+002,2.006537e+000
6.846537e+002,1.948065e+000
6.856179e+002,6.080750e-001
6.865822e+002,-1.926208e-001
6.875464e+002,3.715637e-001
6.885106e+002,1.156744e+000
6.894749e+002,1.798145e+000
6.904391e+002,2.215442e+000
6.914034e+002,2.464929e+000
6.923676e+002,2.468243e+000
6.933318e+002,2.539026e+000
6.942961e+002,3.221344e+000
6.952603e+002,4.336164e+000
6.962245e+002,5.200165e+000
6.971888e+002,5.143811e+000
6.981530e+002,4.104632e+000
6.991172e+002,4.443780e+000
7.000815e+002,7.013129e+000
7.010457e+002,8.968878e+000
7.020099e+002,8.864105e+000
7.029742e+002,7.248883e+000
7.039384e+002,6.616180e+000
7.049026e+002,8.391668e+000
7.058669e+002,9.819684e+000
7.068311e+002,9.995789e+000
7.077953e+002,9.447882e+000
7.087596e+002,8.869824e+000
7.097238e+002,8.656610e+000
7.106880e+002,8.583319e+000
7.116523e+002,7.767914e+000
7.126165e+002,6.800916e+000
7.135807e+002,7.100110e+000
7.145450e+002,9.166308e+000
7.155092e+002,1.185153e+001
7.164734e+002,1.193118e+001
7.174377e+002,7.305725e+000
7.184019e+002,4.479804e+000
7.193661e+002,4.271966e+000
7.203304e+002,5.197650e+000
7.212946e+002,5.808899e+000
7.222589e+002,5.968610e+000
7.232231e+002,6.184228e+000
7.241873e+002,7.134473e+000
7.251516e+002,7.736298e+000
7.261158e+002,6.771033e+000
7.270800e+002,4.590594e+000
7.280443e+002,3.016217e+000
7.290085e+002,4.438891e+000
7.299727e+002,7.285846e+000
7.309370e+002,8.195148e+000
7.319012e+002,7.289502e+000
7.328654e+002,5.549225e+000
7.338297e+002,3.761151e+000
7.347939e+002,1.873828e+000
7.357581e+002,8.993896e-001
7.367224e+002,8.982605e-001
7.376866e+002,1.513837e+000
7.386508e+002,3.248914e+000
7.396151e+002,5.553504e+000
7.405793e+002,6.910230e+000
7.415435e+002,6.662555e+000
7.425078e+002,5.825745e+000
7.434720e+002,4.188849e+000
7.444362e+002,2.548785e+000
7.454005e+002,1.902484e+000
7.463647e+002,2.642859e+000
7.473289e+002,3.936987e+000
7.482932e+002,4.106177e+000
7.492574e+002,3.652655e+000
7.502216e+002,3.835565e+000
7.511859e+002,4.983881e+000
7.521501e+002,6.165009e+000
7.531143e+002,5.564050e+000
7.540786e+002,1.655353e+000
7.550428e+002,-3.079224e-002
7.560070e+002,1.616876e+000
7.569713e+002,3.871759e+000
7.579355e+002,5.146948e+000
7.588997e+002,5.334924e+000
7.598640e+002,5.480164e+000
7.608282e+002,6.281311e+000
7.617924e+002,7.127582e+000
7.627567e+002,7.766437e+000
7.637209e+002,8.163910e+000
7.646851e+002,8.017426e+000
7.656494e+002,7.026202e+000
7.666136e+002,5.989905e+000
7.675778e+002,9.356763e+000
7.685421e+002,1.641782e+001
7.695063e+002,2.109456e+001
7.704705e+002,1.998619e+001
7.714348e+002,1.465677e+001
7.723990e+002,1.142680e+001
7.733632e+002,1.213544e+001
7.743275e+002,1.220918e+001
7.752917e+002,1.082233e+001
7.762559e+002,9.111829e+000
7.772202e+002,8.060486e+000
7.781844e+002,7.908832e+000
7.791486e+002,8.099493e+000
7.801129e+002,8.283667e+000
7.810771e+002,8.521808e+000
7.820413e+002,8.793737e+000
7.830056e+002,9.192347e+000
7.839698e+002,9.979767e+000
7.849340e+002,1.148850e+001
7.858983e+002,1.364543e+001
7.868625e+002,1.492314e+001
7.878267e+002,1.514115e+001
7.887910e+002,1.524725e+001
7.897552e+002,1.583011e+001
7.907194e+002,1.683146e+001
7.916837e+002,1.758119e+001
7.926479e+002,1.760395e+001
7.936121e+002,1.785228e+001
7.945764e+002,1.870170e+001
7.955406e+002,1.972058e+001
7.965048e+002,2.034135e+001
7.974691e+002,2.038370e+001
7.984333e+002,2.063631e+001
7.993975e+002,2.293666e+001
8.003618e+002,2.555445e+001
8.013260e+002,2.609619e+001
8.022902e+002,2.434330e+001
8.032545e+002,2.226531e+001
8.042187e+002,2.287357e+001
8.051829e+002,2.686832e+001
8.061472e+002,2.999840e+001
8.071114e+002,3.201645e+001
8.080756e+002,3.354852e+001
8.090399e+002,3.438926e+001
8.100041e+002,3.482782e+001
8.109683e+002,3.669907e+001
8.119326e+002,4.164914e+001
8.128968e+002,4.662316e+001
8.138610e+002,5.042735e+001
8.148253e+002,5.362681e+001
8.157895e+002,5.688501e+001
8.167537e+002,6.057037e+001
8.177180e+002,6.452638e+001
8.186822e+002,6.895599e+001
8.196464e+002,7.343478e+001
8.206107e+002,7.674012e+001
8.215749e+002,7.848943e+001
8.225391e+002,7.933788e+001
8.235034e+002,8.039857e+001
8.244676e+002,8.204160e+001
8.254318e+002,8.248743e+001
8.263961e+002,8.186812e+001
8.273603e+002,8.062373e+001
8.283245e+002,7.894719e+001
8.292888e+002,7.672337e+001
8.302530e+002,7.341959e+001
8.312172e+002,6.780054e+001
8.321815e+002,6.274268e+001
8.331457e+002,6.096687e+001
8.341099e+002,6.067583e+001
8.350742e+002,5.915803e+001
8.360384e+002,5.518958e+001
8.370026e+002,5.028693e+001
8.379669e+002,4.815984e+001
8.389311e+002,4.893892e+001
8.398953e+002,4.873853e+001
8.408596e+002,4.697083e+001
8.418238e+002,4.441551e+001
8.427880e+002,4.196447e+001
8.437523e+002,3.968378e+001
8.447165e+002,3.724778e+001
8.456807e+002,3.425477e+001
8.466450e+002,3.153052e+001
8.476092e+002,2.940472e+001
8.485734e+002,2.769864e+001
8.495377e+002,2.595485e+001
8.505019e+002,2.382336e+001
8.514661e+002,2.211233e+001
8.524304e+002,2.196216e+001
8.533946e+002,2.282710e+001
8.543588e+002,2.429617e+001
8.553231e+002,2.613114e+001
8.562873e+002,2.763627e+001
8.572515e+002,2.723275e+001
8.582158e+002,2.397861e+001
8.591800e+002,2.156279e+001
8.601442e+002,1.988350e+001
8.611085e+002,1.892179e+001
8.620727e+002,1.887562e+001
8.630369e+002,1.973168e+001
8.640012e+002,2.087900e+001
8.649654e+002,2.255890e+001
8.659296e+002,2.386328e+001
8.668939e+002,2.451968e+001
8.678581e+002,2.454155e+001
8.688223e+002,2.380996e+001
8.697866e+002,2.232858e+001
8.707508e+002,2.054551e+001
8.717150e+002,1.927982e+001
8.726793e+002,1.853029e+001
8.736435e+002,1.860936e+001
8.746077e+002,1.980252e+001
8.755720e+002,2.116301e+001
8.765362e+002,2.147347e+001
8.775004e+002,2.057753e+001
8.784647e+002,1.927670e+001
8.794289e+002,1.643684e+001
8.803931e+002,1.448390e+001
8.813574e+002,1.493007e+001
8.823216e+002,1.668599e+001
8.832858e+002,1.754979e+001
8.842501e+002,1.646509e+001
8.852143e+002,1.475410e+001
8.861785e+002,1.336395e+001
8.871428e+002,1.226520e+001
8.881070e+002,1.159492e+001
8.890712e+002,1.133994e+001
8.900355e+002,1.122432e+001
8.909997e+002,1.080052e+001
8.919639e+002,9.997833e+000
8.929282e+002,9.756292e+000
8.938924e+002,1.073194e+001
8.948566e+002,1.132571e+001
8.958209e+002,1.071837e+001
8.967851e+002,9.076062e+000
8.977493e+002,6.932159e+000
8.987136e+002,3.452148e+000
8.996778e+002,1.055432e+000
9.006420e+002,1.064655e+000
9.016063e+002,2.133649e+000
9.025705e+002,3.334698e+000
9.035347e+002,4.230194e+000
9.044990e+002,4.564282e+000
9.054632e+002,3.664111e+000
9.064274e+002,1.976111e+000
9.073917e+002,1.849646e+000
9.083559e+002,3.438562e+000
9.093201e+002,4.735565e+000
9.102844e+002,3.940717e+000
9.112486e+002,1.192566e+000
9.122128e+002,-6.526306e-001
9.131771e+002,-1.328717e+000
9.141413e+002,-1.244922e+000
9.151055e+002,7.715454e-001
9.160698e+002,2.777917e+000
9.170340e+002,2.251044e+000
9.179982e+002,-1.238934e+000
9.189625e+002,-4.200690e+000
9.199267e+002,-2.959186e+000
9.208909e+002,-3.244202e-001
9.218552e+002,1.532269e+000
9.228194e+002,2.325818e+000
9.237836e+002,1.694446e+000
9.247479e+002,-6.879212e-001
9.257121e+002,-4.179407e+000
9.266763e+002,-4.855664e+000
9.276406e+002,-7.807862e-001
9.286048e+002,1.745142e+000
9.295690e+002,1.208539e+000
9.305333e+002,-5.324707e-001
9.314975e+002,-1.433783e+000
9.324617e+002,-1.270074e+000
9.334260e+002,-1.087683e+000
9.343902e+002,-1.654443e+000
9.353545e+002,-1.989026e+000
9.363187e+002,-1.356494e+000
9.372830e+002,-2.206116e-001
9.382472e+002,6.418945e-001
9.392114e+002,7.653320e-001
9.401757e+002,2.731445e-001
9.411399e+002,-1.109711e+000
9.421041e+002,-3.191052e+000
9.430684e+002,-3.895148e+000
9.440326e+002,-2.507404e+000
9.449968e+002,-4.542480e-001
9.459611e+002,4.755371e-001
9.469253e+002,1.327820e-001
9.478895e+002,1.354797e-001
9.488538e+002,1.044598e+000
9.498180e+002,1.720196e+000
9.507822e+002,1.738806e+000
9.517465e+002,1.321027e+000
9.527107e+002,6.914734e-001
9.536749e+002,-5.565796e-002
9.546392e+002,-4.244507e-001
9.556034e+002,3.697998e-001
9.565676e+002,1.795459e+000
9.575319e+002,3.637372e+000
9.584961e+002,5.739123e+000
9.594603e+002,7.218750e+000
9.604246e+002,6.993262e+000
9.613888e+002,5.015265e+000
9.623530e+002,4.339258e+000
9.633173e+002,5.398596e+000
9.642815e+002,7.110071e+000
9.652457e+002,9.503595e+000
9.662100e+002,1.253420e+001
9.671742e+002,1.555373e+001
9.681384e+002,1.828032e+001
9.691027e+002,2.329101e+001
9.700669e+002,3.260856e+001
9.710311e+002,4.483891e+001
9.719954e+002,6.328442e+001
9.729596e+002,8.387852e+001
9.739238e+002,9.844906e+001
9.748881e+002,1.014304e+002
9.758523e+002,9.469182e+001
9.768165e+002,8.338248e+001
9.777808e+002,6.615625e+001
9.787450e+002,5.184319e+001
9.797092e+002,4.179610e+001
9.806735e+002,3.458698e+001
9.816377e+002,2.915162e+001
9.826019e+002,2.552269e+001
9.835662e+002,2.313372e+001
9.845304e+002,2.302632e+001
9.854946e+002,2.289842e+001
9.864589e+002,2.178223e+001
9.874231e+002,2.029775e+001
9.883873e+002,1.889545e+001
9.893516e+002,1.786831e+001
9.903158e+002,1.788998e+001
9.912800e+002,2.039004e+001
9.922443e+002,2.488608e+001
9.932085e+002,2.799066e+001
9.941727e+002,2.942112e+001
9.951370e+002,3.186235e+001
9.961012e+002,3.684630e+001
9.970654e+002,4.421630e+001
9.980297e+002,5.358451e+001
9.989939e+002,5.992416e+001
9.999581e+002,7.828469e+001
1.000922e+003,1.100619e+002
1.001887e+003,1.532907e+002
1.002851e+003,2.178757e+002
1.003815e+003,2.958790e+002
1.004779e+003,3.571363e+002
1.005744e+003,3.814759e+002
1.006708e+003,3.745833e+002
1.007672e+003,3.424965e+002
1.008636e+003,2.929525e+002
1.009600e+003,2.414432e+002
1.010565e+003,1.944286e+002
1.011529e+003,1.531507e+002
1.012493e+003,1.211718e+002
1.013457e+003,1.010233e+002
1.014422e+003,8.362691e+001
1.015386e+003,6.815720e+001
1.016350e+003,5.561564e+001
1.017314e+003,4.698789e+001
1.018279e+003,4.125234e+001
1.019243e+003,3.669155e+001
1.020207e+003,3.288911e+001
1.021171e+003,2.982629e+001
1.022135e+003,2.806208e+001
1.023100e+003,2.670040e+001
1.024064e+003,2.476170e+001
1.025028e+003,2.229672e+001
1.025992e+003,2.016296e+001
1.026957e+003,1.915787e+001
1.027921e+003,1.918746e+001
1.028885e+003,1.932576e+001
1.029849e+003,1.976145e+001
1.030814e+003,1.987800e+001
1.031778e+003,1.924633e+001
1.032742e+003,1.834623e+001
1.033706e+003,1.775717e+001
1.034671e+003,1.756557e+001
1.035635e+003,1.730332e+001
1.036599e+003,1.696562e+001
1.037563e+003,1.624066e+001
1.038527e+003,1.439043e+001
1.039492e+003,1.230096e+001
1.040456e+003,1.108450e+001
1.041420e+003,1.116556e+001
1.042384e+003,1.214345e+001
1.043349e+003,1.351474e+001
1.044313e+003,1.523549e+001
1.045277e+003,1.638513e+001
1.046241e+003,1.687292e+001
1.047206e+003,1.712942e+001
1.048170e+003,1.734525e+001
1.049134e+003,1.748647e+001
1.050098e+003,1.741617e+001
1.051063e+003,1.703663e+001
1.052027e+003,1.693360e+001
1.052991e+003,1.772201e+001
1.053955e+003,1.821371e+001
1.054919e+003,1.744427e+001
1.055884e+003,1.586193e+001
1.056848e+003,1.461868e+001
1.057812e+003,1.444775e+001
1.058776e+003,1.484374e+001
1.059741e+003,1.456161e+001
1.060705e+003,1.366244e+001
1.061669e+003,1.315505e+001
1.062633e+003,1.319499e+001
1.063598e+003,1.340066e+001
1.064562e+003,1.336801e+001
1.065526e+003,1.320441e+001
1.066490e+003,1.375684e+001
1.067454e+003,1.594769e+001
1.068419e+003,1.740031e+001
1.069383e+003,1.688733e+001
1.070347e+003,1.591728e+001
1.071311e+003,1.570566e+001
1.072276e+003,1.639252e+001
1.073240e+003,1.743927e+001
1.074204e+003,1.852757e+001
1.075168e+003,1.946776e+001
1.076133e+003,1.974154e+001
1.077097e+003,1.949537e+001
1.078061e+003,1.908533e+001
1.079025e+003,1.851688e+001
1.079990e+003,1.810756e+001
1.080954e+003,1.841359e+001
1.081918e+003,1.957425e+001
1.082882e+003,2.050841e+001
1.083846e+003,2.133344e+001
1.084811e+003,2.162792e+001
1.085775e+003,2.083218e+001
1.086739e+003,1.973347e+001
1.087703e+003,1.920560e+001
1.088668e+003,1.946275e+001
1.089632e+003,2.006581e+001
1.090596e+003,2.080403e+001
1.091560e+003,2.126123e+001
1.092525e+003,2.042997e+001
1.093489e+003,1.865211e+001
1.094453e+003,1.746080e+001
1.095417e+003,1.760370e+001
1.096381e+003,1.861097e+001
1.097346e+003,1.962753e+001
1.098310e+003,2.082142e+001
1.099274e+003,2.140582e+001
1.100238e+003,2.097430e+001
1.101203e+003,2.056448e+001
1.102167e+003,2.055180e+001
1.103131e+003,2.064016e+001
1.104095e+003,2.017919e+001
1.105060e+003,1.904528e+001
1.106024e+003,1.835313e+001
1.106988e+003,1.942704e+001
1.107952e+003,2.141149e+001
1.108917e+003,2.295714e+001
1.109881e+003,2.402800e+001
1.110845e+003,2.464396e+001
1.111809e+003,2.475852e+001
1.112773e+003,2.454008e+001
1.113738e+003,2.452378e+001
1.114702e+003,2.514877e+001
1.115666e+003,2.492998e+001
1.116630e+003,2.281104e+001
1.117595e+003,2.112726e+001
1.118559e+003,2.079954e+001
1.119523e+003,2.135479e+001
1.120487e+003,2.210597e+001
1.121452e+003,2.286603e+001
1.122416e+003,2.366916e+001
1.123380e+003,2.444119e+001
1.124344e+003,2.524442e+001
1.125308e+003,2.632081e+001
1.126273e+003,2.762947e+001
1.127237e+003,2.898343e+001
1.128201e+003,3.032248e+001
1.129165e+003,3.129086e+001
1.130130e+003,3.090320e+001
1.131094e+003,2.835995e+001
1.132058e+003,2.670544e+001
1.133022e+003,2.611711e+001
1.133987e+003,2.606345e+001
1.134951e+003,2.693208e+001
1.135915e+003,2.806916e+001
1.136879e+003,2.835327e+001
1.137844e+003,2.753856e+001
1.138808e+003,2.697147e+001
1.139772e+003,2.796445e+001
1.140736e+003,2.940007e+001
1.141700e+003,2.984424e+001
1.142665e+003,2.956086e+001
1.143629e+003,2.928568e+001
1.144593e+003,2.938240e+001
1.145557e+003,2.984624e+001
1.146522e+003,3.063671e+001
1.147486e+003,3.175342e+001
1.148450e+003,3.263836e+001
1.149414e+003,3.323898e+001
1.150379e+003,3.394443e+001
1.151343e+003,3.523318e+001
1.152307e+003,3.649760e+001
1.153271e+003,3.670432e+001
1.154235e+003,3.571856e+001
1.155200e+003,3.489213e+001
1.156164e+003,3.555465e+001
1.157128e+003,3.663076e+001
1.158092e+003,3.620751e+001
1.159057e+003,3.487676e+001
1.160021e+003,3.410976e+001
1.160985e+003,3.443639e+001
1.161949e+003,3.549793e+001
1.162914e+003,3.689696e+001
1.163878e+003,3.874963e+001
1.164842e+003,4.035405e+001
1.165806e+003,4.173278e+001
1.166771e+003,4.268703e+001
1.167735e+003,4.273368e+001
1.168699e+003,4.270649e+001
1.169663e+003,4.347428e+001
1.170627e+003,4.496917e+001
1.171592e+003,4.638716e+001
1.172556e+003,4.732214e+001
1.173520e+003,4.783844e+001
1.174484e+003,4.765029e+001
1.175449e+003,4.713554e+001
1.176413e+003,4.714708e+001
1.177377e+003,4.786211e+001
1.178341e+003,4.866185e+001
1.179306e+003,4.884498e+001
1.180270e+003,4.856095e+001
1.181234e+003,4.916703e+001
1.182198e+003,5.155923e+001
1.183162e+003,5.312315e+001
1.184127e+003,5.313461e+001
1.185091e+003,5.279431e+001
1.186055e+003,5.277639e+001
1.187019e+003,5.314161e+001
1.187984e+003,5.394094e+001
1.188948e+003,5.517850e+001
1.189912e+003,5.573809e+001
1.190876e+003,5.349772e+001
1.191841e+003,4.987766e+001
1.192805e+003,4.856852e+001
1.193769e+003,4.975057e+001
1.194733e+003,5.116063e+001
1.195698e+003,5.136011e+001
1.196662e+003,5.082478e+001
1.197626e+003,5.093325e+001
1.198590e+003,5.201652e+001
1.199554e+003,5.243323e+001
1.200519e+003,5.149160e+001
1.201483e+003,5.061841e+001
1.202447e+003,5.013274e+001
1.203411e+003,5.002496e+001
1.204376e+003,5.050420e+001
1.205340e+003,5.131829e+001
1.206304e+003,5.127242e+001
1.207268e+003,4.914878e+001
1.208233e+003,4.617361e+001
1.209197e+003,4.584930e+001
1.210161e+003,4.773834e+001
1.211125e+003,4.957784e+001
1.212089e+003,5.089455e+001
1.213054e+003,5.147897e+001
1.214018e+003,5.080076e+001
1.214982e+003,4.912772e+001
1.215946e+003,4.862803e+001
1.216911e+003,5.010361e+001
1.217875e+003,5.146363e+001
1.218839e+003,5.190343e+001
1.219803e+003,5.203281e+001
1.220768e+003,5.219720e+001
1.221732e+003,5.263497e+001
1.222696e+003,5.371991e+001
1.223660e+003,5.557858e+001
1.224625e+003,5.747616e+001
1.225589e+003,5.799741e+001
1.226553e+003,5.702760e+001
1.227517e+003,5.674271e+001
1.228481e+003,5.749149e+001
1.229446e+003,5.820692e+001
1.230410e+003,5.830616e+001
1.231374e+003,5.809713e+001
1.232338e+003,5.826733e+001
1.233303e+003,5.895921e+001
1.234267e+003,5.916738e+001
1.235231e+003,5.811320e+001
1.236195e+003,5.689909e+001
1.237160e+003,5.571846e+001
1.238124e+003,5.488027e+001
1.239088e+003,5.509687e+001
1.240052e+003,5.628368e+001
1.241016e+003,5.731599e+001
1.241981e+003,5.707322e+001
1.242945e+003,5.599981e+001
1.243909e+003,5.625568e+001
1.244873e+003,5.918816e+001
1.245838e+003,6.015955e+001
1.246802e+003,5.737893e+001
1.247766e+003,5.453324e+001
1.248730e+003,5.328871e+001
1.249695e+003,5.357784e+001
1.250659e+003,5.552263e+001
1.251623e+003,5.933327e+001
1.252587e+003,6.268395e+001
1.253552e+003,6.371434e+001
1.254516e+003,6.374996e+001
1.255480e+003,6.403905e+001
1.256444e+003,6.448380e+001
1.257408e+003,6.474801e+001
1.258373e+003,6.471287e+001
1.259337e+003,6.449014e+001
1.260301e+003,6.424092e+001
1.261265e+003,6.401510e+001
1.262230e+003,6.367657e+001
1.263194e+003,6.199877e+001
1.264158e+003,6.172524e+001
1.265122e+003,6.462827e+001
1.266087e+003,6.746385e+001
1.267051e+003,6.767273e+001
1.268015e+003,6.613878e+001
1.268979e+003,6.572025e+001
1.269943e+003,6.757951e+001
1.270908e+003,6.908004e+001
1.271872e+003,6.663035e+001
1.272836e+003,6.232344e+001
1.273800e+003,6.121032e+001
1.274765e+003,6.318974e+001
1.275729e+003,6.601617e+001
1.276693e+003,6.896814e+001
1.277657e+003,7.165276e+001
1.278622e+003,7.361000e+001
1.279586e+003,7.481588e+001
1.280550e+003,7.448961e+001
1.281514e+003,7.105312e+001
1.282479e+003,6.888699e+001
1.283443e+003,6.987321e+001
1.284407e+003,7.160094e+001
1.285371e+003,7.224068e+001
1.286335e+003,7.181303e+001
1.287300e+003,7.122404e+001
1.288264e+003,7.103662e+001
1.289228e+003,7.121751e+001
1.290192e+003,7.169997e+001
1.291157e+003,7.242464e+001
1.292121e+003,7.241081e+001
1.293085e+003,7.106937e+001
1.294049e+003,7.037572e+001
1.295014e+003,7.175163e+001
1.295978e+003,7.376815e+001
1.296942e+003,7.460419e+001
1.297906e+003,7.436155e+001
1.298870e+003,7.443740e+001
1.299835e+003,7.520815e+001
1.300799e+003,7.602289e+001
1.301763e+003,7.640846e+001
1.302727e+003,7.665723e+001
1.303692e+003,7.699503e+001
1.304656e+003,7.764247e+001
1.305620e+003,7.893850e+001
1.306584e+003,8.100897e+001
1.307549e+003,8.340163e+001
1.308513e+003,8.540739e+001
1.309477e+003,8.715327e+001
1.310441e+003,8.694208e+001
1.311406e+003,8.186299e+001
1.312370e+003,7.920247e+001
1.313334e+003,8.197356e+001
1.314298e+003,8.587563e+001
1.315263e+003,8.739709e+001
1.316227e+003,8.673468e+001
1.317191e+003,8.565669e+001
1.318155e+003,8.482206e+001
1.319120e+003,8.446468e+001
1.320084e+003,8.498013e+001
1.321048e+003,8.607204e+001
1.322012e+003,8.745383e+001
1.322976e+003,8.899046e+001
1.323941e+003,8.931169e+001
1.324905e+003,8.746786e+001
1.325869e+003,8.501888e+001
1.326833e+003,8.419480e+001
1.327798e+003,8.495050e+001
1.328762e+003,8.574876e+001
1.329726e+003,8.641801e+001
1.330690e+003,8.712872e+001
1.331655e+003,8.807499e+001
1.332619e+003,8.898081e+001
1.333583e+003,8.930192e+001
1.334547e+003,8.951231e+001
1.335511e+003,9.085972e+001
1.336476e+003,9.364359e+001
1.337440e+003,9.635270e+001
1.338404e+003,9.715300e+001
1.339368e+003,9.620980e+001
1.340333e+003,9.432777e+001
1.341297e+003,9.092747e+001
1.342261e+003,8.809792e+001
1.343225e+003,8.572357e+001
1.344190e+003,8.439806e+001
1.345154e+003,8.501874e+001
1.346118e+003,8.690556e+001
1.347082e+003,8.848633e+001
1.348047e+003,8.939335e+001
1.349011e+003,9.004844e+001
1.349975e+003,9.050095e+001
1.350939e+003,9.118264e+001
1.351903e+003,9.270154e+001
1.352868e+003,9.464461e+001
1.353832e+003,9.634129e+001
1.354796e+003,9.757825e+001
1.355760e+003,9.802333e+001
1.356725e+003,9.722123e+001
1.357689e+003,9.547652e+001
1.358653e+003,9.402454e+001
1.359617e+003,9.257157e+001
1.360582e+003,9.228835e+001
1.361546e+003,9.440033e+001
1.362510e+003,9.620313e+001
1.363474e+003,9.651412e+001
1.364438e+003,9.650986e+001
1.365403e+003,9.760576e+001
1.366367e+003,9.960634e+001
1.367331e+003,1.011409e+002
1.368295e+003,1.013498e+002
1.369260e+003,1.006503e+002
1.370224e+003,9.960726e+001
1.371188e+003,9.846187e+001
1.372152e+003,9.907552e+001
1.373117e+003,1.021049e+002
1.374081e+003,1.043625e+002
1.375045e+003,1.040803e+002
1.376009e+003,1.030767e+002
1.376974e+003,1.036241e+002
1.377938e+003,1.055137e+002
1.378902e+003,1.066264e+002
1.379866e+003,1.059927e+002
1.380830e+003,1.056313e+002
1.381795e+003,1.083856e+002
1.382759e+003,1.109443e+002
1.383723e+003,1.090686e+002
1.384687e+003,1.045783e+002
1.385652e+003,1.029471e+002
1.386616e+003,1.061920e+002
1.387580e+003,1.107139e+002
1.388544e+003,1.122279e+002
1.389509e+003,1.109168e+002
1.390473e+003,1.090813e+002
1.391437e+003,1.060398e+002
1.392401e+003,1.044396e+002
1.393365e+003,1.047004e+002
1.394330e+003,1.057886e+002
1.395294e+003,1.080772e+002
1.396258e+003,1.103471e+002
1.397222e+003,1.114513e+002
1.398187e+003,1.113265e+002
1.399151e+003,1.101616e+002
1.400115e+003,1.079075e+002
1.401079e+003,1.059513e+002
1.402044e+003,1.075148e+002
1.403008e+003,1.126366e+002
1.403972e+003,1.145924e+002
1.404936e+003,1.118603e+002
1.405901e+003,1.101377e+002
1.406865e+003,1.121372e+002
1.407829e+003,1.151478e+002
1.408793e+003,1.164224e+002
1.409757e+003,1.162288e+002
1.410722e+003,1.161112e+002
1.411686e+003,1.163891e+002
1.412650e+003,1.164246e+002
1.413614e+003,1.156311e+002
1.414579e+003,1.147999e+002
1.415543e+003,1.149388e+002
1.416507e+003,1.157596e+002
1.417471e+003,1.164343e+002
1.418436e+003,1.166318e+002
1.419400e+003,1.161428e+002
1.420364e+003,1.142002e+002
1.421328e+003,1.118694e+002
1.422292e+003,1.139747e+002
1.423257e+003,1.224021e+002
1.424221e+003,1.278482e+002
1.425185e+003,1.264948e+002
1.426149e+003,1.247090e+002
1.427114e+003,1.239416e+002
1.428078e+003,1.242096e+002
1.429042e+003,1.256645e+002
1.430006e+003,1.277765e+002
1.430971e+003,1.295773e+002
1.431935e+003,1.305751e+002
1.432899e+003,1.309699e+002
1.433863e+003,1.310544e+002
1.434828e+003,1.309464e+002
1.435792e+003,1.309964e+002
1.436756e+003,1.309772e+002
1.437720e+003,1.308739e+002
1.438684e+003,1.313424e+002
1.439649e+003,1.313797e+002
1.440613e+003,1.297119e+002
1.441577e+003,1.275510e+002
1.442541e+003,1.266344e+002
1.443506e+003,1.272104e+002
1.444470e+003,1.293823e+002
1.445434e+003,1.339364e+002
1.446398e+003,1.382468e+002
1.447363e+003,1.375597e+002
1.448327e+003,1.338134e+002
1.449291e+003,1.322006e+002
1.450255e+003,1.331586e+002
1.451219e+003,1.348044e+002
1.452184e+003,1.365378e+002
1.453148e+003,1.380684e+002
1.454112e+003,1.390739e+002
1.455076e+003,1.395458e+002
1.456041e+003,1.392533e+002
1.457005e+003,1.376758e+002
1.457969e+003,1.376668e+002
1.458933e+003,1.426423e+002
1.459898e+003,1.471596e+002
1.460862e+003,1.469936e+002
1.461826e+003,1.444056e+002
1.462790e+003,1.426016e+002
1.463755e+003,1.424482e+002
1.464719e+003,1.437519e+002
1.465683e+003,1.464866e+002
1.466647e+003,1.498583e+002
1.467611e+003,1.521333e+002
1.468576e+003,1.533570e+002
1.469540e+003,1.525452e+002
1.470504e+003,1.463871e+002
1.471468e+003,1.436023e+002
1.472433e+003,1.486659e+002
1.473397e+003,1.537889e+002
1.474361e+003,1.540214e+002
1.475325e+003,1.511064e+002
1.476290e+003,1.477538e+002
1.477254e+003,1.451276e+002
1.478218e+003,1.439276e+002
1.479182e+003,1.448259e+002
1.480146e+003,1.469387e+002
1.481111e+003,1.481712e+002
1.482075e+003,1.483888e+002
1.483039e+003,1.481218e+002
1.484003e+003,1.462890e+002
1.484968e+003,1.457390e+002
1.485932e+003,1.484162e+002
1.486896e+003,1.516443e+002
1.487860e+003,1.531859e+002
1.488825e+003,1.532409e+002
1.489789e+003,1.528522e+002
1.490753e+003,1.523440e+002
1.491717e+003,1.514088e+002
1.492682e+003,1.496457e+002
1.493646e+003,1.476054e+002
1.494610e+003,1.455165e+002
1.495574e+003,1.438792e+002
1.496538e+003,1.454315e+002
1.497503e+003,1.512177e+002
1.498467e+003,1.548684e+002
1.499431e+003,1.506412e+002
1.500395e+003,1.444625e+002
1.501360e+003,1.451148e+002
1.502324e+003,1.509639e+002
1.503288e+003,1.529911e+002
1.504252e+003,1.488405e+002
1.505217e+003,1.451799e+002
1.506181e+003,1.454541e+002
1.507145e+003,1.471507e+002
1.508109e+003,1.487746e+002
1.509073e+003,1.500792e+002
1.510038e+003,1.505400e+002
1.511002e+003,1.501721e+002
1.511966e+003,1.496110e+002
1.512930e+003,1.492797e+002
1.513895e+003,1.490907e+002
1.514859e+003,1.487324e+002
1.515823e+003,1.480796e+002
1.516787e+003,1.474971e+002
1.517752e+003,1.472218e+002
1.518716e+003,1.469618e+002
1.519680e+003,1.465351e+002
1.520644e+003,1.459232e+002
1.521609e+003,1.451129e+002
1.522573e+003,1.441250e+002
1.523537e+003,1.427860e+002
1.524501e+003,1.414606e+002
1.525465e+003,1.411782e+002
1.526430e+003,1.423618e+002
1.527394e+003,1.435512e+002
1.528358e+003,1.424519e+002
1.529322e+003,1.393039e+002
1.530287e+003,1.383971e+002
1.531251e+003,1.421738e+002
1.532215e+003,1.436120e+002
1.533179e+003,1.402547e+002
1.534144e+003,1.374897e+002
1.535108e+003,1.381755e+002
1.536072e+003,1.398280e+002
1.537036e+003,1.393748e+002
1.538000e+003,1.373491e+002
1.538965e+003,1.366342e+002
1.539929e+003,1.383650e+002
1.540893e+003,1.403970e+002
1.541857e+003,1.403622e+002
1.542822e+003,1.388557e+002
1.543786e+003,1.378443e+002
1.544750e+003,1.374142e+002
1.545714e+003,1.367584e+002
1.546679e+003,1.351434e+002
1.547643e+003,1.341624e+002
1.548607e+003,1.352735e+002
1.549571e+003,1.366617e+002
1.550536e+003,1.361396e+002
1.551500e+003,1.341768e+002
1.552464e+003,1.326853e+002
1.553428e+003,1.323679e+002
1.554392e+003,1.327308e+002
1.555357e+003,1.335081e+002
1.556321e+003,1.338186e+002
1.557285e+003,1.315363e+002
1.558249e+003,1.269934e+002
1.559214e+003,1.249091e+002
1.560178e+003,1.264208e+002
1.561142e+003,1.274928e+002
1.562106e+003,1.261940e+002
1.563071e+003,1.242336e+002
1.564035e+003,1.233395e+002
1.564999e+003,1.231388e+002
1.565963e+003,1.223131e+002
1.566927e+003,1.206447e+002
1.567892e+003,1.190714e+002
1.568856e+003,1.179256e+002
1.569820e+003,1.175390e+002
1.570784e+003,1.192923e+002
1.571749e+003,1.216237e+002
1.572713e+003,1.203103e+002
1.573677e+003,1.155144e+002
1.574641e+003,1.118549e+002
1.575606e+003,1.108964e+002
1.576570e+003,1.109033e+002
1.577534e+003,1.110479e+002
1.578498e+003,1.111313e+002
1.579463e+003,1.105832e+002
1.580427e+003,1.093934e+002
1.581391e+003,1.082164e+002
1.582355e+003,1.072466e+002
1.583319e+003,1.063752e+002
1.584284e+003,1.057167e+002
1.585248e+003,1.051221e+002
1.586212e+003,1.038480e+002
1.587176e+003,1.022021e+002
1.588141e+003,1.017532e+002
1.589105e+003,1.029556e+002
1.590069e+003,1.036722e+002
1.591033e+003,1.024197e+002
1.591998e+003,9.997011e+001
1.592962e+003,9.696483e+001
1.593926e+003,9.366895e+001
1.594890e+003,9.183568e+001
1.595854e+003,9.196354e+001
1.596819e+003,9.180729e+001
1.597783e+003,8.991942e+001
1.598747e+003,8.826433e+001
1.599711e+003,8.899895e+001
1.600676e+003,9.033665e+001
1.601640e+003,8.998179e+001
1.602604e+003,8.821822e+001
1.603568e+003,8.706268e+001
1.604533e+003,8.732291e+001
1.605497e+003,8.710878e+001
1.606461e+003,8.398970e+001
1.607425e+003,7.930318e+001
1.608390e+003,7.683236e+001
1.609354e+003,7.671338e+001
1.610318e+003,7.682591e+001
1.611282e+003,7.682355e+001
1.612246e+003,7.665715e+001
1.613211e+003,7.670671e+001
1.614175e+003,7.617348e+001
1.615139e+003,7.385535e+001
1.616103e+003,7.101579e+001
1.617068e+003,7.002287e+001
1.618032e+003,7.087488e+001
1.618996e+003,7.084194e+001
1.619960e+003,6.811913e+001
1.620925e+003,6.501921e+001
1.621889e+003,6.562505e+001
1.622853e+003,6.903989e+001
1.623817e+003,6.908089e+001
1.624781e+003,6.511825e+001
1.625746e+003,6.208922e+001
1.626710e+003,6.118794e+001
1.627674e+003,6.078722e+001
1.628638e+003,6.058442e+001
1.629603e+003,5.995229e+001
1.630567e+003,5.805513e+001
1.631531e+003,5.551770e+001
1.632495e+003,5.354149e+001
1.633460e+003,5.250555e+001
1.634424e+003,5.232368e+001
1.635388e+003,5.302525e+001
1.636352e+003,5.403822e+001
1.637317e+003,5.458178e+001
1.638281e+003,5.460703e+001
1.639245e+003,5.323403e+001
1.640209e+003,4.983025e+001
1.641173e+003,4.737154e+001
1.642138e+003,4.746924e+001
1.643102e+003,4.754064e+001
1.644066e+003,4.597472e+001
1.645030e+003,4.399617e+001
1.645995e+003,4.271952e+001
1.646959e+003,4.207705e+001
1.647923e+003,4.162406e+001
1.648887e+003,4.121154e+001
1.649852e+003,4.087711e+001
1.650816e+003,4.071257e+001
1.651780e+003,4.049345e+001
1.652744e+003,3.954788e+001
1.653708e+003,3.791800e+001
1.654673e+003,3.729783e+001
1.655637e+003,3.831455e+001
1.656601e+003,3.831704e+001
1.657565e+003,3.572917e+001
1.658530e+003,3.306966e+001
1.659494e+003,3.168774e+001
1.660458e+003,3.093969e+001
1.661422e+003,2.997162e+001
1.662387e+003,2.901518e+001
1.663351e+003,2.928513e+001
1.664315e+003,3.111572e+001
1.665279e+003,3.248182e+001
1.666244e+003,3.164244e+001
1.667208e+003,2.931403e+001
1.668172e+003,2.634888e+001
1.669136e+003,2.287297e+001
1.670100e+003,2.138779e+001
1.671065e+003,2.252717e+001
1.672029e+003,2.371529e+001
1.672993e+003,2.437132e+001
1.673957e+003,2.467893e+001
1.674922e+003,2.457352e+001
1.675886e+003,2.426657e+001
1.676850e+003,2.405529e+001
1.677814e+003,2.387559e+001
1.678779e+003,2.341867e+001
1.679743e+003,2.259193e+001
1.680707e+003,2.167597e+001
1.681671e+003,2.086475e+001
1.682635e+003,2.008488e+001
1.683600e+003,1.918460e+001
1.684564e+003,1.823527e+001
1.685528e+003,1.748545e+001
1.686492e+003,1.691271e+001
1.687457e+003,1.636420e+001
1.688421e+003,1.573290e+001
1.689385e+003,1.534940e+001
1.690349e+003,1.584352e+001
1.691314e+003,1.655645e+001
1.692278e+003,1.686476e+001
1.693242e+003,1.662035e+001
1.694206e+003,1.539764e+001
1.695171e+003,1.300903e+001
1.696135e+003,1.069406e+001
1.697099e+003,9.254254e+000
1.698063e+003,8.260376e+000
1.699027e+003,6.914227e+000
1.699992e+003,5.617401e+000
1.700956e+003,5.863641e+000
1.701920e+003,7.725390e+000
1.702884e+003,8.934057e+000
1.703849e+003,8.557324e+000
1.704813e+003,7.941339e+000
1.705777e+003,8.372522e+000
1.706741e+003,8.943787e+000
1.707706e+003,7.756116e+000
1.708670e+003,5.422381e+000
1.709634e+003,4.340637e+000
1.710598e+003,4.966132e+000
1.711563e+003,5.691254e+000
1.712527e+003,5.886884e+000
1.713491e+003,5.870276e+000
1.714455e+003,5.907227e+000
1.715419e+003,5.926233e+000
1.716384e+003,5.809851e+000
1.717348e+003,5.530054e+000
1.718312e+003,4.926349e+000
1.719276e+003,3.938269e+000
1.720241e+003,3.342950e+000
1.721205e+003,3.819153e+000
1.722169e+003,4.684760e+000
1.723133e+003,5.009955e+000
1.724098e+003,4.786548e+000
1.725062e+003,3.512262e+000
1.726026e+003,6.552887e-001
1.726990e+003,-1.186688e+000
1.727954e+003,-1.337454e+000
1.728919e+003,-7.359864e-001
1.729883e+003,9.232422e-001
1.730847e+003,2.530487e+000
1.731811e+003,2.955823e+000
1.732776e+003,2.438556e+000
1.733740e+003,1.485556e+000
1.734704e+003,3.865539e-001
1.735668e+003,-2.402252e-001
1.736633e+003,-4.822998e-002
1.737597e+003,2.220398e-001
1.738561e+003,-4.806122e-001
1.739525e+003,-1.683218e+000
1.740490e+003,-1.159900e+000
1.741454e+003,2.002374e+000
1.742418e+003,3.336560e+000
1.743382e+003,1.555920e+000
1.744346e+003,-2.501221e-002
1.745311e+003,-8.860443e-001
1.746275e+003,-1.418982e+000
1.747239e+003,-1.508307e+000
1.748203e+003,-1.603534e+000
1.749168e+003,-2.591895e+000
1.750132e+003,-4.059720e+000
1.751096e+003,-4.453403e+000
1.752060e+003,-3.351660e+000
1.753025e+003,-2.350546e+000
1.753989e+003,-2.952847e+000
1.754953e+003,-4.208926e+000
1.755917e+003,-3.768457e+000
1.756881e+003,-1.585651e+000
1.757846e+003,-8.971130e-001
1.758810e+003,-2.268091e+000
1.759774e+003,-3.411633e+000
1.760738e+003,-4.295300e+000
1.761703e+003,-4.594892e+000
1.762667e+003,-3.439950e+000
1.763631e+003,-2.381729e+000
1.764595e+003,-2.993280e+000
1.765560e+003,-4.413959e+000
1.766524e+003,-4.840204e+000
1.767488e+003,-4.200717e+000
1.768452e+003,-4.184668e+000
1.769417e+003,-5.741678e+000
1.770381e+003,-7.362802e+000
1.771345e+003,-7.251837e+000
1.772309e+003,-6.032831e+000
1.773273e+003,-5.105148e+000
1.774238e+003,-4.507993e+000
1.775202e+003,-4.639197e+000
1.776166e+003,-5.714709e+000
1.777130e+003,-6.025244e+000
1.778095e+003,-4.486383e+000
1.779059e+003,-2.835629e+000
1.780023e+003,-2.615286e+000
1.780987e+003,-3.201877e+000
1.781952e+003,-3.536829e+000
1.782916e+003,-3.750552e+000
1.783880e+003,-4.409592e+000
1.784844e+003,-5.691843e+000
1.785808e+003,-6.738364e+000
1.786773e+003,-7.163629e+000
1.787737e+003,-7.273837e+000
1.788701e+003,-7.243115e+000
1.789665e+003,-7.109387e+000
1.790630e+003,-6.765429e+000
1.791594e+003,-6.358706e+000
1.792558e+003,-6.403967e+000
1.793522e+003,-7.005957e+000
1.794487e+003,-7.773999e+000
1.795451e+003,-8.481936e+000
1.796415e+003,-8.700208e+000
1.797379e+003,-7.783530e+000
1.798344e+003,-6.030887e+000
1.799308e+003,-4.752893e+000
1.800272e+003,-3.889053e+000
1.801236e+003,-3.920190e+000
1.802201e+003,-5.613998e+000
1.803165e+003,-6.804599e+000
1.804129e+003,-6.842545e+000
1.805093e+003,-6.697150e+000
1.806057e+003,-6.963760e+000
1.807022e+003,-7.308835e+000
1.807986e+003,-7.217221e+000
1.808950e+003,-6.841748e+000
1.809914e+003,-6.836502e+000
1.810879e+003,-7.269571e+000
1.811843e+003,-7.166635e+000
1.812807e+003,-5.780820e+000
1.813771e+003,-4.403369e+000
1.814736e+003,-5.285812e+000
1.815700e+003,-7.900922e+000
1.816664e+003,-9.374911e+000
1.817628e+003,-9.681521e+000
1.818593e+003,-9.268216e+000
1.819557e+003,-7.864764e+000
1.820521e+003,-6.525696e+000
1.821485e+003,-5.279984e+000
1.822449e+003,-4.707336e+000
1.823414e+003,-5.608667e+000
1.824378e+003,-7.235126e+000
1.825342e+003,-9.074170e+000
1.826306e+003,-1.072895e+001
1.827271e+003,-1.083661e+001
1.828235e+003,-8.957285e+000
1.829199e+003,-7.125464e+000
1.830163e+003,-6.189542e+000
1.831128e+003,-5.889780e+000
1.832092e+003,-6.556857e+000
1.833056e+003,-7.390543e+000
1.834020e+003,-6.719650e+000
1.834984e+003,-5.107047e+000
1.835949e+003,-4.830100e+000
1.836913e+003,-6.198590e+000
1.837877e+003,-7.293463e+000
1.838841e+003,-7.092160e+000
1.839806e+003,-6.436603e+000
1.840770e+003,-6.235330e+000
1.841734e+003,-6.383883e+000
1.842698e+003,-6.557834e+000
1.843663e+003,-6.768103e+000
1.844627e+003,-6.504632e+000
1.845591e+003,-5.429385e+000
1.846555e+003,-4.448471e+000
1.847520e+003,-3.446277e+000
1.848484e+003,-2.807770e+000
1.849448e+003,-2.390524e+000
1.850412e+003,-2.560132e+000
1.851376e+003,-4.221100e+000
1.852341e+003,-6.407516e+000
1.853305e+003,-7.679007e+000
1.854269e+003,-7.804572e+000
1.855233e+003,-7.070343e+000
1.856198e+003,-5.649621e+000
1.857162e+003,-4.447470e+000
1.858126e+003,-4.450659e+000
1.859090e+003,-5.120859e+000
1.860055e+003,-5.523499e+000
1.861019e+003,-5.695050e+000
1.861983e+003,-5.478036e+000
1.862947e+003,-4.825058e+000
1.863911e+003,-4.796136e+000
1.864876e+003,-5.829883e+000
1.865840e+003,-6.497375e+000
1.866804e+003,-5.843381e+000
1.867768e+003,-4.831427e+000
1.868733e+003,-4.831204e+000
1.869697e+003,-5.252835e+000
1.870661e+003,-3.986023e+000
1.871625e+003,-1.014240e+000
1.872590e+003,5.675995e-001
1.873554e+003,1.295166e-002
1.874518e+003,-1.046317e+000
1.875482e+003,-2.836093e+000
1.876447e+003,-4.165146e+000
1.877411e+003,-3.918628e+000
1.878375e+003,-3.120206e+000
1.879339e+003,-3.110825e+000
1.880303e+003,-3.556699e+000
1.881268e+003,-3.175205e+000
1.882232e+003,-1.963455e+000
1.883196e+003,-1.400302e+000
1.884160e+003,-2.231210e+000
1.885125e+003,-3.432806e+000
1.886089e+003,-3.911636e+000
1.887053e+003,-3.807730e+000
1.888017e+003,-3.282394e+000
1.888982e+003,-2.309448e+000
1.889946e+003,-1.984836e+000
1.890910e+003,-2.482330e+000
1.891874e+003,-2.690628e+000
1.892839e+003,-2.241889e+000
1.893803e+003,-1.955408e+000
1.894767e+003,-2.334634e+000
1.895731e+003,-2.806827e+000
1.896695e+003,-3.000116e+000
1.897660e+003,-2.902362e+000
1.898624e+003,-2.193515e+000
1.899588e+003,-1.038715e+000
1.900552e+003,-8.344818e-001
1.901517e+003,-2.223569e+000
1.902481e+003,-3.244278e+000
1.903445e+003,-2.580118e+000
1.904409e+003,-1.892413e+000
1.905374e+003,-2.648169e+000
1.906338e+003,-3.612622e+000
1.907302e+003,-3.031482e+000
1.908266e+003,-1.688510e+000
1.909230e+003,-1.535941e+000
1.910195e+003,-2.632736e+000
1.911159e+003,-3.552331e+000
1.912123e+003,-3.586243e+000
1.913087e+003,-2.818921e+000
1.914052e+003,-1.287869e+000
1.915016e+003,2.868683e-001
1.915980e+003,3.591003e-001
1.916944e+003,-9.454346e-001
1.917909e+003,-2.100967e+000
1.918873e+003,-3.187857e+000
1.919837e+003,-3.426288e+000
1.920801e+003,-2.342767e+000
1.921766e+003,-1.539862e+000
1.922730e+003,-1.562070e+000
1.923694e+003,-2.089679e+000
1.924658e+003,-3.502609e+000
1.925622e+003,-4.805801e+000
1.926587e+003,-4.605673e+000
1.927551e+003,-3.259412e+000
1.928515e+003,-2.007443e+000
1.929479e+003,-9.459869e-001
1.930444e+003,-3.696808e-001
1.931408e+003,-6.479126e-001
1.932372e+003,-1.047192e+000
1.933336e+003,-1.020142e+000
1.934301e+003,-1.185699e+000
1.935265e+003,-2.812253e+000
1.936229e+003,-4.422742e+000
1.937193e+003,-3.179706e+000
1.938157e+003,-2.002838e-001
1.939122e+003,7.599640e-001
1.940086e+003,-9.545075e-001
1.941050e+003,-2.742801e+000
1.942014e+003,-3.022259e+000
1.942979e+003,-2.217911e+000
1.943943e+003,-6.313049e-001
1.944907e+003,1.162448e+000
1.945871e+003,1.363412e+000
1.946836e+003,7.753906e-002
1.947800e+003,-1.074429e+000
1.948764e+003,-2.133362e+000
1.949728e+003,-2.673370e+000
1.950693e+003,-2.574686e+000
1.951657e+003,-2.078330e+000
1.952621e+003,-1.009497e+000
1.953585e+003,-3.128967e-002
1.954549e+003,2.260773e-001
1.955514e+003,-8.680115e-002
1.956478e+003,-1.053531e+000
1.957442e+003,-2.546994e+000
1.958406e+003,-2.255972e+000
1.959371e+003,1.093396e+000
1.960335e+003,2.731790e+000
1.961299e+003,1.667297e-001
1.962263e+003,-1.554385e+000
1.963228e+003,2.870239e-001
1.964192e+003,2.436908e+000
1.965156e+003,2.565006e+000
1.966120e+003,1.656165e+000
1.967084e+003,9.477722e-001
1.968049e+003,6.200470e-001
1.969013e+003,3.088287e-001
1.969977e+003,1.338196e-002
1.970941e+003,5.403290e-001
1.971906e+003,2.447583e+000
1.972870e+003,4.251129e+000
1.973834e+003,4.340686e+000
1.974798e+003,3.383850e+000
1.975763e+003,2.166950e+000
1.976727e+003,8.882202e-001
1.977691e+003,2.173920e-001
1.978655e+003,1.620544e-001
1.979620e+003,5.867890e-001
1.980584e+003,1.448346e+000
1.981548e+003,1.976093e+000
1.982512e+003,1.714267e+000
1.983476e+003,1.210938e+000
1.984441e+003,1.051975e+000
1.985405e+003,1.062738e+000
1.986369e+003,8.021423e-001
1.987333e+003,3.126190e-001
1.988298e+003,2.947632e-001
1.989262e+003,9.929901e-001
1.990226e+003,1.252164e+000
1.991190e+003,4.873657e-001
1.992155e+003,3.521179e-001
1.993119e+003,2.243549e+000
1.994083e+003,3.670599e+000
1.995047e+003,2.669196e+000
1.996011e+003,1.091480e+000
1.996976e+003,8.660431e-001
1.997940e+003,1.617779e+000
1.998904e+003,2.333676e+000
1.999868e+003,2.908765e+000
2.000833e+003,3.498526e+000
2.001797e+003,4.139313e+000
2.002761e+003,4.719586e+000
2.003725e+003,5.603900e+000
2.004690e+003,5.937341e+000
2.005654e+003,4.495667e+000
2.006618e+003,2.839728e+000
2.007582e+003,3.039300e+000
2.008547e+003,4.003760e+000
2.009511e+003,3.348587e+000
2.010475e+003,1.347369e+000
2.011439e+003,1.519897e-001
2.012403e+003,5.096253e-001
2.013368e+003,1.713281e+000
2.014332e+003,3.376767e+000
2.015296e+003,4.566711e+000
2.016260e+003,3.505127e+000
2.017225e+003,1.438193e+000
2.018189e+003,1.514908e+000
2.019153e+003,3.130151e+000
2.020117e+003,3.839417e+000
2.021082e+003,3.515738e+000
2.022046e+003,3.352689e+000
2.023010e+003,3.669611e+000
2.023974e+003,3.529532e+000
2.024938e+003,2.333813e+000
2.025903e+003,1.236755e+000
2.026867e+003,1.481396e+000
2.027831e+003,2.607181e+000
2.028795e+003,3.589005e+000
2.029760e+003,4.462049e+000
2.030724e+003,5.161444e+000
2.031688e+003,5.866107e+000
2.032652e+003,5.355865e+000
2.033617e+003,2.702261e+000
2.034581e+003,9.780976e-001
2.035545e+003,1.479129e+000
2.036509e+003,2.290329e+000
2.037474e+003,2.256061e+000
2.038438e+003,2.008173e+000
2.039402e+003,2.448117e+000
2.040366e+003,3.150323e+000
2.041330e+003,3.053333e+000
2.042295e+003,2.188464e+000
2.043259e+003,1.614706e+000
2.044223e+003,1.321655e+000
2.045187e+003,1.630176e+000
2.046152e+003,3.307840e+000
2.047116e+003,4.587744e+000
2.048080e+003,4.618402e+000
2.049044e+003,4.176257e+000
2.050009e+003,3.824667e+000
2.050973e+003,3.391479e+000
2.051937e+003,2.229779e+000
2.052901e+003,9.074982e-001
2.053865e+003,8.298798e-001
2.054830e+003,2.034213e+000
2.055794e+003,3.030658e+000
2.056758e+003,3.146362e+000
2.057722e+003,3.264886e+000
2.058687e+003,4.273535e+000
2.059651e+003,5.329053e+000
2.060615e+003,5.298157e+000
2.061579e+003,4.978888e+000
2.062544e+003,5.950269e+000
2.063508e+003,7.403479e+000
2.064472e+003,7.010162e+000
2.065436e+003,5.144031e+000
2.066401e+003,4.538379e+000
2.067365e+003,5.795654e+000
2.068329e+003,6.589264e+000
2.069293e+003,5.464007e+000
2.070258e+003,3.794510e+000
2.071222e+003,3.126575e+000
2.072186e+003,3.235611e+000
2.073150e+003,3.853858e+000
2.074115e+003,4.790240e+000
2.075079e+003,5.061139e+000
2.076043e+003,4.729938e+000
2.077007e+003,4.806610e+000
2.077971e+003,5.479773e+000
2.078936e+003,6.641431e+000
2.079900e+003,8.264026e+000
2.080864e+003,8.835627e+000
2.081828e+003,7.155035e+000
2.082792e+003,5.093323e+000
2.083757e+003,5.384802e+000
2.084721e+003,7.108722e+000
2.085685e+003,6.947418e+000
2.086649e+003,4.822614e+000
2.087614e+003,3.396054e+000
2.088578e+003,2.700687e+000
2.089542e+003,2.661499e+000
2.090506e+003,3.465064e+000
2.091471e+003,4.094440e+000
2.092435e+003,4.171679e+000
2.093399e+003,4.225446e+000
2.094363e+003,4.654101e+000
2.095328e+003,5.153174e+000
2.096292e+003,5.198565e+000
2.097256e+003,4.994867e+000
2.098220e+003,5.465118e+000
2.099185e+003,6.790112e+000
2.100149e+003,7.455731e+000
2.101113e+003,6.894641e+000
2.102077e+003,6.624951e+000
2.103042e+003,7.322619e+000
2.104006e+003,7.376349e+000
2.104970e+003,5.304120e+000
2.105934e+003,3.872592e+000
2.106898e+003,5.606433e+000
2.107863e+003,7.786340e+000
2.108827e+003,7.353058e+000
2.109791e+003,5.342871e+000
2.110755e+003,3.946509e+000
2.111719e+003,3.321658e+000
2.112684e+003,3.583344e+000
2.113648e+003,5.389209e+000
2.114612e+003,6.277234e+000
2.115576e+003,4.633832e+000
2.116541e+003,3.485022e+000
2.117505e+003,4.569446e+000
2.118469e+003,5.729321e+000
2.119433e+003,5.496222e+000
2.120398e+003,4.766400e+000
2.121362e+003,4.391647e+000
2.122326e+003,4.298078e+000
2.123290e+003,4.109000e+000
2.124255e+003,3.903006e+000
2.125219e+003,4.292990e+000
2.126183e+003,5.494080e+000
2.127147e+003,6.497705e+000
2.128112e+003,6.843097e+000
2.129076e+003,6.948590e+000
2.130040e+003,6.689087e+000
2.131004e+003,6.625812e+000
2.131969e+003,7.590033e+000
2.132933e+003,8.623114e+000
2.133897e+003,8.583606e+000
2.134861e+003,7.866089e+000
2.135825e+003,7.328418e+000
2.136790e+003,6.962726e+000
2.137754e+003,5.956397e+000
2.138718e+003,4.215781e+000
2.139682e+003,3.452438e+000
2.140646e+003,4.956372e+000
2.141611e+003,6.578570e+000
2.142575e+003,6.281043e+000
2.143539e+003,5.459778e+000
2.144503e+003,5.657019e+000
2.145468e+003,6.198657e+000
2.146432e+003,6.036780e+000
2.147396e+003,5.437274e+000
2.148360e+003,5.011902e+000
2.149325e+003,4.867541e+000
2.150289e+003,4.999274e+000
2.151253e+003,5.313764e+000
2.152217e+003,5.399848e+000
2.153182e+003,5.041632e+000
2.154146e+003,4.750067e+000
2.155110e+003,5.156921e+000
2.156074e+003,5.640180e+000
2.157039e+003,5.233923e+000
2.158003e+003,4.398718e+000
2.158967e+003,3.579431e+000
2.159931e+003,3.184955e+000
2.160896e+003,4.454755e+000
2.161860e+003,6.785864e+000
2.162824e+003,7.919977e+000
2.163788e+003,7.484216e+000
2.164752e+003,7.119751e+000
2.165717e+003,7.580823e+000
2.166681e+003,7.327362e+000
2.167645e+003,4.769452e+000
2.168609e+003,1.961227e+000
2.169573e+003,2.052200e+000
2.170538e+003,3.741733e+000
2.171502e+003,4.784802e+000
2.172466e+003,5.204108e+000
2.173430e+003,5.085315e+000
2.174395e+003,4.560321e+000
2.175359e+003,3.639328e+000
2.176323e+003,2.573666e+000
2.177287e+003,2.582572e+000
2.178252e+003,3.935483e+000
2.179216e+003,4.846857e+000
2.180180e+003,4.037286e+000
2.181144e+003,2.773224e+000
2.182109e+003,2.535877e+000
2.183073e+003,2.879050e+000
2.184037e+003,3.262686e+000
2.185001e+003,3.451587e+000
2.185966e+003,2.512363e+000
2.186930e+003,9.636078e-001
2.187894e+003,3.379761e-001
2.188858e+003,8.101379e-001
2.189823e+003,2.243555e+000
2.190787e+003,4.316611e+000
2.191751e+003,5.849780e+000
2.192715e+003,6.238935e+000
2.193679e+003,5.673877e+000
2.194644e+003,4.161575e+000
2.195608e+003,2.569080e+000
2.196572e+003,2.652405e+000
2.197536e+003,3.539209e+000
2.198500e+003,2.749521e+000
2.199465e+003,1.074127e+000
2.200429e+003,9.108887e-001
2.201393e+003,2.118225e+000
2.202357e+003,3.621170e+000
2.203322e+003,4.996490e+000
2.204286e+003,5.540894e+000
2.205250e+003,5.070178e+000
2.206214e+003,4.294375e+000
2.207179e+003,3.697876e+000
2.208143e+003,3.284164e+000
2.209107e+003,3.023544e+000
2.210071e+003,2.995462e+000
2.211036e+003,3.563010e+000
2.212000e+003,4.365891e+000
2.212964e+003,4.340146e+000
2.213928e+003,3.801245e+000
2.214893e+003,3.976346e+000
2.215857e+003,4.770368e+000
2.216821e+003,4.999927e+000
2.217785e+003,4.498010e+000
2.218750e+003,4.253738e+000
2.219714e+003,4.732077e+000
2.220678e+003,5.649621e+000
2.221642e+003,6.871490e+000
2.222606e+003,7.837420e+000
2.223571e+003,7.526434e+000
2.224535e+003,6.669891e+000
2.225499e+003,6.728455e+000
2.226463e+003,7.185132e+000
2.227427e+003,6.382874e+000
2.228392e+003,5.216638e+000
2.229356e+003,6.752655e+000
2.230320e+003,1.046855e+001
2.231284e+003,1.301512e+001
2.232249e+003,1.347569e+001
2.233213e+003,1.310537e+001
2.234177e+003,1.264556e+001
2.235141e+003,1.269969e+001
2.236106e+003,1.388985e+001
2.237070e+003,1.554399e+001
2.238034e+003,1.697426e+001
2.238998e+003,1.817667e+001
2.239963e+003,1.892267e+001
2.240927e+003,1.966439e+001
2.241891e+003,2.148667e+001
2.242855e+003,2.382725e+001
2.243820e+003,2.519943e+001
2.244784e+003,2.565388e+001
2.245748e+003,2.627899e+001
2.246712e+003,2.736888e+001
2.247677e+003,2.831722e+001
2.248641e+003,2.881321e+001
2.249605e+003,2.956946e+001
2.250569e+003,3.133362e+001
2.251533e+003,3.323024e+001
2.252498e+003,3.497789e+001
2.253462e+003,3.589047e+001
2.254426e+003,3.451189e+001
2.255390e+003,3.245475e+001
2.256354e+003,3.212818e+001
2.257319e+003,3.268716e+001
2.258283e+003,3.214700e+001
2.259247e+003,3.051025e+001
2.260211e+003,2.914352e+001
2.261176e+003,2.830541e+001
2.262140e+003,2.654448e+001
2.263104e+003,2.297253e+001
2.264068e+003,1.931055e+001
2.265033e+003,1.606891e+001
2.265997e+003,1.364645e+001
2.266961e+003,1.252642e+001
2.267925e+003,1.202385e+001
2.268890e+003,1.181002e+001
2.269854e+003,1.174236e+001
2.270818e+003,1.201105e+001
2.271782e+003,1.220176e+001
2.272747e+003,1.160062e+001
2.273711e+003,1.029355e+001
2.274675e+003,8.759229e+000
2.275639e+003,7.081665e+000
2.276604e+003,5.880585e+000
2.277568e+003,5.568396e+000
2.278532e+003,5.215521e+000
2.279496e+003,4.403433e+000
2.280460e+003,3.673154e+000
2.281425e+003,3.275620e+000
2.282389e+003,2.954337e+000
2.283353e+003,2.796356e+000
2.284317e+003,2.511240e+000
2.285281e+003,1.552783e+000
2.286246e+003,4.095642e-001
2.287210e+003,-3.295898e-003
2.288174e+003,1.979980e-001
2.289138e+003,2.012146e-001
2.290103e+003,-9.518127e-002
2.291067e+003,-1.383148e-001
2.292031e+003,6.380463e-001
2.292995e+003,5.527283e-001
2.293960e+003,-1.493893e+000
2.294924e+003,-2.493494e+000
2.295888e+003,-1.153769e+000
2.296852e+003,2.818268e-001
2.297817e+003,8.673340e-001
2.298781e+003,8.901275e-001
2.299745e+003,5.354889e-001
2.300709e+003,-7.417297e-002
2.301674e+003,-8.560821e-001
2.302638e+003,-1.723596e+000
2.303602e+003,-2.091632e+000
2.304566e+003,-1.908594e+000
2.305531e+003,-2.607281e+000
2.306495e+003,-4.403043e+000
2.307459e+003,-4.896564e+000
2.308423e+003,-3.731949e+000
2.309387e+003,-2.696808e+000
2.310352e+003,-2.211997e+000
2.311316e+003,-2.671741e+000
2.312280e+003,-4.332587e+000
2.313244e+003,-5.492502e+000
2.314208e+003,-4.721042e+000
2.315173e+003,-2.964532e+000
2.316137e+003,-1.330682e+000
2.317101e+003,-3.716522e-001
2.318065e+003,-2.459662e+000
2.319030e+003,-6.320322e+000
2.319994e+003,-6.233722e+000
2.320958e+003,-3.289090e+000
2.321922e+003,-2.264813e+000
2.322887e+003,-3.168332e+000
2.323851e+003,-3.610635e+000
2.324815e+003,-3.149112e+000
2.325779e+003,-2.453079e+000
2.326744e+003,-1.910449e+000
2.327708e+003,-2.273026e+000
2.328672e+003,-4.073834e+000
2.329636e+003,-5.632080e+000
2.330601e+003,-4.990888e+000
2.331565e+003,-3.920432e+000
2.332529e+003,-4.774707e+000
2.333493e+003,-5.945059e+000
2.334458e+003,-5.192008e+000
2.335422e+003,-3.820749e+000
2.336386e+003,-3.603757e+000
2.337350e+003,-4.243677e+000
2.338314e+003,-5.174515e+000
2.339279e+003,-6.066556e+000
2.340243e+003,-6.310187e+000
2.341207e+003,-5.919333e+000
2.342171e+003,-6.009042e+000
2.343135e+003,-7.106085e+000
2.344100e+003,-7.797400e+000
2.345064e+003,-7.089880e+000
2.346028e+003,-6.623941e+000
2.346992e+003,-7.508444e+000
2.347957e+003,-7.980557e+000
2.348921e+003,-6.611600e+000
2.349885e+003,-5.160379e+000
2.350849e+003,-5.154447e+000
2.351814e+003,-5.663605e+000
2.352778e+003,-5.320199e+000
2.353742e+003,-4.611859e+000
2.354706e+003,-4.720737e+000
2.355671e+003,-5.597690e+000
2.356635e+003,-7.044662e+000
2.357599e+003,-9.658792e+000
2.358563e+003,-1.021638e+001
2.359528e+003,-7.734122e+000
2.360492e+003,-6.598074e+000
2.361456e+003,-7.728073e+000
2.362420e+003,-8.238391e+000
2.363385e+003,-7.132495e+000
2.364349e+003,-6.076657e+000
2.365313e+003,-5.889761e+000
2.366277e+003,-6.609732e+000
2.367241e+003,-8.405710e+000
2.368206e+003,-1.023220e+001
2.369170e+003,-1.032808e+001
2.370134e+003,-9.261887e+000
2.371098e+003,-8.535681e+000
2.372063e+003,-8.118439e+000
2.373027e+003,-7.846963e+000
2.373991e+003,-7.727020e+000
2.374955e+003,-8.144876e+000
2.375919e+003,-8.846100e+000
2.376884e+003,-8.667639e+000
2.377848e+003,-7.617209e+000
2.378812e+003,-6.680554e+000
2.379776e+003,-6.248355e+000
2.380741e+003,-6.345230e+000
2.381705e+003,-7.001532e+000
2.382669e+003,-7.554657e+000
2.383633e+003,-7.595315e+000
2.384598e+003,-7.191974e+000
2.385562e+003,-5.867475e+000
2.386526e+003,-4.826416e+000
2.387490e+003,-5.250970e+000
2.388455e+003,-6.149298e+000
2.389419e+003,-6.787820e+000
2.390383e+003,-7.088357e+000
2.391347e+003,-6.775513e+000
2.392312e+003,-6.294324e+000
2.393276e+003,-6.785739e+000
2.394240e+003,-8.136292e+000
2.395204e+003,-8.651596e+000
2.396168e+003,-7.942444e+000
2.397133e+003,-7.249576e+000
2.398097e+003,-6.697714e+000
2.399061e+003,-6.054135e+000
2.400025e+003,-5.011859e+000
2.400990e+003,-4.569113e+000
2.401954e+003,-5.254700e+000
2.402918e+003,-5.840845e+000
2.403882e+003,-5.829437e+000
2.404846e+003,-5.202048e+000
2.405811e+003,-3.723670e+000
2.406775e+003,-2.481302e+000
2.407739e+003,-3.171561e+000
2.408703e+003,-4.932635e+000
2.409668e+003,-5.225263e+000
2.410632e+003,-4.456546e+000
2.411596e+003,-5.125913e+000
2.412560e+003,-6.725931e+000
2.413525e+003,-6.664484e+000
2.414489e+003,-5.290366e+000
2.415453e+003,-4.762396e+000
2.416417e+003,-5.190579e+000
2.417382e+003,-5.403351e+000
2.418346e+003,-5.200498e+000
2.419310e+003,-5.586902e+000
2.420274e+003,-6.929187e+000
2.421239e+003,-7.699799e+000
2.422203e+003,-6.736682e+000
2.423167e+003,-5.604462e+000
2.424131e+003,-5.618271e+000
2.425095e+003,-5.562494e+000
2.426060e+003,-4.302045e+000
2.427024e+003,-3.063712e+000
2.427988e+003,-2.708395e+000
2.428952e+003,-2.916858e+000
2.429917e+003,-3.629904e+000
2.430881e+003,-4.422223e+000
2.431845e+003,-4.663281e+000
2.432809e+003,-4.524570e+000
2.433773e+003,-4.681906e+000
2.434738e+003,-5.129492e+000
2.435702e+003,-5.335928e+000
2.436666e+003,-5.368402e+000
2.437630e+003,-4.804040e+000
2.438595e+003,-3.415183e+000
2.439559e+003,-2.621726e+000
2.440523e+003,-2.723892e+000
2.441487e+003,-2.096054e+000
2.442452e+003,-2.157562e-001
2.443416e+003,9.975464e-001
2.444380e+003,5.703735e-001
2.445344e+003,-4.293152e-001
2.446309e+003,-1.144284e+000
2.447273e+003,-1.442682e+000
2.448237e+003,-1.290469e+000
2.449201e+003,-3.701660e-001
2.450166e+003,3.207730e+000
2.451130e+003,6.839728e+000
2.452094e+003,5.433374e+000
2.453058e+003,1.757309e+000
2.454022e+003,5.075989e-002
2.454987e+003,-3.127777e-001
2.455951e+003,-1.270694e+000
2.456915e+003,-2.623199e+000
2.457879e+003,-3.084930e+000
2.458844e+003,-2.556537e+000
2.459808e+003,-1.986325e+000
2.460772e+003,-1.624301e+000
2.461736e+003,-1.068628e+000
2.462700e+003,-3.355103e-001
2.463665e+003,6.876923e-001
2.464629e+003,3.265296e+000
2.465593e+003,4.072348e+000
2.466557e+003,1.278082e+000
2.467522e+003,-9.273865e-001
2.468486e+003,-6.449463e-001
2.469450e+003,1.474396e-001
2.470414e+003,8.801880e-002
2.471379e+003,-1.614594e-001
2.472343e+003,1.765289e-001
2.473307e+003,7.447510e-001
2.474271e+003,7.659851e-001
2.475236e+003,5.155914e-001
2.476200e+003,1.050687e+000
2.477164e+003,2.010959e+000
2.478128e+003,2.432089e+000
2.479093e+003,2.310196e+000
2.480057e+003,1.302155e+000
2.481021e+003,-7.946777e-003
2.481985e+003,-6.048584e-003
2.482949e+003,1.228567e+000
2.483914e+003,2.377029e+000
2.484878e+003,3.021683e+000
2.485842e+003,3.362705e+000
2.486806e+003,3.506146e+000
2.487771e+003,3.222821e+000
2.488735e+003,2.125919e+000
2.489699e+003,1.092099e+000
2.490663e+003,-6.373321e-001
2.491627e+003,-8.615448e-001
2.492592e+003,2.612872e+000
2.493556e+003,5.650528e+000
2.494520e+003,6.222900e+000
2.495484e+003,5.750205e+000
2.496449e+003,5.128195e+000
2.497413e+003,4.704211e+000
2.498377e+003,5.044187e+000
2.499341e+003,5.912851e+000
2.500306e+003,6.951621e+000
2.501270e+003,7.846148e+000
2.502234e+003,6.352005e+000
2.503198e+003,3.535770e+000
2.504163e+003,3.585455e+000
2.505127e+003,5.643069e+000
2.506091e+003,6.592486e+000
2.507055e+003,6.445047e+000
2.508020e+003,6.843179e+000
2.508984e+003,7.842285e+000
2.509948e+003,7.944074e+000
2.510912e+003,6.789755e+000
2.511876e+003,6.005816e+000
2.512841e+003,6.199823e+000
2.513805e+003,6.872592e+000
2.514769e+003,8.613104e+000
2.515733e+003,9.579193e+000
2.516698e+003,8.305628e+000
2.517662e+003,7.642261e+000
2.518626e+003,8.787274e+000
2.519590e+003,1.031300e+001
2.520554e+003,1.157438e+001
2.521519e+003,1.269897e+001
2.522483e+003,1.387440e+001
2.523447e+003,1.458838e+001
2.524411e+003,1.400361e+001
2.525376e+003,1.291760e+001
2.526340e+003,1.329921e+001
2.527304e+003,1.467756e+001
2.528268e+003,1.580438e+001
2.529233e+003,1.669843e+001
2.530197e+003,1.724647e+001
2.531161e+003,1.764415e+001
2.532125e+003,1.818035e+001
2.533090e+003,1.892803e+001
2.534054e+003,2.009783e+001
2.535018e+003,2.158261e+001
2.535982e+003,2.299932e+001
2.536947e+003,2.420931e+001
2.537911e+003,2.445766e+001
2.538875e+003,2.254567e+001
2.539839e+003,2.269901e+001
2.540803e+003,2.784817e+001
2.541768e+003,3.083042e+001
2.542732e+003,3.027670e+001
2.543696e+003,2.926674e+001
2.544660e+003,2.848599e+001
2.545625e+003,2.816187e+001
2.546589e+003,2.843381e+001
2.547553e+003,2.870582e+001
2.548517e+003,2.847557e+001
2.549482e+003,2.841971e+001
2.550446e+003,2.947852e+001
2.551410e+003,3.070065e+001
2.552374e+003,3.030285e+001
2.553339e+003,2.936398e+001
2.554303e+003,2.986767e+001
2.555267e+003,3.048585e+001
2.556231e+003,2.899528e+001
2.557196e+003,2.690515e+001
2.558160e+003,2.660779e+001
2.559124e+003,2.711710e+001
2.560088e+003,2.635602e+001
2.561052e+003,2.463668e+001
2.562017e+003,2.343119e+001
2.562981e+003,2.280538e+001
2.563945e+003,2.282802e+001
2.564909e+003,2.388474e+001
2.565874e+003,2.315660e+001
2.566838e+003,2.028299e+001
2.567802e+003,1.894360e+001
2.568766e+003,1.946251e+001
2.569730e+003,1.942083e+001
2.570695e+003,1.834945e+001
2.571659e+003,1.706932e+001
2.572623e+003,1.591095e+001
2.573587e+003,1.494929e+001
2.574552e+003,1.427118e+001
2.575516e+003,1.402234e+001
2.576480e+003,1.453118e+001
2.577444e+003,1.469952e+001
2.578409e+003,1.319795e+001
2.579373e+003,1.175149e+001
2.580337e+003,1.158322e+001
2.581301e+003,1.153211e+001
2.582266e+003,1.082117e+001
2.583230e+003,1.019102e+001
2.584194e+003,1.026726e+001
2.585158e+003,1.034424e+001
2.586123e+003,9.715052e+000
2.587087e+003,8.802490e+000
2.588051e+003,8.291534e+000
2.589015e+003,8.049982e+000
2.589979e+003,7.649030e+000
2.590944e+003,7.145642e+000
2.591908e+003,6.987936e+000
2.592872e+003,6.828848e+000
2.593836e+003,5.290875e+000
2.594801e+003,3.330261e+000
2.595765e+003,3.662350e+000
2.596729e+003,5.197177e+000
2.597693e+003,4.310636e+000
2.598657e+003,1.426859e+000
2.599622e+003,4.896668e-001
2.600586e+003,2.172763e+000
2.601550e+003,2.954184e+000
2.602514e+003,1.748343e+000
2.603479e+003,1.316989e+000
2.604443e+003,2.117013e+000
2.605407e+003,2.243503e+000
2.606371e+003,1.429266e+000
2.607336e+003,9.386963e-001
2.608300e+003,1.057056e+000
2.609264e+003,6.098053e-001
2.610228e+003,-7.588684e-001
2.611193e+003,-1.257651e+000
2.612157e+003,1.148407e-001
2.613121e+003,1.609241e+000
2.614085e+003,1.882074e+000
2.615050e+003,1.686359e+000
2.616014e+003,1.253455e+000
2.616978e+003,1.096014e+000
2.617942e+003,2.354752e+000
2.618906e+003,3.024701e+000
2.619871e+003,1.354657e+000
2.620835e+003,-8.041290e-001
2.621799e+003,-2.608960e+000
2.622763e+003,-3.574164e+000
2.623728e+003,-3.107459e+000
2.624692e+003,-1.721341e+000
2.625656e+003,-1.150391e-001
2.626620e+003,1.409830e+000
2.627584e+003,2.095004e+000
2.628549e+003,2.008188e+000
2.629513e+003,9.281891e-001
2.630477e+003,-4.618134e-001
2.631441e+003,-5.019196e-001
2.632406e+003,1.985657e-001
2.633370e+003,6.111420e-001
2.634334e+003,5.885193e-001
2.635298e+003,-1.353516e-001
2.636263e+003,-1.237222e+000
2.637227e+003,-1.599496e+000
2.638191e+003,-1.134625e+000
2.639155e+003,-1.241510e+000
2.640120e+003,-2.195480e+000
2.641084e+003,-2.137564e+000
2.642048e+003,-9.213379e-001
2.643012e+003,2.288055e-001
2.643977e+003,1.276260e+000
2.644941e+003,1.353897e+000
2.645905e+003,4.011413e-001
2.646869e+003,-1.232843e+000
2.647833e+003,-3.089499e+000
2.648798e+003,-3.258298e+000
2.649762e+003,-1.140970e+000
2.650726e+003,1.148560e+000
2.651690e+003,2.792059e+000
2.652655e+003,2.927341e+000
2.653619e+003,-5.608856e-001
2.654583e+003,-2.765952e+000
2.655547e+003,-1.340530e+000
2.656511e+003,9.202576e-002
2.657476e+003,7.343872e-001
2.658440e+003,8.507477e-001
2.659404e+003,5.965729e-001
2.660368e+003,-5.890656e-001
2.661333e+003,-3.161847e+000
2.662297e+003,-5.006195e+000
2.663261e+003,-4.001801e+000
2.664225e+003,-1.913623e+000
2.665190e+003,-4.741852e-001
2.666154e+003,7.268371e-002
2.667118e+003,-1.650122e+000
2.668082e+003,-3.051578e+000
2.669047e+003,-5.778076e-001
2.670011e+003,1.956958e+000
2.670975e+003,2.983765e-001
2.671939e+003,-2.505826e+000
2.672904e+003,-2.908258e+000
2.673868e+003,-2.177685e+000
2.674832e+003,-2.079278e+000
2.675796e+003,-2.396493e+000
2.676760e+003,-2.629388e+000
2.677725e+003,-2.715723e+000
2.678689e+003,-2.185663e+000
2.679653e+003,-1.321991e+000
2.680617e+003,-1.178363e+000
2.681582e+003,-1.295877e+000
2.682546e+003,-3.716614e-001
2.683510e+003,9.843109e-001
2.684474e+003,1.522247e+000
2.685438e+003,1.177280e+000
2.686403e+003,1.152740e-001
2.687367e+003,-1.447186e+000
2.688331e+003,-2.665134e+000
2.689295e+003,-3.500577e+000
2.690260e+003,-2.761066e+000
2.691224e+003,-6.803284e-002
2.692188e+003,3.159546e-001
2.693152e+003,-1.538355e+000
2.694117e+003,-1.905750e+000
2.695081e+003,-7.613983e-001
2.696045e+003,-4.308685e-001
2.697009e+003,-1.122375e+000
2.697974e+003,-1.534659e+000
2.698938e+003,-1.372125e+000
2.699902e+003,-1.387299e+000
2.700866e+003,-1.863986e+000
2.701831e+003,-1.747937e+000
2.702795e+003,-1.471832e-001
2.703759e+003,7.067536e-001
2.704723e+003,3.855774e-001
2.705688e+003,4.219360e-001
2.706652e+003,1.113940e+000
2.707616e+003,1.045612e+000
2.708580e+003,-1.017975e-001
2.709544e+003,-1.381271e+000
2.710509e+003,-2.354776e+000
2.711473e+003,-2.881027e+000
2.712437e+003,-2.900082e+000
2.713401e+003,-2.520792e+000
2.714365e+003,-1.772055e+000
2.715330e+003,-6.698364e-001
2.716294e+003,1.975110e+000
2.717258e+003,3.116983e+000
2.718222e+003,4.495544e-001
2.719187e+003,-2.176846e+000
2.720151e+003,-4.139188e+000
2.721115e+003,-4.131516e+000
2.722079e+003,-1.257397e+000
2.723044e+003,1.510959e+000
2.724008e+003,1.950296e+000
2.724972e+003,1.355716e+000
2.725936e+003,9.313202e-001
2.726901e+003,6.619415e-001
2.727865e+003,1.160974e+000
2.728829e+003,9.890259e-001
2.729793e+003,-2.266965e+000
2.730758e+003,-5.080154e+000
2.731722e+003,-4.375198e+000
2.732686e+003,-3.083844e+000
2.733650e+003,-3.588345e+000
2.734615e+003,-3.857715e+000
2.735579e+003,-1.969742e+000
2.736543e+003,2.881836e-001
2.737507e+003,5.071930e-001
2.738471e+003,-4.398743e-001
2.739436e+003,-1.258145e+000
2.740400e+003,-1.802832e+000
2.741364e+003,-1.499503e+000
2.742328e+003,-1.104324e+000
2.743292e+003,-1.992944e+000
2.744257e+003,-2.788092e+000
2.745221e+003,-1.701651e+000
2.746185e+003,1.652039e-001
2.747149e+003,1.779804e+000
2.748114e+003,2.607141e+000
2.749078e+003,1.643335e+000
2.750042e+003,-1.850006e-001
2.751006e+003,-4.601929e-001
2.751971e+003,4.205810e-001
2.752935e+003,1.378979e+000
2.753899e+003,2.266544e+000
2.754863e+003,2.901651e+000
2.755828e+003,3.132394e+000
2.756792e+003,2.530725e+000
2.757756e+003,1.507861e+000
2.758720e+003,5.911102e-001
2.759685e+003,-1.609192e-001
2.760649e+003,-7.827698e-001
2.761613e+003,-1.264304e+000
2.762577e+003,-1.759171e+000
2.763542e+003,-2.072879e+000
2.764506e+003,2.246155e-001
2.765470e+003,4.149259e+000
2.766434e+003,3.741779e+000
2.767398e+003,7.777771e-001
2.768363e+003,1.411682e-001
2.769327e+003,9.969910e-001
2.770291e+003,6.778992e-001
2.771255e+003,-4.971954e-001
2.772219e+003,-1.029608e+000
2.773184e+003,-8.330017e-001
2.774148e+003,-4.026977e-001
2.775112e+003,1.922791e-001
2.776076e+003,3.972321e-001
2.777041e+003,2.126709e-001
2.778005e+003,8.224274e-001
2.778969e+003,1.840558e+000
2.779933e+003,6.170319e-001
2.780898e+003,-1.904755e+000
2.781862e+003,-2.531201e+000
2.782826e+003,-1.424527e+000
2.783790e+003,-1.288452e-002
2.784755e+003,1.218213e+000
2.785719e+003,1.679404e+000
2.786683e+003,1.295017e+000
2.787647e+003,9.923004e-001
2.788612e+003,8.189911e-001
2.789576e+003,-1.122345e-001
2.790540e+003,-1.717047e+000
2.791504e+003,-1.616568e+000
2.792469e+003,-1.873840e-001
2.793433e+003,-1.630066e-001
2.794397e+003,-1.271494e+000
2.795361e+003,-1.156030e+000
2.796325e+003,1.696716e-001
2.797290e+003,9.255432e-001
2.798254e+003,7.721497e-001
2.799218e+003,1.889038e-002
2.800182e+003,-1.512222e+000
2.801146e+003,-2.261841e+000
2.802111e+003,-2.263110e+000
2.803075e+003,1.122131e-001
2.804039e+003,4.422858e+000
2.805003e+003,6.356515e+000
2.805968e+003,5.759723e+000
2.806932e+003,4.591952e+000
2.807896e+003,3.437869e+000
2.808860e+003,1.798840e+000
2.809825e+003,-1.715942e-001
2.810789e+003,-2.665680e-001
2.811753e+003,2.438870e+000
2.812717e+003,3.230145e+000
2.813682e+003,1.388718e+000
2.814646e+003,1.508267e+000
2.815610e+003,3.606848e+000
2.816574e+003,4.058053e+000
2.817539e+003,2.882794e+000
2.818503e+003,2.531647e+000
2.819467e+003,2.980392e+000
2.820431e+003,2.080194e+000
2.821396e+003,-2.131104e-001
2.822360e+003,-1.361624e+000
2.823324e+003,-7.143372e-001
2.824288e+003,-1.138885e-001
2.825252e+003,3.280396e-001
2.826217e+003,5.144501e-001
2.827181e+003,4.456146e-001
2.828145e+003,1.193695e+000
2.829109e+003,2.606570e+000
2.830073e+003,3.497577e+000
2.831038e+003,3.734473e+000
2.832002e+003,3.592157e+000
2.832966e+003,3.258026e+000
2.833930e+003,3.169302e+000
2.834895e+003,3.409927e+000
2.835859e+003,2.971063e+000
2.836823e+003,1.397354e+000
2.837787e+003,1.518243e+000
2.838752e+003,3.509070e+000
2.839716e+003,3.979715e+000
2.840680e+003,2.949472e+000
2.841644e+003,1.814355e+000
2.842609e+003,1.001492e+000
2.843573e+003,1.400787e+000
2.844537e+003,2.635876e+000
2.845501e+003,2.762738e+000
2.846466e+003,1.446316e+000
2.847430e+003,2.332672e-001
2.848394e+003,-7.335907e-001
2.849358e+003,-1.476849e+000
2.850323e+003,-2.035058e+000
2.851287e+003,-7.097229e-001
2.852251e+003,1.937647e+000
2.853215e+003,1.642123e+000
2.854179e+003,-7.427521e-001
2.855144e+003,-7.542785e-001
2.856108e+003,1.261456e+000
2.857072e+003,1.480560e+000
2.858036e+003,-3.194489e-001
2.859000e+003,-5.055389e-001
2.859965e+003,1.162738e+000
2.860929e+003,1.840289e+000
2.861893e+003,1.460315e+000
2.862857e+003,1.679489e+000
2.863822e+003,2.324808e+000
2.864786e+003,2.045184e+000
2.865750e+003,1.147131e+000
2.866714e+003,7.541107e-001
2.867679e+003,7.863312e-001
2.868643e+003,5.954193e-001
2.869607e+003,2.681274e-001
2.870571e+003,4.815949e-001
2.871536e+003,1.199149e+000
2.872500e+003,2.176517e+000
2.873464e+003,3.307608e+000
2.874428e+003,2.585678e+000
2.875393e+003,6.831878e-001
2.876357e+003,-3.928986e-001
2.877321e+003,-5.551697e-001
2.878285e+003,4.530701e-001
2.879250e+003,1.850116e+000
2.880214e+003,2.245322e+000
2.881178e+003,1.790457e+000
2.882142e+003,1.451892e+000
2.883106e+003,1.104501e+000
2.884071e+003,-1.040649e-001
2.885035e+003,-1.750568e+000
2.885999e+003,-1.426630e+000
2.886963e+003,2.390472e-001
2.887927e+003,2.513818e+000
2.888892e+003,4.469018e+000
2.889856e+003,4.424057e+000
2.890820e+003,3.401047e+000
2.891784e+003,2.999027e+000
2.892749e+003,2.897977e+000
2.893713e+003,2.381647e+000
2.894677e+003,1.669141e+000
2.895641e+003,1.205862e+000
2.896606e+003,9.547882e-001
2.897570e+003,8.023682e-001
2.898534e+003,8.601990e-001
2.899498e+003,1.736877e+000
2.900463e+003,2.434430e+000
2.901427e+003,1.351151e+000
2.902391e+003,-1.336975e-002
2.903355e+003,1.793823e-002
2.904320e+003,6.133240e-001
2.905284e+003,1.013385e+000
2.906248e+003,1.063431e+000
2.907212e+003,4.493225e-001
2.908177e+003,-1.834808e-001
2.909141e+003,4.017364e-001
2.910105e+003,1.263239e+000
2.911069e+003,1.589535e+000
2.912033e+003,1.495535e+000
2.912998e+003,4.458252e-001
2.913962e+003,3.140564e-002
2.914926e+003,1.463287e+000
2.915890e+003,2.738107e+000
2.916854e+003,2.358008e+000
2.917819e+003,1.853265e+000
2.918783e+003,2.855835e+000
2.919747e+003,3.768912e+000
2.920711e+003,2.862976e+000
2.921676e+003,1.336505e+000
2.922640e+003,-1.151279e+000
2.923604e+003,-2.277289e+000
2.924568e+003,-4.069366e-001
2.925533e+003,1.091571e+000
2.926497e+003,9.658905e-001
2.927461e+003,9.607788e-001
2.928425e+003,2.085995e+000
2.929390e+003,-5.871674e-001
2.930354e+003,-1.169199e+001
2.931318e+003,-1.808427e+001
2.932282e+003,-6.357043e+000
2.933247e+003,2.278418e+000
2.934211e+003,7.794647e-001
2.935175e+003,-1.623016e-001
2.936139e+003,1.426483e-001
2.937104e+003,6.813415e-001
2.938068e+003,1.241797e+000
2.939032e+003,1.407016e+000
2.939996e+003,1.067612e+000
2.940960e+003,4.320587e-001
2.941925e+003,-4.041534e-001
2.942889e+003,-5.660126e-001
2.943853e+003,5.064636e-001
2.944817e+003,1.602484e+000
2.945781e+003,2.835931e+000
2.946746e+003,2.994446e+000
2.947710e+003,2.113300e+000
2.948674e+003,1.937540e+000
2.949638e+003,2.376712e+000
2.950603e+003,1.690042e+000
2.951567e+003,1.489960e-001
2.952531e+003,1.693115e-002
2.953495e+003,1.561533e+000
2.954460e+003,2.952094e+000
2.955424e+003,4.120160e+000
2.956388e+003,3.584103e+000
2.957352e+003,1.558844e+000
2.958317e+003,-9.024048e-002
2.959281e+003,-1.025540e+000
2.960245e+003,2.650757e-002
2.961209e+003,1.892810e+000
2.962174e+003,2.243381e+000
2.963138e+003,1.511288e+000
2.964102e+003,1.002286e+000
2.965066e+003,9.342834e-001
2.966031e+003,1.761972e+000
2.966995e+003,3.107837e+000
2.967959e+003,4.181131e+000
2.968923e+003,4.467069e+000
2.969887e+003,1.826624e+000
2.970852e+003,-1.104492e+000
2.971816e+003,-1.145334e+000
2.972780e+003,3.124146e-001
2.973744e+003,2.803391e+000
2.974708e+003,4.264533e+000
2.975673e+003,2.800790e+000
2.976637e+003,3.217193e-001
2.977601e+003,-1.080402e+000
2.978565e+003,-1.456586e+000
2.979530e+003,-2.393829e-001
2.980494e+003,1.122665e+000
2.981458e+003,1.570438e+000
2.982422e+003,1.631763e+000
2.983387e+003,1.237726e+000
2.984351e+003,1.224438e+000
2.985315e+003,2.052341e+000
2.986279e+003,1.839551e+000
2.987244e+003,-2.894989e-001
2.988208e+003,-1.454230e+000
2.989172e+003,2.377045e-001
2.990136e+003,1.692606e+000
2.991101e+003,5.138702e-001
2.992065e+003,2.115356e-001
2.993029e+003,1.963129e+000
2.993993e+003,3.222156e+000
2.994958e+003,3.697968e+000
2.995922e+003,3.628564e+000
2.996886e+003,3.193475e+000
2.997850e+003,3.034311e+000
2.998814e+003,3.163001e+000
2.999779e+003,2.518271e+000
3.000743e+003,8.372772e-001
3.001707e+003,6.157593e-001
3.002671e+003,2.312131e+000
3.003635e+003,3.047492e+000
3.004600e+003,2.861981e+000
3.005564e+003,2.568835e+000
3.006528e+003,2.235172e+000
3.007492e+003,1.658194e+000
3.008457e+003,1.217752e+000
3.009421e+003,1.907211e+000
3.010385e+003,3.301004e+000
3.011349e+003,4.411645e+000
3.012314e+003,4.839035e+000
3.013278e+003,3.204758e+000
3.014242e+003,5.094879e-001
3.015206e+003,1.218018e-001
3.016171e+003,9.485871e-001
3.017135e+003,1.945630e+000
3.018099e+003,2.221606e+000
3.019063e+003,-1.568359e-001
3.020028e+003,-2.313910e+000
3.020992e+003,-1.694580e+000
3.021956e+003,-5.710419e-001
3.022920e+003,-9.287140e-001
3.023885e+003,-1.663260e+000
3.024849e+003,-1.573758e+000
3.025813e+003,-1.142850e+000
3.026777e+003,-3.962616e-001
3.027741e+003,-1.457581e-001
3.028706e+003,-1.689969e+000
3.029670e+003,-2.023657e+000
3.030634e+003,-3.305359e-002
3.031598e+003,5.458527e-001
3.032563e+003,-1.358054e+000
3.033527e+003,-1.976617e+000
3.034491e+003,1.737335e-001
3.035455e+003,2.369971e+000
3.036420e+003,3.594543e+000
3.037384e+003,3.471176e+000
3.038348e+003,1.174606e+000
3.039312e+003,-3.216858e-002
3.040277e+003,-7.575379e-002
3.041241e+003,7.588196e-001
3.042205e+003,2.001401e+000
3.043169e+003,2.093527e+000
3.044134e+003,1.133249e+000
3.045098e+003,-1.443359e-001
3.046062e+003,-1.369998e+000
3.047026e+003,-1.636267e+000
3.047990e+003,-1.161679e+000
3.048955e+003,-1.423410e+000
3.049919e+003,-2.032480e+000
3.050883e+003,-8.825073e-001
3.051847e+003,8.039185e-001
3.052812e+003,7.756928e-001
3.053776e+003,2.277191e-001
3.054740e+003,6.494354e-001
3.055704e+003,1.419968e+000
3.056668e+003,1.995178e+000
3.057633e+003,2.444070e+000
3.058597e+003,2.855847e+000
3.059561e+003,2.905472e+000
3.060525e+003,1.989249e+000
3.061490e+003,8.384918e-001
3.062454e+003,-5.728180e-001
3.063418e+003,-9.508392e-001
3.064382e+003,9.173614e-001
3.065347e+003,1.499912e+000
3.066311e+003,-1.854340e-001
3.067275e+003,-1.388358e+000
3.068239e+003,-1.091678e+000
3.069204e+003,-5.790070e-001
3.070168e+003,-4.573731e-001
3.071132e+003,-7.681732e-001
3.072096e+003,-1.979871e+000
3.073061e+003,-1.949356e+000
3.074025e+003,-4.999267e-001
3.074989e+003,4.616058e-001
3.075953e+003,8.594177e-001
3.076917e+003,1.193475e+000
3.077882e+003,1.381989e+000
3.078846e+003,8.056610e-001
3.079810e+003,-1.260834e-001
3.080774e+003,-8.906555e-002
3.081739e+003,6.770355e-001
3.082703e+003,1.556345e+000
3.083667e+003,2.240979e+000
3.084631e+003,1.193185e+000
3.085595e+003,-1.539825e-001
3.086560e+003,1.022879e+000
3.087524e+003,2.576596e+000
3.088488e+003,2.236624e+000
3.089452e+003,1.237500e+000
3.090417e+003,3.236938e-001
3.091381e+003,-2.553039e-001
3.092345e+003,-2.985992e-001
3.093309e+003,-1.477966e-001
3.094274e+003,-8.213806e-002
3.095238e+003,-7.765808e-002
3.096202e+003,-1.739563e-001
3.097166e+003,-1.297028e-001
3.098131e+003,1.426941e-001
3.099095e+003,3.355377e-001
3.100059e+003,3.601898e-001
3.101023e+003,-4.081482e-001
3.101988e+003,-1.722501e+000
3.102952e+003,-1.452371e+000
3.103916e+003,6.173309e-001
3.104880e+003,7.516602e-001
3.105844e+003,-1.504837e+000
3.106809e+003,-2.329443e+000
3.107773e+003,-1.908285e+000
3.108737e+003,-2.803626e+000
3.109701e+003,-4.131613e+000
3.110666e+003,-3.377628e+000
3.111630e+003,-1.540918e+000
3.112594e+003,-1.951996e-001
3.113558e+003,6.475433e-001
3.114522e+003,1.243179e+000
3.115487e+003,1.433142e+000
3.116451e+003,9.176544e-001
3.117415e+003,3.069611e-001
3.118379e+003,9.395996e-001
3.119344e+003,1.206293e+000
3.120308e+003,-8.320495e-001
3.121272e+003,-2.580100e+000
3.122236e+003,-3.181119e+000
3.123201e+003,-2.993869e+000
3.124165e+003,-2.156394e+000
3.125129e+003,-1.147565e+000
3.126093e+003,-2.709503e-001
3.127058e+003,-3.012695e-001
3.128022e+003,-1.777032e+000
3.128986e+003,-1.876041e+000
3.129950e+003,5.806000e-001
3.130915e+003,5.623779e-001
3.131879e+003,-1.624976e+000
3.132843e+003,-2.865103e+000
3.133807e+003,-3.124698e+000
3.134771e+003,-3.355515e+000
3.135736e+003,-3.108298e+000
3.136700e+003,2.411011e-001
3.137664e+003,3.778629e+000
3.138628e+003,1.513211e+000
3.139593e+003,-3.404074e+000
3.140557e+003,-3.819635e+000
3.141521e+003,-2.077045e+000
3.142485e+003,-1.296997e+000
3.143449e+003,-5.912079e-001
3.144414e+003,1.900845e+000
3.145378e+003,2.225488e+000
3.146342e+003,-1.794763e+000
3.147306e+003,-4.190692e+000
3.148271e+003,-2.234177e+000
3.149235e+003,1.939087e-001
3.150199e+003,9.833161e-001
3.151163e+003,3.391266e-001
3.152128e+003,-2.661740e+000
3.153092e+003,-4.420032e+000
3.154056e+003,-4.827271e+000
3.155020e+003,-3.893890e+000
3.155985e+003,-2.112274e+000
3.156949e+003,-1.214246e+000
3.157913e+003,-1.378332e+000
3.158877e+003,-2.986868e+000
3.159842e+003,-5.077624e+000
3.160806e+003,-5.111948e+000
3.161770e+003,-3.830417e+000
3.162734e+003,-3.073184e+000
3.163698e+003,-2.792709e+000
3.164663e+003,-3.221411e+000
3.165627e+003,-3.705273e+000
3.166591e+003,-3.774103e+000
3.167555e+003,-3.175915e+000
3.168520e+003,-1.461649e+000
3.169484e+003,-5.735260e-001
3.170448e+003,-1.408520e+000
3.171412e+003,-2.055450e+000
3.172376e+003,-1.398434e+000
3.173341e+003,-6.369873e-001
3.174305e+003,-2.047638e-001
3.175269e+003,-3.956909e-001
3.176233e+003,-1.320001e+000
3.177198e+003,-2.072159e+000
3.178162e+003,-2.609195e+000
3.179126e+003,-2.908276e+000
3.180090e+003,-3.074332e+000
3.181055e+003,-3.727106e+000
3.182019e+003,-4.317798e+000
3.182983e+003,-2.977676e+000
3.183947e+003,-8.163910e-001
3.184912e+003,-5.720062e-001
3.185876e+003,-1.285654e+000
3.186840e+003,-5.416931e-001
3.187804e+003,7.756958e-002
3.188769e+003,-1.582938e+000
3.189733e+003,-3.291358e+000
3.190697e+003,-3.882962e+000
3.191661e+003,-4.129480e+000
3.192625e+003,-4.344247e+000
3.193590e+003,-3.760230e+000
3.194554e+003,-2.055234e+000
3.195518e+003,-1.412375e+000
3.196482e+003,-3.487399e+000
3.197447e+003,-3.853528e+000
3.198411e+003,-1.919684e+000
3.199375e+003,-1.288727e-001
3.200339e+003,1.225909e+000
3.201303e+003,9.190124e-001
3.202268e+003,-3.673370e-001
3.203232e+003,-9.539612e-001
3.204196e+003,-1.105127e+000
3.205160e+003,-2.055240e+000
3.206125e+003,-2.910107e+000
3.207089e+003,-1.760846e+000
3.208053e+003,-1.366211e-001
3.209017e+003,-1.169742e+000
3.209982e+003,-2.344006e+000
3.210946e+003,-1.334460e+000
3.211910e+003,-6.827698e-002
3.212874e+003,9.090821e-001
3.213839e+003,1.058926e+000
3.214803e+003,2.269989e-001
3.215767e+003,-1.372775e+000
3.216731e+003,-3.466937e+000
3.217696e+003,-4.503371e+000
3.218660e+003,-3.773589e+000
3.219624e+003,-3.382486e+000
3.220588e+003,-3.353192e+000
3.221552e+003,-2.690552e+000
3.222517e+003,-1.842706e+000
3.223481e+003,-2.482498e+000
3.224445e+003,-3.772025e+000
3.225409e+003,-4.345149e+000
3.226374e+003,-4.100618e+000
3.227338e+003,-3.010809e+000
3.228302e+003,-1.783023e+000
3.229266e+003,-1.254105e+000
3.230230e+003,-1.136337e+000
3.231195e+003,-1.056506e+000
3.232159e+003,-1.331250e+000
3.233123e+003,-2.661499e+000
3.234087e+003,-3.184393e+000
3.235052e+003,-2.617508e+000
3.236016e+003,-1.029010e+000
3.236980e+003,1.089706e+000
3.237944e+003,1.498480e+000
3.238909e+003,2.203064e-002
3.239873e+003,-2.556732e-001
3.240837e+003,5.947968e-001
3.241801e+003,-1.958038e-001
3.242766e+003,-2.126239e+000
3.243730e+003,-3.615083e+000
3.244694e+003,-4.360898e+000
3.245658e+003,-3.348439e+000
3.246623e+003,-2.199100e+000
3.247587e+003,-2.259830e+000
3.248551e+003,-2.752280e+000
3.249515e+003,-3.207076e+000
3.250479e+003,-3.031332e+000
3.251444e+003,-1.620010e+000
3.252408e+003,-7.895416e-001
3.253372e+003,-1.883398e+000
3.254336e+003,-3.176227e+000
3.255301e+003,-4.657256e+000
3.256265e+003,-4.160881e+000
3.257229e+003,-2.214636e+000
3.258193e+003,-1.782227e+000
3.259157e+003,-2.654231e+000
3.260122e+003,-3.116231e+000
3.261086e+003,-3.170946e+000
3.262050e+003,-3.354805e+000
3.263014e+003,-3.439864e+000
3.263979e+003,-2.617023e+000
3.264943e+003,-1.751300e+000
3.265907e+003,-1.976912e+000
3.266871e+003,-2.475313e+000
3.267836e+003,-3.100171e+000
3.268800e+003,-3.012106e+000
3.269764e+003,-1.974168e+000
3.270728e+003,-1.501920e+000
3.271693e+003,-2.084979e+000
3.272657e+003,-2.822777e+000
3.273621e+003,-3.430737e+000
3.274585e+003,-2.980222e+000
3.275550e+003,-1.376657e+000
3.276514e+003,-1.718164e+000
3.277478e+003,-3.236125e+000
3.278442e+003,-4.186508e+000
3.279406e+003,-4.390706e+000
3.280371e+003,-3.308107e+000
3.281335e+003,-2.105228e+000
3.282299e+003,-1.754297e+000
3.283263e+003,-1.698201e+000
3.284228e+003,-1.485159e+000
3.285192e+003,-9.091034e-001
3.286156e+003,9.006012e-001
3.287120e+003,1.549930e+000
3.288084e+003,-1.631409e-001
3.289049e+003,-5.174866e-002
3.290013e+003,1.933981e+000
3.290977e+003,2.544159e+000
3.291941e+003,1.667697e+000
3.292906e+003,6.779724e-001
3.293870e+003,-1.635071e-001
3.294834e+003,-1.002872e+000
3.295798e+003,-1.691269e+000
3.296763e+003,-1.908231e+000
3.297727e+003,-1.646573e+000
3.298691e+003,-2.236450e-001
3.299655e+003,8.205689e-001
3.300620e+003,-5.905411e-001
3.301584e+003,-9.545304e-001
3.302548e+003,7.596283e-001
3.303512e+003,2.127066e+000
3.304477e+003,2.265634e+000
3.305441e+003,2.003467e+000
3.306405e+003,1.614081e+000
3.307369e+003,5.901031e-001
3.308333e+003,-1.137982e+000
3.309298e+003,-1.237260e+000
3.310262e+003,-8.147583e-002
3.311226e+003,1.955884e+000
3.312190e+003,3.690048e+000
3.313155e+003,3.122818e+000
3.314119e+003,1.881866e+000
3.315083e+003,1.239868e+000
3.316047e+003,1.058685e+000
3.317011e+003,1.251379e+000
3.317976e+003,1.417197e+000
3.318940e+003,1.127869e+000
3.319904e+003,1.065839e+000
3.320868e+003,1.496506e+000
3.321833e+003,1.222272e+000
3.322797e+003,3.844787e-001
3.323761e+003,2.376648e-001
3.324725e+003,7.682983e-001
3.325690e+003,1.869788e+000
3.326654e+003,2.764664e+000
3.327618e+003,1.913602e+000
3.328582e+003,6.394135e-001
3.329547e+003,1.922000e+000
3.330511e+003,3.458374e+000
3.331475e+003,2.231830e+000
3.332439e+003,8.244187e-001
3.333404e+003,-9.545898e-003
3.334368e+003,7.188660e-001
3.335332e+003,2.978668e+000
3.336296e+003,3.582553e+000
3.337260e+003,1.964752e+000
3.338225e+003,4.498917e-001
3.339189e+003,-4.093933e-001
3.340153e+003,-1.063406e+000
3.341117e+003,-1.459500e+000
3.342082e+003,-1.380537e+000
3.343046e+003,-8.196686e-001
3.344010e+003,1.138956e+000
3.344974e+003,2.312793e+000
3.345938e+003,6.787445e-001
3.346903e+003,-9.477005e-001
3.347867e+003,-1.239386e+000
3.348831e+003,-5.736817e-001
3.349795e+003,8.714157e-001
3.350760e+003,1.739230e+000
3.351724e+003,1.252290e+000
3.352688e+003,1.269867e+000
3.353652e+003,1.736737e+000
3.354617e+003,1.819977e+000
3.355581e+003,1.753853e+000
3.356545e+003,2.253342e+000
3.357509e+003,2.866150e+000
3.358474e+003,3.095981e+000
3.359438e+003,2.688113e+000
3.360402e+003,1.269307e+000
3.361366e+003,5.027115e-001
3.362331e+003,2.606253e+000
3.363295e+003,4.111008e+000
3.364259e+003,3.459601e+000
3.365223e+003,2.940961e+000
3.366188e+003,2.717416e+000
3.367152e+003,2.265672e+000
3.368116e+003,1.568838e+000
3.369080e+003,5.397278e-001
3.370044e+003,-2.413071e-001
3.371009e+003,5.268844e-001
3.371973e+003,1.839969e+000
3.372937e+003,1.617722e+000
3.373901e+003,1.032076e+000
3.374865e+003,1.619423e+000
3.375830e+003,2.138246e+000
3.376794e+003,2.188344e+000
3.377758e+003,1.618732e+000
3.378722e+003,5.078323e-001
3.379687e+003,-2.421509e-001
3.380651e+003,-3.181656e-001
3.381615e+003,6.414108e-001
3.382579e+003,2.322951e+000
3.383544e+003,2.750418e+000
3.384508e+003,2.356108e+000
3.385472e+003,2.691353e+000
3.386436e+003,3.179288e+000
3.387401e+003,3.157210e+000
3.388365e+003,2.770743e+000
3.389329e+003,1.996754e+000
3.390293e+003,1.911365e+000
3.391258e+003,2.873641e+000
3.392222e+003,3.768088e+000
3.393186e+003,4.154223e+000
3.394150e+003,5.022638e+000
3.395115e+003,6.499191e+000
3.396079e+003,5.974432e+000
3.397043e+003,4.364490e+000
3.398007e+003,4.502444e+000
3.398971e+003,5.576123e+000
3.399936e+003,6.978284e+000
3.400900e+003,7.385083e+000
3.401864e+003,5.922739e+000
3.402828e+003,4.948749e+000
3.403792e+003,6.110651e+000
3.404757e+003,7.462893e+000
3.405721e+003,8.011579e+000
3.406685e+003,8.264328e+000
3.407649e+003,8.251699e+000
3.408614e+003,1.028399e+001
3.409578e+003,1.299944e+001
3.410542e+003,1.208592e+001
3.411506e+003,9.635880e+000
3.412471e+003,9.044055e+000
3.413435e+003,9.834625e+000
3.414399e+003,1.163687e+001
3.415363e+003,1.325218e+001
3.416328e+003,1.330126e+001
3.417292e+003,1.328399e+001
3.418256e+003,1.362473e+001
3.419220e+003,1.424409e+001
3.420185e+003,1.514194e+001
3.421149e+003,1.638375e+001
3.422113e+003,1.765121e+001
3.423077e+003,1.832803e+001
3.424042e+003,1.818627e+001
3.425006e+003,1.695774e+001
3.425970e+003,1.563437e+001
3.426934e+003,1.618933e+001
