7.140112e+001,8.056541e+001
7.236536e+001,7.986215e+001
7.332959e+001,8.169800e+001
7.429382e+001,8.349977e+001
7.525806e+001,8.590031e+001
7.622229e+001,8.542772e+001
7.718652e+001,7.886964e+001
7.815076e+001,6.215971e+001
7.911499e+001,5.263347e+001
8.007922e+001,4.975397e+001
8.104346e+001,5.178615e+001
8.200769e+001,5.787926e+001
8.297192e+001,7.149463e+001
8.393616e+001,8.371716e+001
8.490039e+001,9.426488e+001
8.586462e+001,1.018382e+002
8.682886e+001,1.046140e+002
8.779310e+001,9.650270e+001
8.875733e+001,8.463806e+001
8.972157e+001,7.216303e+001
9.068580e+001,6.058484e+001
9.165003e+001,5.043343e+001
9.261427e+001,4.555357e+001
9.357850e+001,4.428407e+001
9.454273e+001,4.463578e+001
9.550697e+001,4.545557e+001
9.647120e+001,4.736427e+001
9.743543e+001,4.761030e+001
9.839967e+001,4.573936e+001
9.936390e+001,4.273620e+001
1.003281e+002,3.965248e+001
1.012924e+002,3.588705e+001
1.022566e+002,3.298521e+001
1.032208e+002,3.127048e+001
1.041851e+002,3.065908e+001
1.051493e+002,3.084989e+001
1.061135e+002,3.315945e+001
1.070778e+002,3.499311e+001
1.080420e+002,3.495512e+001
1.090062e+002,3.274128e+001
1.099705e+002,2.924048e+001
1.109347e+002,2.559020e+001
1.118989e+002,2.236566e+001
1.128632e+002,2.145994e+001
1.138274e+002,2.432203e+001
1.147916e+002,3.184763e+001
1.157559e+002,3.515918e+001
1.167201e+002,3.332730e+001
1.176843e+002,2.941621e+001
1.186486e+002,2.712468e+001
1.196128e+002,2.784647e+001
1.205770e+002,2.845146e+001
1.215413e+002,2.908386e+001
1.225055e+002,2.944449e+001
1.234697e+002,2.899389e+001
1.244340e+002,2.662880e+001
1.253982e+002,2.378688e+001
1.263624e+002,1.969133e+001
1.273267e+002,1.490904e+001
1.282909e+002,1.160110e+001
1.292551e+002,1.706757e+001
1.302194e+002,2.545472e+001
1.311836e+002,3.173383e+001
1.321478e+002,3.269444e+001
1.331121e+002,2.822550e+001
1.340763e+002,2.415830e+001
1.350405e+002,2.034806e+001
1.360048e+002,1.728290e+001
1.369690e+002,1.543563e+001
1.379332e+002,1.510969e+001
1.388975e+002,1.621517e+001
1.398617e+002,2.000646e+001
1.408259e+002,2.467172e+001
1.417902e+002,2.736365e+001
1.427544e+002,2.552651e+001
1.437186e+002,2.291767e+001
1.446829e+002,2.006324e+001
1.456471e+002,1.726511e+001
1.466113e+002,1.472302e+001
1.475756e+002,1.133493e+001
1.485398e+002,9.206622e+000
1.495040e+002,1.133029e+001
1.504683e+002,1.832826e+001
1.514325e+002,2.838910e+001
1.523967e+002,3.065703e+001
1.533610e+002,2.697446e+001
1.543252e+002,2.172650e+001
1.552894e+002,1.792095e+001
1.562537e+002,1.605483e+001
1.572179e+002,1.446780e+001
1.581821e+002,1.148727e+001
1.591464e+002,9.600067e+000
1.601106e+002,1.216229e+001
1.610748e+002,2.537132e+001
1.620391e+002,3.338184e+001
1.630033e+002,3.043189e+001
1.639676e+002,2.098287e+001
1.649318e+002,1.191980e+001
1.658960e+002,9.838623e+000
1.668603e+002,1.064877e+001
1.678245e+002,1.250228e+001
1.687887e+002,1.470688e+001
1.697530e+002,1.678483e+001
1.707172e+002,1.703187e+001
1.716814e+002,1.611885e+001
1.726457e+002,1.577789e+001
1.736099e+002,1.672599e+001
1.745741e+002,1.905090e+001
1.755384e+002,1.953208e+001
1.765026e+002,1.749190e+001
1.774668e+002,1.504158e+001
1.784311e+002,1.332292e+001
1.793953e+002,1.277156e+001
1.803595e+002,1.177577e+001
1.813238e+002,9.173639e+000
1.822880e+002,6.505432e+000
1.832522e+002,5.195129e+000
1.842165e+002,6.701019e+000
1.851807e+002,8.326856e+000
1.861449e+002,7.914429e+000
1.871092e+002,6.317365e+000
1.880734e+002,4.584631e+000
1.890376e+002,4.027545e+000
1.900019e+002,4.616638e+000
1.909661e+002,5.952197e+000
1.919303e+002,7.994012e+000
1.928946e+002,1.051122e+001
1.938588e+002,1.271243e+001
1.948230e+002,1.449744e+001
1.957873e+002,1.615032e+001
1.967515e+002,1.679319e+001
1.977157e+002,1.659089e+001
1.986800e+002,1.976395e+001
1.996442e+002,2.697462e+001
2.006084e+002,3.677621e+001
2.015727e+002,5.268617e+001
2.025369e+002,7.535658e+001
2.035011e+002,9.049435e+001
2.044654e+002,8.374619e+001
2.054296e+002,6.947769e+001
2.063938e+002,5.427772e+001
2.073581e+002,4.267770e+001
2.083223e+002,3.549038e+001
2.092865e+002,3.374382e+001
2.102508e+002,3.612719e+001
2.112150e+002,4.144090e+001
2.121792e+002,4.855744e+001
2.131435e+002,5.830372e+001
2.141077e+002,6.405013e+001
2.150719e+002,6.494405e+001
2.160362e+002,6.301328e+001
2.170004e+002,6.101225e+001
2.179646e+002,5.782307e+001
2.189289e+002,5.635683e+001
2.198931e+002,5.523006e+001
2.208573e+002,5.587754e+001
2.218216e+002,6.120500e+001
2.227858e+002,7.895338e+001
2.237500e+002,9.602301e+001
2.247143e+002,1.098356e+002
2.256785e+002,1.185508e+002
2.266427e+002,1.201885e+002
2.276070e+002,1.055374e+002
2.285712e+002,8.270084e+001
2.295354e+002,6.125414e+001
2.304997e+002,4.415553e+001
2.314639e+002,3.124761e+001
2.324281e+002,2.271793e+001
2.333924e+002,1.888275e+001
2.343566e+002,1.643861e+001
2.353208e+002,1.449059e+001
2.362851e+002,1.312443e+001
2.372493e+002,1.165648e+001
2.382135e+002,9.828583e+000
2.391778e+002,8.048132e+000
2.401420e+002,6.403461e+000
2.411062e+002,4.873932e+000
2.420705e+002,3.918677e+000
2.430347e+002,4.480402e+000
2.439989e+002,5.167633e+000
2.449632e+002,4.711249e+000
2.459274e+002,2.077008e+000
2.468916e+002,-1.358752e+000
2.478559e+002,-2.807080e+000
2.488201e+002,-2.757532e+000
2.497843e+002,-1.980963e+000
2.507486e+002,-1.369226e+000
2.517128e+002,-9.595459e-001
2.526770e+002,1.110779e-001
2.536413e+002,2.144745e+000
2.546055e+002,4.453278e+000
2.555697e+002,5.996387e+000
2.565340e+002,6.381482e+000
2.574982e+002,6.387115e+000
2.584625e+002,6.044952e+000
2.594267e+002,5.507721e+000
2.603909e+002,4.984937e+000
2.613552e+002,4.671661e+000
2.623194e+002,4.058350e+000
2.632836e+002,2.528058e+000
2.642479e+002,4.933716e-001
2.652121e+002,-1.163574e+000
2.661763e+002,-7.514465e-001
2.671406e+002,7.618225e-001
2.681048e+002,2.106628e+000
2.690690e+002,2.986316e+000
2.700333e+002,3.259680e+000
2.709975e+002,2.174060e+000
2.719617e+002,-9.426147e-001
2.729260e+002,-3.042078e+000
2.738902e+002,-2.823254e+000
2.748544e+002,-3.268677e-001
2.758187e+002,8.661499e-001
2.767829e+002,-9.080933e-001
2.777471e+002,-2.539404e+000
2.787114e+002,-2.920380e+000
2.796756e+002,-1.871655e+000
2.806398e+002,-8.044068e-001
2.816041e+002,-7.884399e-001
2.825683e+002,-1.153082e+000
2.835325e+002,-1.639911e+000
2.844968e+002,-2.104767e+000
2.854610e+002,-2.563763e+000
2.864252e+002,-3.449780e+000
2.873895e+002,-4.376441e+000
2.883537e+002,-4.401410e+000
2.893179e+002,-2.895795e+000
2.902822e+002,3.072388e-001
2.912464e+002,1.835291e+000
2.922106e+002,1.772095e+000
2.931749e+002,7.745056e-001
2.941391e+002,-1.184106e+000
2.951033e+002,-4.947253e+000
2.960676e+002,-6.971924e+000
2.970318e+002,-5.976404e+000
2.979960e+002,-4.247394e+000
2.989603e+002,-3.620355e+000
2.999245e+002,-5.305871e+000
3.008887e+002,-6.347070e+000
3.018530e+002,-3.664844e+000
3.028172e+002,1.644714e-001
3.037814e+002,2.533179e+000
3.047457e+002,1.180823e+000
3.057099e+002,-2.426312e+000
3.066741e+002,-3.195807e+000
3.076384e+002,-1.755408e+000
3.086026e+002,-7.946167e-002
3.095668e+002,-4.042541e-001
3.105311e+002,-3.684399e+000
3.114953e+002,-5.454358e+000
3.124595e+002,-4.869818e+000
3.134238e+002,-3.536700e+000
3.143880e+002,-3.456531e+000
3.153522e+002,-5.998987e+000
3.163165e+002,-7.571533e+000
3.172807e+002,-7.207812e+000
3.182449e+002,-5.752429e+000
3.192092e+002,-4.129743e+000
3.201734e+002,-2.848377e+000
3.211376e+002,-1.848578e+000
3.221019e+002,-1.101123e+000
3.230661e+002,-4.677490e-001
3.240303e+002,3.312012e-001
3.249946e+002,1.724530e+000
3.259588e+002,3.309125e+000
3.269230e+002,3.126819e+000
3.278873e+002,1.082727e+000
3.288515e+002,-1.356604e+000
3.298157e+002,-1.562616e+000
3.307800e+002,2.755975e+000
3.317442e+002,5.714313e+000
3.327084e+002,6.451276e+000
3.336727e+002,6.019635e+000
3.346369e+002,6.307208e+000
3.356011e+002,8.407995e+000
3.365654e+002,1.037106e+001
3.375296e+002,1.183965e+001
3.384938e+002,1.288633e+001
3.394581e+002,1.355438e+001
3.404223e+002,1.339316e+001
3.413865e+002,1.351024e+001
3.423508e+002,1.447781e+001
3.433150e+002,1.653823e+001
3.442792e+002,2.003687e+001
3.452435e+002,2.569800e+001
3.462077e+002,3.369283e+001
3.471719e+002,4.127205e+001
3.481362e+002,4.769099e+001
3.491004e+002,5.450203e+001
3.500646e+002,6.514159e+001
3.510289e+002,7.738185e+001
3.519931e+002,9.876180e+001
3.529573e+002,1.318223e+002
3.539216e+002,1.733710e+002
3.548858e+002,2.198190e+002
3.558500e+002,2.852378e+002
3.568143e+002,3.320460e+002
3.577785e+002,3.479173e+002
3.587427e+002,3.371631e+002
3.597070e+002,3.069169e+002
3.606712e+002,2.559221e+002
3.616354e+002,1.984354e+002
3.625997e+002,1.516435e+002
3.635639e+002,1.165308e+002
3.645281e+002,9.164081e+001
3.654924e+002,7.440611e+001
3.664566e+002,6.729726e+001
3.674208e+002,5.903480e+001
3.683851e+002,4.823459e+001
3.693493e+002,3.676749e+001
3.703135e+002,2.883436e+001
3.712778e+002,2.793552e+001
3.722420e+002,2.656478e+001
3.732062e+002,2.360991e+001
3.741705e+002,1.995349e+001
3.751347e+002,1.707144e+001
3.760989e+002,1.606526e+001
3.770632e+002,1.558591e+001
3.780274e+002,1.476558e+001
3.789916e+002,1.377814e+001
3.799559e+002,1.306134e+001
3.809201e+002,1.323306e+001
3.818844e+002,1.396123e+001
3.828486e+002,1.404830e+001
3.838128e+002,1.354935e+001
3.847771e+002,1.291617e+001
3.857413e+002,1.282797e+001
3.867055e+002,1.361234e+001
3.876698e+002,1.424928e+001
3.886340e+002,1.404099e+001
3.895982e+002,1.388688e+001
3.905625e+002,1.528496e+001
3.915267e+002,2.005064e+001
3.924909e+002,2.334457e+001
3.934552e+002,2.439219e+001
3.944194e+002,2.378892e+001
3.953836e+002,2.181270e+001
3.963479e+002,1.792371e+001
3.973121e+002,1.454088e+001
3.982763e+002,1.386912e+001
3.992406e+002,1.497952e+001
4.002048e+002,1.674681e+001
4.011690e+002,1.810838e+001
4.021333e+002,1.898174e+001
4.030975e+002,1.924433e+001
4.040617e+002,1.887982e+001
4.050260e+002,1.894587e+001
4.059902e+002,2.053410e+001
4.069544e+002,2.409023e+001
4.079187e+002,2.817889e+001
4.088829e+002,3.306926e+001
4.098471e+002,3.808186e+001
4.108114e+002,4.224157e+001
4.117756e+002,4.468534e+001
4.127398e+002,4.930936e+001
4.137041e+002,6.136969e+001
4.146683e+002,7.332684e+001
4.156325e+002,7.930472e+001
4.165968e+002,7.623867e+001
4.175610e+002,6.833842e+001
4.185252e+002,6.107628e+001
4.194895e+002,5.483739e+001
4.204537e+002,5.068299e+001
4.214179e+002,4.926547e+001
4.223822e+002,5.037209e+001
4.233464e+002,4.955229e+001
4.243106e+002,4.579559e+001
4.252749e+002,4.352394e+001
4.262391e+002,4.497921e+001
4.272033e+002,5.045527e+001
4.281676e+002,5.748527e+001
4.291318e+002,6.453172e+001
4.300960e+002,7.429458e+001
4.310603e+002,8.719623e+001
4.320245e+002,1.033831e+002
4.329887e+002,1.237793e+002
4.339530e+002,1.537054e+002
4.349172e+002,1.853531e+002
4.358814e+002,2.180648e+002
4.368457e+002,2.496099e+002
4.378099e+002,2.761743e+002
4.387741e+002,2.893017e+002
4.397384e+002,2.901450e+002
4.407026e+002,2.811030e+002
4.416668e+002,2.617698e+002
4.426311e+002,2.349789e+002
4.435953e+002,2.102341e+002
4.445595e+002,1.862577e+002
4.455238e+002,1.668321e+002
4.464880e+002,1.538645e+002
4.474522e+002,1.454323e+002
4.484165e+002,1.376492e+002
4.493807e+002,1.300192e+002
4.503449e+002,1.227834e+002
4.513092e+002,1.167880e+002
4.522734e+002,1.108646e+002
4.532376e+002,1.031151e+002
4.542019e+002,9.136939e+001
4.551661e+002,7.851628e+001
4.561303e+002,6.786092e+001
4.570946e+002,5.940321e+001
4.580588e+002,5.311611e+001
4.590230e+002,4.900133e+001
4.599873e+002,4.733385e+001
4.609515e+002,4.558337e+001
4.619157e+002,4.338173e+001
4.628800e+002,4.157582e+001
4.638442e+002,4.088919e+001
4.648084e+002,4.144979e+001
4.657727e+002,4.298168e+001
4.667369e+002,4.560064e+001
4.677011e+002,4.885386e+001
4.686654e+002,5.291671e+001
4.696296e+002,5.789101e+001
4.705938e+002,6.181294e+001
4.715581e+002,6.321584e+001
4.725223e+002,6.306161e+001
4.734865e+002,6.178990e+001
4.744508e+002,5.963782e+001
4.754150e+002,5.658055e+001
4.763792e+002,5.162556e+001
4.773435e+002,4.554131e+001
4.783077e+002,4.068301e+001
4.792719e+002,3.799752e+001
4.802362e+002,3.699280e+001
4.812004e+002,3.478795e+001
4.821646e+002,2.944570e+001
4.831289e+002,2.514104e+001
4.840931e+002,2.253842e+001
4.850573e+002,2.118032e+001
4.860216e+002,1.981224e+001
4.869858e+002,1.767628e+001
4.879500e+002,1.650019e+001
4.889143e+002,1.767685e+001
4.898785e+002,1.993352e+001
4.908427e+002,2.120714e+001
4.918070e+002,1.949019e+001
4.927712e+002,1.635355e+001
4.937354e+002,1.451595e+001
4.946997e+002,1.377232e+001
4.956639e+002,1.353353e+001
4.966281e+002,1.319014e+001
4.975924e+002,1.271866e+001
4.985566e+002,1.351707e+001
4.995208e+002,1.537668e+001
5.004851e+002,1.827792e+001
5.014493e+002,2.280832e+001
5.024135e+002,2.970095e+001
5.033778e+002,3.462846e+001
5.043420e+002,3.632317e+001
5.053063e+002,3.731811e+001
5.062705e+002,3.893553e+001
5.072347e+002,4.125855e+001
5.081990e+002,4.259121e+001
5.091632e+002,4.084785e+001
5.101274e+002,3.764556e+001
5.110917e+002,3.318446e+001
5.120559e+002,2.792929e+001
5.130201e+002,2.270432e+001
5.139844e+002,1.918958e+001
5.149486e+002,1.723176e+001
5.159128e+002,1.494378e+001
5.168771e+002,1.212023e+001
5.178413e+002,8.920313e+000
5.188055e+002,5.593085e+000
5.197698e+002,1.059375e+000
5.207340e+002,-1.735443e+000
5.216982e+002,-2.083911e+000
5.226625e+002,-1.164063e+000
5.236267e+002,-8.010864e-002
5.245909e+002,1.077576e+000
5.255552e+002,1.638416e+000
5.265194e+002,1.211383e+000
5.274836e+002,2.920960e-001
5.284479e+002,-7.885864e-001
5.294121e+002,-1.813782e+000
5.303763e+002,-2.682996e+000
5.313406e+002,-3.488428e+000
5.323048e+002,-4.099042e+000
5.332690e+002,-3.809259e+000
5.342333e+002,-2.199774e+000
5.351975e+002,4.533325e-001
5.361617e+002,1.831671e+000
5.371260e+002,1.647400e+000
5.380902e+002,7.810730e-001
5.390544e+002,-1.649457e+000
5.400187e+002,-4.877472e+000
5.409829e+002,-6.165747e+000
5.419471e+002,-2.667877e+000
5.429114e+002,2.655273e-001
5.438756e+002,8.597595e-001
5.448398e+002,-1.763306e-002
5.458041e+002,-9.186584e-001
5.467683e+002,-8.155884e-001
5.477325e+002,-2.273987e-001
5.486968e+002,1.217102e-001
5.496610e+002,2.297424e-001
5.506252e+002,5.577393e-002
5.515895e+002,-4.364624e-001
5.525537e+002,-1.249115e+000
5.535179e+002,-1.985455e+000
5.544822e+002,-2.745056e+000
5.554464e+002,-3.175122e+000
5.564106e+002,-2.964050e+000
5.573749e+002,-2.133142e+000
5.583391e+002,-1.629236e+000
5.593033e+002,-1.561047e+000
5.602676e+002,-1.754388e+000
5.612318e+002,-2.336737e+000
5.621960e+002,-3.184106e+000
5.631603e+002,-3.993793e+000
5.641245e+002,-4.615387e+000
5.650887e+002,-4.972040e+000
5.660530e+002,-5.032562e+000
5.670172e+002,-4.829321e+000
5.679814e+002,-4.378125e+000
5.689457e+002,-3.677026e+000
5.699099e+002,-2.805536e+000
5.708741e+002,-2.410559e+000
5.718384e+002,-2.429132e+000
5.728026e+002,-2.789673e+000
5.737668e+002,-3.743439e+000
5.747311e+002,-5.680078e+000
5.756953e+002,-6.246979e+000
5.766595e+002,-3.763361e+000
5.776238e+002,-1.854816e+000
5.785880e+002,-2.475360e+000
5.795522e+002,-5.387830e+000
5.805165e+002,-7.838507e+000
5.814807e+002,-7.035504e+000
5.824449e+002,-6.015790e+000
5.834092e+002,-6.974109e+000
5.843734e+002,-9.341156e+000
5.853376e+002,-1.108423e+001
5.863019e+002,-9.588727e+000
5.872661e+002,-5.638818e+000
5.882303e+002,-4.147565e+000
5.891946e+002,-5.155347e+000
5.901588e+002,-6.919208e+000
5.911230e+002,-7.699194e+000
5.920873e+002,-7.262939e+000
5.930515e+002,-6.729297e+000
5.940157e+002,-5.839575e+000
5.949800e+002,-5.091986e+000
5.959442e+002,-4.857275e+000
5.969084e+002,-5.132996e+000
5.978727e+002,-5.292474e+000
5.988369e+002,-4.465753e+000
5.998011e+002,-3.876721e+000
6.007654e+002,-4.245080e+000
6.017296e+002,-5.396033e+000
6.026938e+002,-6.709466e+000
6.036581e+002,-7.613971e+000
6.046223e+002,-7.972760e+000
6.055865e+002,-7.638171e+000
6.065508e+002,-6.626849e+000
6.075150e+002,-5.293017e+000
6.084792e+002,-3.972266e+000
6.094435e+002,-2.552173e+000
6.104077e+002,-1.709698e+000
6.113719e+002,-1.691766e+000
6.123362e+002,-1.864648e+000
6.133004e+002,-2.027179e+000
6.142646e+002,-2.161823e+000
6.152289e+002,-2.072613e+000
6.161931e+002,-1.266589e+000
6.171573e+002,-6.083435e-001
6.181216e+002,-5.810364e-001
6.190858e+002,-9.435059e-001
6.200500e+002,-1.050507e+000
6.210143e+002,-2.269775e-001
6.219785e+002,1.074994e+000
6.229427e+002,1.580957e+000
6.239070e+002,1.530231e+000
6.248712e+002,2.070734e+000
6.258354e+002,4.399121e+000
6.267997e+002,8.848559e+000
6.277639e+002,1.238879e+001
6.287281e+002,1.535109e+001
6.296924e+002,1.728051e+001
6.306566e+002,1.775390e+001
6.316208e+002,1.686098e+001
6.325851e+002,1.563059e+001
6.335493e+002,1.424850e+001
6.345135e+002,1.274087e+001
6.354778e+002,1.036346e+001
6.364420e+002,7.874225e+000
6.374063e+002,6.892035e+000
6.383705e+002,9.197077e+000
6.393347e+002,1.242161e+001
6.402990e+002,1.251463e+001
6.412632e+002,1.039272e+001
6.422274e+002,8.010608e+000
6.431917e+002,6.818658e+000
6.441559e+002,6.745379e+000
6.451201e+002,6.499890e+000
6.460844e+002,5.852533e+000
6.470486e+002,5.465692e+000
6.480128e+002,5.963348e+000
6.489771e+002,7.006219e+000
6.499413e+002,7.045392e+000
6.509055e+002,4.631036e+000
6.518698e+002,2.655713e+000
6.528340e+002,1.992096e+000
6.537982e+002,2.167011e+000
6.547625e+002,2.628760e+000
6.557267e+002,3.120697e+000
6.566909e+002,3.345612e+000
6.576552e+002,2.587262e+000
6.586194e+002,1.380719e+000
6.595836e+002,5.788574e-001
6.605479e+002,6.174866e-001
6.615121e+002,1.306909e+000
6.624763e+002,1.740967e+000
6.634406e+002,1.805225e+000
6.644048e+002,1.864423e+000
6.653690e+002,1.879456e+000
6.663333e+002,1.838892e+000
6.672975e+002,1.765991e+000
6.682617e+002,1.643750e+000
6.692260e+002,1.771735e+000
6.701902e+002,2.344311e+000
6.711544e+002,3.040881e+000
6.721187e+002,3.631690e+000
6.730829e+002,4.001953e+000
6.740471e+002,4.117322e+000
6.750114e+002,3.551965e+000
6.759756e+002,2.958344e+000
6.769398e+002,3.181647e+000
6.779041e+002,4.322040e+000
6.788683e+002,5.837860e+000
6.798325e+002,6.783038e+000
6.807968e+002,7.110864e+000
6.817610e+002,6.512713e+000
6.827252e+002,3.828296e+000
6.836895e+002,1.197229e+000
6.846537e+002,7.635559e-001
6.856179e+002,2.989996e+000
6.865822e+002,4.714673e+000
6.875464e+002,4.997278e+000
6.885106e+002,4.882575e+000
6.894749e+002,4.455670e+000
6.904391e+002,3.996295e+000
6.914034e+002,4.067621e+000
6.923676e+002,5.438190e+000
6.933318e+002,7.383423e+000
6.942961e+002,9.051514e+000
6.952603e+002,1.034244e+001
6.962245e+002,1.100818e+001
6.971888e+002,1.078575e+001
6.981530e+002,9.626172e+000
6.991172e+002,8.950122e+000
7.000815e+002,8.502472e+000
7.010457e+002,8.685907e+000
7.020099e+002,9.903308e+000
7.029742e+002,1.200765e+001
7.039384e+002,1.422012e+001
7.049026e+002,1.697543e+001
7.058669e+002,1.885810e+001
7.068311e+002,1.874404e+001
7.077953e+002,1.787241e+001
7.087596e+002,1.795368e+001
7.097238e+002,1.998413e+001
7.106880e+002,2.240237e+001
7.116523e+002,2.235922e+001
7.126165e+002,2.099666e+001
7.135807e+002,1.994294e+001
7.145450e+002,1.984081e+001
7.155092e+002,2.029022e+001
7.164734e+002,2.013805e+001
7.174377e+002,1.905376e+001
7.184019e+002,1.792436e+001
7.193661e+002,1.660083e+001
7.203304e+002,1.524306e+001
7.212946e+002,1.395894e+001
7.222589e+002,1.270820e+001
7.232231e+002,1.201013e+001
7.241873e+002,1.265657e+001
7.251516e+002,1.327533e+001
7.261158e+002,1.289123e+001
7.270800e+002,1.159014e+001
7.280443e+002,1.031082e+001
7.290085e+002,1.007017e+001
7.299727e+002,1.059194e+001
7.309370e+002,1.137746e+001
7.319012e+002,1.229555e+001
7.328654e+002,1.264590e+001
7.338297e+002,1.171869e+001
7.347939e+002,9.421130e+000
7.357581e+002,7.754431e+000
7.367224e+002,6.051532e+000
7.376866e+002,5.629193e+000
7.386508e+002,7.875531e+000
7.396151e+002,1.169586e+001
7.405793e+002,1.396774e+001
7.415435e+002,1.300837e+001
7.425078e+002,1.187113e+001
7.434720e+002,1.186824e+001
7.444362e+002,1.234146e+001
7.454005e+002,1.259085e+001
7.463647e+002,1.229841e+001
7.473289e+002,1.175161e+001
7.482932e+002,1.135914e+001
7.492574e+002,1.122130e+001
7.502216e+002,1.171560e+001
7.511859e+002,1.296443e+001
7.521501e+002,1.435673e+001
7.531143e+002,1.484180e+001
7.540786e+002,1.416636e+001
7.550428e+002,1.318677e+001
7.560070e+002,1.120396e+001
7.569713e+002,9.607715e+000
7.579355e+002,9.560346e+000
7.588997e+002,1.097651e+001
7.598640e+002,1.202068e+001
7.608282e+002,1.111656e+001
7.617924e+002,1.021548e+001
7.627567e+002,1.044045e+001
7.637209e+002,1.145512e+001
7.646851e+002,1.238793e+001
7.656494e+002,1.251789e+001
7.666136e+002,1.223964e+001
7.675778e+002,1.350585e+001
7.685421e+002,1.607714e+001
7.695063e+002,1.802416e+001
7.704705e+002,1.836926e+001
7.714348e+002,1.748047e+001
7.723990e+002,1.681968e+001
7.733632e+002,1.651260e+001
7.743275e+002,1.619838e+001
7.752917e+002,1.526140e+001
7.762559e+002,1.474366e+001
7.772202e+002,1.593665e+001
7.781844e+002,1.915914e+001
7.791486e+002,2.228835e+001
7.801129e+002,2.364584e+001
7.810771e+002,2.394556e+001
7.820413e+002,2.291883e+001
7.830056e+002,2.106459e+001
7.839698e+002,1.961773e+001
7.849340e+002,2.000482e+001
7.858983e+002,2.218792e+001
7.868625e+002,2.415638e+001
7.878267e+002,2.599370e+001
7.887910e+002,2.739271e+001
7.897552e+002,2.794050e+001
7.907194e+002,2.780231e+001
7.916837e+002,2.818936e+001
7.926479e+002,2.960303e+001
7.936121e+002,3.099673e+001
7.945764e+002,3.212794e+001
7.955406e+002,3.311569e+001
7.965048e+002,3.427263e+001
7.974691e+002,3.576046e+001
7.984333e+002,3.713443e+001
7.993975e+002,3.673607e+001
8.003618e+002,3.613612e+001
8.013260e+002,3.762238e+001
8.022902e+002,4.140990e+001
8.032545e+002,4.559517e+001
8.042187e+002,4.727604e+001
8.051829e+002,4.569711e+001
8.061472e+002,4.628002e+001
8.071114e+002,5.055430e+001
8.080756e+002,5.470591e+001
8.090399e+002,5.594319e+001
8.100041e+002,5.497300e+001
8.109683e+002,5.666512e+001
8.119326e+002,6.456062e+001
8.128968e+002,7.248051e+001
8.138610e+002,7.838426e+001
8.148253e+002,8.290331e+001
8.157895e+002,8.650503e+001
8.167537e+002,8.954775e+001
8.177180e+002,9.284873e+001
8.186822e+002,9.867800e+001
8.196464e+002,1.059466e+002
8.206107e+002,1.123605e+002
8.215749e+002,1.173751e+002
8.225391e+002,1.210865e+002
8.235034e+002,1.236467e+002
8.244676e+002,1.249511e+002
8.254318e+002,1.250480e+002
8.263961e+002,1.250170e+002
8.273603e+002,1.234078e+002
8.283245e+002,1.186221e+002
8.292888e+002,1.113712e+002
8.302530e+002,1.045531e+002
8.312172e+002,9.969966e+001
8.321815e+002,9.533703e+001
8.331457e+002,9.028848e+001
8.341099e+002,8.521078e+001
8.350742e+002,8.094461e+001
8.360384e+002,7.788751e+001
8.370026e+002,7.564285e+001
8.379669e+002,7.330965e+001
8.389311e+002,7.085585e+001
8.398953e+002,6.857896e+001
8.408596e+002,6.659830e+001
8.418238e+002,6.469057e+001
8.427880e+002,6.269039e+001
8.437523e+002,6.066548e+001
8.447165e+002,5.827137e+001
8.456807e+002,5.481711e+001
8.466450e+002,5.173870e+001
8.476092e+002,4.953197e+001
8.485734e+002,4.802715e+001
8.495377e+002,4.696688e+001
8.505019e+002,4.640142e+001
8.514661e+002,4.572718e+001
8.524304e+002,4.353435e+001
8.533946e+002,4.083490e+001
8.543588e+002,3.948992e+001
8.553231e+002,4.015017e+001
8.562873e+002,4.174966e+001
8.572515e+002,4.191502e+001
8.582158e+002,3.996517e+001
8.591800e+002,3.852713e+001
8.601442e+002,3.782864e+001
8.611085e+002,3.726251e+001
8.620727e+002,3.643517e+001
8.630369e+002,3.541063e+001
8.640012e+002,3.455639e+001
8.649654e+002,3.315402e+001
8.659296e+002,3.305812e+001
8.668939e+002,3.653030e+001
8.678581e+002,4.120832e+001
8.688223e+002,4.384432e+001
8.697866e+002,4.282305e+001
8.707508e+002,3.976437e+001
8.717150e+002,3.760278e+001
8.726793e+002,3.625280e+001
8.736435e+002,3.563523e+001
8.746077e+002,3.594201e+001
8.755720e+002,3.641102e+001
8.765362e+002,3.599668e+001
8.775004e+002,3.446673e+001
8.784647e+002,3.308087e+001
8.794289e+002,3.183140e+001
8.803931e+002,3.069505e+001
8.813574e+002,2.976086e+001
8.823216e+002,2.890157e+001
8.832858e+002,2.787560e+001
8.842501e+002,2.657523e+001
8.852143e+002,2.530980e+001
8.861785e+002,2.412921e+001
8.871428e+002,2.315509e+001
8.881070e+002,2.270266e+001
8.890712e+002,2.280163e+001
8.900355e+002,2.311872e+001
8.909997e+002,2.313517e+001
8.919639e+002,2.283251e+001
8.929282e+002,2.244788e+001
8.938924e+002,2.207993e+001
8.948566e+002,2.151677e+001
8.958209e+002,2.041020e+001
8.967851e+002,1.897147e+001
8.977493e+002,1.819142e+001
8.987136e+002,1.897463e+001
8.996778e+002,1.910913e+001
9.006420e+002,1.712143e+001
9.016063e+002,1.466279e+001
9.025705e+002,1.342040e+001
9.035347e+002,1.378018e+001
9.044990e+002,1.462122e+001
9.054632e+002,1.454941e+001
9.064274e+002,1.359592e+001
9.073917e+002,1.248186e+001
9.083559e+002,1.125306e+001
9.093201e+002,9.952118e+000
9.102844e+002,8.480023e+000
9.112486e+002,6.867651e+000
9.122128e+002,5.835455e+000
9.131771e+002,5.666290e+000
9.141413e+002,5.821027e+000
9.151055e+002,6.733789e+000
9.160698e+002,7.659375e+000
9.170340e+002,7.818591e+000
9.179982e+002,7.030011e+000
9.189625e+002,5.859393e+000
9.199267e+002,4.295233e+000
9.208909e+002,3.047791e+000
9.218552e+002,3.172797e+000
9.228194e+002,4.304022e+000
9.237836e+002,5.184949e+000
9.247479e+002,4.813513e+000
9.257121e+002,3.489203e+000
9.266763e+002,3.000836e+000
9.276406e+002,3.878314e+000
9.286048e+002,4.385980e+000
9.295690e+002,4.241583e+000
9.305333e+002,3.741528e+000
9.314975e+002,3.138062e+000
9.324617e+002,2.424280e+000
9.334260e+002,1.816614e+000
9.343902e+002,1.552924e+000
9.353545e+002,1.286377e+000
9.363187e+002,7.082580e-001
9.372830e+002,3.775024e-002
9.382472e+002,-2.727234e-001
9.392114e+002,7.005616e-002
9.401757e+002,8.351257e-001
9.411399e+002,1.398230e+000
9.421041e+002,1.776501e+000
9.430684e+002,2.320899e+000
9.440326e+002,3.113940e+000
9.449968e+002,3.962329e+000
9.459611e+002,4.705752e+000
9.469253e+002,5.415009e+000
9.478895e+002,5.949670e+000
9.488538e+002,6.417682e+000
9.498180e+002,6.504981e+000
9.507822e+002,5.588605e+000
9.517465e+002,4.389008e+000
9.527107e+002,4.029468e+000
9.536749e+002,4.993890e+000
9.546392e+002,6.382880e+000
9.556034e+002,7.118622e+000
9.565676e+002,7.522522e+000
9.575319e+002,8.015951e+000
9.584961e+002,8.676394e+000
9.594603e+002,9.385193e+000
9.604246e+002,9.979108e+000
9.613888e+002,1.043130e+001
9.623530e+002,1.105424e+001
9.633173e+002,1.134980e+001
9.642815e+002,1.246560e+001
9.652457e+002,1.428085e+001
9.662100e+002,1.724302e+001
9.671742e+002,2.156046e+001
9.681384e+002,2.719029e+001
9.691027e+002,3.514431e+001
9.700669e+002,4.689975e+001
9.710311e+002,6.082635e+001
9.719954e+002,8.040451e+001
9.729596e+002,1.011956e+002
9.739238e+002,1.136652e+002
9.748881e+002,1.114205e+002
9.758523e+002,9.812813e+001
9.768165e+002,8.533169e+001
9.777808e+002,7.287782e+001
9.787450e+002,6.226836e+001
9.797092e+002,5.430851e+001
9.806735e+002,4.776322e+001
9.816377e+002,4.117468e+001
9.826019e+002,3.451897e+001
9.835662e+002,2.996612e+001
9.845304e+002,2.994799e+001
9.854946e+002,3.009937e+001
9.864589e+002,2.851105e+001
9.874231e+002,2.643508e+001
9.883873e+002,2.551946e+001
9.893516e+002,2.632726e+001
9.903158e+002,2.802749e+001
9.912800e+002,2.960171e+001
9.922443e+002,3.129015e+001
9.932085e+002,3.344001e+001
9.941727e+002,3.603364e+001
9.951370e+002,3.971291e+001
9.961012e+002,4.467056e+001
9.970654e+002,5.082137e+001
9.980297e+002,5.831215e+001
9.989939e+002,6.338052e+001
9.999581e+002,7.729677e+001
1.000922e+003,9.675341e+001
1.001887e+003,1.281822e+002
1.002851e+003,1.807267e+002
1.003815e+003,2.515009e+002
1.004779e+003,3.301321e+002
1.005744e+003,4.219620e+002
1.006708e+003,4.932245e+002
1.007672e+003,4.914253e+002
1.008636e+003,4.363620e+002
1.009600e+003,3.649600e+002
1.010565e+003,2.924824e+002
1.011529e+003,2.239156e+002
1.012493e+003,1.704719e+002
1.013457e+003,1.353766e+002
1.014422e+003,1.076109e+002
1.015386e+003,8.789523e+001
1.016350e+003,7.248176e+001
1.017314e+003,6.098823e+001
1.018279e+003,5.239445e+001
1.019243e+003,4.520321e+001
1.020207e+003,3.904045e+001
1.021171e+003,3.397933e+001
1.022135e+003,3.070606e+001
1.023100e+003,2.816739e+001
1.024064e+003,2.538581e+001
1.025028e+003,2.234185e+001
1.025992e+003,1.969000e+001
1.026957e+003,1.802414e+001
1.027921e+003,1.732175e+001
1.028885e+003,1.721176e+001
1.029849e+003,1.814139e+001
1.030814e+003,1.864401e+001
1.031778e+003,1.845627e+001
1.032742e+003,1.772581e+001
1.033706e+003,1.637915e+001
1.034671e+003,1.452038e+001
1.035635e+003,1.325693e+001
1.036599e+003,1.353289e+001
1.037563e+003,1.384679e+001
1.038527e+003,1.331104e+001
1.039492e+003,1.232693e+001
1.040456e+003,1.131545e+001
1.041420e+003,1.052766e+001
1.042384e+003,1.013336e+001
1.043349e+003,1.043315e+001
1.044313e+003,1.140912e+001
1.045277e+003,1.204589e+001
1.046241e+003,1.232448e+001
1.047206e+003,1.237184e+001
1.048170e+003,1.203713e+001
1.049134e+003,1.155852e+001
1.050098e+003,1.158759e+001
1.051063e+003,1.239918e+001
1.052027e+003,1.314424e+001
1.052991e+003,1.373047e+001
1.053955e+003,1.387082e+001
1.054919e+003,1.299176e+001
1.055884e+003,1.157669e+001
1.056848e+003,1.073066e+001
1.057812e+003,1.114502e+001
1.058776e+003,1.213492e+001
1.059741e+003,1.215460e+001
1.060705e+003,1.127351e+001
1.061669e+003,1.037714e+001
1.062633e+003,9.451227e+000
1.063598e+003,8.731644e+000
1.064562e+003,8.626071e+000
1.065526e+003,9.117383e+000
1.066490e+003,9.271121e+000
1.067454e+003,8.518109e+000
1.068419e+003,8.235254e+000
1.069383e+003,8.801679e+000
1.070347e+003,9.736005e+000
1.071311e+003,1.092609e+001
1.072276e+003,1.217711e+001
1.073240e+003,1.303791e+001
1.074204e+003,1.311158e+001
1.075168e+003,1.271737e+001
1.076133e+003,1.255776e+001
1.077097e+003,1.256756e+001
1.078061e+003,1.252886e+001
1.079025e+003,1.235984e+001
1.079990e+003,1.214783e+001
1.080954e+003,1.202027e+001
1.081918e+003,1.199226e+001
1.082882e+003,1.196902e+001
1.083846e+003,1.180334e+001
1.084811e+003,1.178155e+001
1.085775e+003,1.180404e+001
1.086739e+003,1.208827e+001
1.087703e+003,1.335692e+001
1.088668e+003,1.552062e+001
1.089632e+003,1.679285e+001
1.090596e+003,1.507035e+001
1.091560e+003,1.209667e+001
1.092525e+003,1.164985e+001
1.093489e+003,1.311488e+001
1.094453e+003,1.407177e+001
1.095417e+003,1.336754e+001
1.096381e+003,1.190624e+001
1.097346e+003,1.155522e+001
1.098310e+003,1.278884e+001
1.099274e+003,1.344176e+001
1.100238e+003,1.288531e+001
1.101203e+003,1.260182e+001
1.102167e+003,1.322462e+001
1.103131e+003,1.423989e+001
1.104095e+003,1.504647e+001
1.105060e+003,1.543679e+001
1.106024e+003,1.527578e+001
1.106988e+003,1.397404e+001
1.107952e+003,1.262464e+001
1.108917e+003,1.303293e+001
1.109881e+003,1.483946e+001
1.110845e+003,1.656433e+001
1.111809e+003,1.740790e+001
1.112773e+003,1.764470e+001
1.113738e+003,1.801755e+001
1.114702e+003,1.894669e+001
1.115666e+003,1.892292e+001
1.116630e+003,1.693640e+001
1.117595e+003,1.528702e+001
1.118559e+003,1.465835e+001
1.119523e+003,1.489830e+001
1.120487e+003,1.604700e+001
1.121452e+003,1.807945e+001
1.122416e+003,1.968607e+001
1.123380e+003,1.949714e+001
1.124344e+003,1.825843e+001
1.125308e+003,1.666091e+001
1.126273e+003,1.504662e+001
1.127237e+003,1.445990e+001
1.128201e+003,1.551642e+001
1.129165e+003,1.757682e+001
1.130130e+003,1.925001e+001
1.131094e+003,2.075873e+001
1.132058e+003,2.091038e+001
1.133022e+003,1.828569e+001
1.133987e+003,1.634567e+001
1.134951e+003,1.672231e+001
1.135915e+003,1.828712e+001
1.136879e+003,1.939637e+001
1.137844e+003,1.961704e+001
1.138808e+003,1.950656e+001
1.139772e+003,1.914781e+001
1.140736e+003,1.894831e+001
1.141700e+003,1.971928e+001
1.142665e+003,2.120349e+001
1.143629e+003,2.262700e+001
1.144593e+003,2.366009e+001
1.145557e+003,2.407273e+001
1.146522e+003,2.307782e+001
1.147486e+003,1.972089e+001
1.148450e+003,1.858778e+001
1.149414e+003,2.194314e+001
1.150379e+003,2.456337e+001
1.151343e+003,2.475131e+001
1.152307e+003,2.376109e+001
1.153271e+003,2.283772e+001
1.154235e+003,2.229768e+001
1.155200e+003,2.237160e+001
1.156164e+003,2.358306e+001
1.157128e+003,2.519462e+001
1.158092e+003,2.618334e+001
1.159057e+003,2.663671e+001
1.160021e+003,2.663908e+001
1.160985e+003,2.618611e+001
1.161949e+003,2.571277e+001
1.162914e+003,2.595484e+001
1.163878e+003,2.704825e+001
1.164842e+003,2.788342e+001
1.165806e+003,2.790672e+001
1.166771e+003,2.831246e+001
1.167735e+003,2.979901e+001
1.168699e+003,3.132584e+001
1.169663e+003,3.165777e+001
1.170627e+003,3.096924e+001
1.171592e+003,3.085808e+001
1.172556e+003,3.251659e+001
1.173520e+003,3.462509e+001
1.174484e+003,3.479800e+001
1.175449e+003,3.398373e+001
1.176413e+003,3.405171e+001
1.177377e+003,3.541000e+001
1.178341e+003,3.731099e+001
1.179306e+003,3.912980e+001
1.180270e+003,4.088655e+001
1.181234e+003,4.247262e+001
1.182198e+003,4.434531e+001
1.183162e+003,4.502814e+001
1.184127e+003,4.323423e+001
1.185091e+003,4.148346e+001
1.186055e+003,4.159487e+001
1.187019e+003,4.306105e+001
1.187984e+003,4.445066e+001
1.188948e+003,4.509101e+001
1.189912e+003,4.488431e+001
1.190876e+003,4.316021e+001
1.191841e+003,4.077181e+001
1.192805e+003,4.003600e+001
1.193769e+003,4.105905e+001
1.194733e+003,4.189398e+001
1.195698e+003,4.124337e+001
1.196662e+003,3.962935e+001
1.197626e+003,3.843224e+001
1.198590e+003,3.772866e+001
1.199554e+003,3.707752e+001
1.200519e+003,3.636199e+001
1.201483e+003,3.589837e+001
1.202447e+003,3.595630e+001
1.203411e+003,3.622465e+001
1.204376e+003,3.634428e+001
1.205340e+003,3.614256e+001
1.206304e+003,3.556113e+001
1.207268e+003,3.455709e+001
1.208233e+003,3.347425e+001
1.209197e+003,3.315269e+001
1.210161e+003,3.342942e+001
1.211125e+003,3.352124e+001
1.212089e+003,3.305682e+001
1.213054e+003,3.244135e+001
1.214018e+003,3.205956e+001
1.214982e+003,3.201779e+001
1.215946e+003,3.282743e+001
1.216911e+003,3.530062e+001
1.217875e+003,3.702119e+001
1.218839e+003,3.680244e+001
1.219803e+003,3.605433e+001
1.220768e+003,3.572675e+001
1.221732e+003,3.592643e+001
1.222696e+003,3.656343e+001
1.223660e+003,3.751022e+001
1.224625e+003,3.813066e+001
1.225589e+003,3.707647e+001
1.226553e+003,3.428584e+001
1.227517e+003,3.319988e+001
1.228481e+003,3.451839e+001
1.229446e+003,3.581049e+001
1.230410e+003,3.576707e+001
1.231374e+003,3.512795e+001
1.232338e+003,3.520353e+001
1.233303e+003,3.615258e+001
1.234267e+003,3.709177e+001
1.235231e+003,3.796310e+001
1.236195e+003,3.832697e+001
1.237160e+003,3.736586e+001
1.238124e+003,3.606381e+001
1.239088e+003,3.597882e+001
1.240052e+003,3.715768e+001
1.241016e+003,3.793504e+001
1.241981e+003,3.666177e+001
1.242945e+003,3.402434e+001
1.243909e+003,3.326543e+001
1.244873e+003,3.556531e+001
1.245838e+003,3.709115e+001
1.246802e+003,3.725626e+001
1.247766e+003,3.724495e+001
1.248730e+003,3.782078e+001
1.249695e+003,3.868086e+001
1.250659e+003,3.907512e+001
1.251623e+003,3.880657e+001
1.252587e+003,3.846880e+001
1.253552e+003,3.836561e+001
1.254516e+003,3.843628e+001
1.255480e+003,3.863504e+001
1.256444e+003,3.895617e+001
1.257408e+003,3.945120e+001
1.258373e+003,4.013741e+001
1.259337e+003,4.083873e+001
1.260301e+003,4.133851e+001
1.261265e+003,4.167265e+001
1.262230e+003,4.166156e+001
1.263194e+003,4.043897e+001
1.264158e+003,3.990106e+001
1.265122e+003,4.088480e+001
1.266087e+003,4.191613e+001
1.267051e+003,4.163466e+001
1.268015e+003,4.067705e+001
1.268979e+003,4.094079e+001
1.269943e+003,4.320089e+001
1.270908e+003,4.564991e+001
1.271872e+003,4.640737e+001
1.272836e+003,4.590601e+001
1.273800e+003,4.500584e+001
1.274765e+003,4.382396e+001
1.275729e+003,4.361428e+001
1.276693e+003,4.544308e+001
1.277657e+003,4.761340e+001
1.278622e+003,4.691069e+001
1.279586e+003,4.304012e+001
1.280550e+003,4.138794e+001
1.281514e+003,4.402740e+001
1.282479e+003,4.664736e+001
1.283443e+003,4.874285e+001
1.284407e+003,4.984048e+001
1.285371e+003,4.899429e+001
1.286335e+003,4.683730e+001
1.287300e+003,4.492629e+001
1.288264e+003,4.413495e+001
1.289228e+003,4.411739e+001
1.290192e+003,4.432441e+001
1.291157e+003,4.473776e+001
1.292121e+003,4.499288e+001
1.293085e+003,4.479311e+001
1.294049e+003,4.501824e+001
1.295014e+003,4.664491e+001
1.295978e+003,4.848778e+001
1.296942e+003,4.858599e+001
1.297906e+003,4.722805e+001
1.298870e+003,4.772390e+001
1.299835e+003,5.202877e+001
1.300799e+003,5.579354e+001
1.301763e+003,5.581937e+001
1.302727e+003,5.431417e+001
1.303692e+003,5.287590e+001
1.304656e+003,5.190217e+001
1.305620e+003,5.141974e+001
1.306584e+003,5.140443e+001
1.307549e+003,5.181389e+001
1.308513e+003,5.270203e+001
1.309477e+003,5.424994e+001
1.310441e+003,5.451722e+001
1.311406e+003,5.173591e+001
1.312370e+003,5.034136e+001
1.313334e+003,5.231863e+001
1.314298e+003,5.477030e+001
1.315263e+003,5.469855e+001
1.316227e+003,5.285976e+001
1.317191e+003,5.274071e+001
1.318155e+003,5.596959e+001
1.319120e+003,5.932281e+001
1.320084e+003,5.896514e+001
1.321048e+003,5.637724e+001
1.322012e+003,5.485821e+001
1.322976e+003,5.444309e+001
1.323941e+003,5.453762e+001
1.324905e+003,5.511660e+001
1.325869e+003,5.575680e+001
1.326833e+003,5.562524e+001
1.327798e+003,5.470889e+001
1.328762e+003,5.433299e+001
1.329726e+003,5.482839e+001
1.330690e+003,5.538963e+001
1.331655e+003,5.583401e+001
1.332619e+003,5.624377e+001
1.333583e+003,5.670860e+001
1.334547e+003,5.716336e+001
1.335511e+003,5.744917e+001
1.336476e+003,5.751760e+001
1.337440e+003,5.759143e+001
1.338404e+003,5.800694e+001
1.339368e+003,5.867478e+001
1.340333e+003,5.848834e+001
1.341297e+003,5.697915e+001
1.342261e+003,5.592272e+001
1.343225e+003,5.523749e+001
1.344190e+003,5.538604e+001
1.345154e+003,5.762214e+001
1.346118e+003,6.075112e+001
1.347082e+003,6.158690e+001
1.348047e+003,5.928161e+001
1.349011e+003,5.722713e+001
1.349975e+003,5.768550e+001
1.350939e+003,5.916898e+001
1.351903e+003,6.032861e+001
1.352868e+003,6.104512e+001
1.353832e+003,6.084164e+001
1.354796e+003,5.967045e+001
1.355760e+003,5.873422e+001
1.356725e+003,5.929064e+001
1.357689e+003,6.095197e+001
1.358653e+003,6.199277e+001
1.359617e+003,6.242049e+001
1.360582e+003,6.217146e+001
1.361546e+003,6.009337e+001
1.362510e+003,5.870198e+001
1.363474e+003,5.943345e+001
1.364438e+003,6.098905e+001
1.365403e+003,6.188139e+001
1.366367e+003,6.192095e+001
1.367331e+003,6.188699e+001
1.368295e+003,6.230444e+001
1.369260e+003,6.277368e+001
1.370224e+003,6.257801e+001
1.371188e+003,6.182604e+001
1.372152e+003,6.144248e+001
1.373117e+003,6.151694e+001
1.374081e+003,6.128359e+001
1.375045e+003,5.970200e+001
1.376009e+003,5.832691e+001
1.376974e+003,5.953834e+001
1.377938e+003,6.282919e+001
1.378902e+003,6.468616e+001
1.379866e+003,6.372413e+001
1.380830e+003,6.261914e+001
1.381795e+003,6.362602e+001
1.382759e+003,6.506207e+001
1.383723e+003,6.528400e+001
1.384687e+003,6.470498e+001
1.385652e+003,6.461491e+001
1.386616e+003,6.549493e+001
1.387580e+003,6.677740e+001
1.388544e+003,6.784962e+001
1.389509e+003,6.864352e+001
1.390473e+003,6.890973e+001
1.391437e+003,6.868825e+001
1.392401e+003,6.805606e+001
1.393365e+003,6.596446e+001
1.394330e+003,6.461763e+001
1.395294e+003,6.540316e+001
1.396258e+003,6.707177e+001
1.397222e+003,6.808266e+001
1.398187e+003,6.839103e+001
1.399151e+003,6.925827e+001
1.400115e+003,7.150390e+001
1.401079e+003,7.394115e+001
1.402044e+003,7.432146e+001
1.403008e+003,7.260292e+001
1.403972e+003,7.157798e+001
1.404936e+003,7.160284e+001
1.405901e+003,7.158130e+001
1.406865e+003,7.064143e+001
1.407829e+003,6.985298e+001
1.408793e+003,7.075591e+001
1.409757e+003,7.294680e+001
1.410722e+003,7.431482e+001
1.411686e+003,7.414677e+001
1.412650e+003,7.349222e+001
1.413614e+003,7.278049e+001
1.414579e+003,7.240632e+001
1.415543e+003,7.314352e+001
1.416507e+003,7.452968e+001
1.417471e+003,7.513905e+001
1.418436e+003,7.449422e+001
1.419400e+003,7.374282e+001
1.420364e+003,7.426464e+001
1.421328e+003,7.565717e+001
1.422292e+003,7.559331e+001
1.423257e+003,7.306483e+001
1.424221e+003,7.249959e+001
1.425185e+003,7.686463e+001
1.426149e+003,8.037238e+001
1.427114e+003,8.085921e+001
1.428078e+003,8.044667e+001
1.429042e+003,8.104366e+001
1.430006e+003,8.257196e+001
1.430971e+003,8.408789e+001
1.431935e+003,8.505825e+001
1.432899e+003,8.528728e+001
1.433863e+003,8.441460e+001
1.434828e+003,8.264833e+001
1.435792e+003,8.201300e+001
1.436756e+003,8.287598e+001
1.437720e+003,8.364122e+001
1.438684e+003,8.472038e+001
1.439649e+003,8.536676e+001
1.440613e+003,8.441473e+001
1.441577e+003,8.308791e+001
1.442541e+003,8.381947e+001
1.443506e+003,8.663478e+001
1.444470e+003,8.855702e+001
1.445434e+003,8.782548e+001
1.446398e+003,8.607148e+001
1.447363e+003,8.506404e+001
1.448327e+003,8.474535e+001
1.449291e+003,8.523397e+001
1.450255e+003,8.658897e+001
1.451219e+003,8.810262e+001
1.452184e+003,8.974956e+001
1.453148e+003,9.093510e+001
1.454112e+003,9.051697e+001
1.455076e+003,8.881853e+001
1.456041e+003,8.794502e+001
1.457005e+003,8.829031e+001
1.457969e+003,8.921769e+001
1.458933e+003,9.108797e+001
1.459898e+003,9.276698e+001
1.460862e+003,9.354503e+001
1.461826e+003,9.359529e+001
1.462790e+003,9.292295e+001
1.463755e+003,9.180094e+001
1.464719e+003,9.122237e+001
1.465683e+003,9.193497e+001
1.466647e+003,9.361052e+001
1.467611e+003,9.568099e+001
1.468576e+003,9.837404e+001
1.469540e+003,9.943778e+001
1.470504e+003,9.789480e+001
1.471468e+003,9.626288e+001
1.472433e+003,9.463658e+001
1.473397e+003,9.324094e+001
1.474361e+003,9.186891e+001
1.475325e+003,9.099986e+001
1.476290e+003,9.159303e+001
1.477254e+003,9.359042e+001
1.478218e+003,9.573582e+001
1.479182e+003,9.707227e+001
1.480146e+003,9.770216e+001
1.481111e+003,9.769743e+001
1.482075e+003,9.692496e+001
1.483039e+003,9.635936e+001
1.484003e+003,9.656911e+001
1.484968e+003,9.601246e+001
1.485932e+003,9.333675e+001
1.486896e+003,9.093275e+001
1.487860e+003,9.101863e+001
1.488825e+003,9.278284e+001
1.489789e+003,9.436638e+001
1.490753e+003,9.528889e+001
1.491717e+003,9.560724e+001
1.492682e+003,9.529948e+001
1.493646e+003,9.444674e+001
1.494610e+003,9.245049e+001
1.495574e+003,9.000278e+001
1.496538e+003,8.989687e+001
1.497503e+003,9.283738e+001
1.498467e+003,9.514497e+001
1.499431e+003,9.434410e+001
1.500395e+003,9.233742e+001
1.501360e+003,9.134448e+001
1.502324e+003,9.137709e+001
1.503288e+003,9.235888e+001
1.504252e+003,9.439764e+001
1.505217e+003,9.633803e+001
1.506181e+003,9.837042e+001
1.507145e+003,9.920786e+001
1.508109e+003,9.676555e+001
1.509073e+003,9.311343e+001
1.510038e+003,9.179655e+001
1.511002e+003,9.308821e+001
1.511966e+003,9.454348e+001
1.512930e+003,9.476432e+001
1.513895e+003,9.404936e+001
1.514859e+003,9.233574e+001
1.515823e+003,8.957683e+001
1.516787e+003,8.862248e+001
1.517752e+003,9.034064e+001
1.518716e+003,9.212809e+001
1.519680e+003,9.408861e+001
1.520644e+003,9.497817e+001
1.521609e+003,9.349379e+001
1.522573e+003,9.107926e+001
1.523537e+003,8.945494e+001
1.524501e+003,8.880977e+001
1.525465e+003,8.813741e+001
1.526430e+003,8.683746e+001
1.527394e+003,8.568719e+001
1.528358e+003,8.606511e+001
1.529322e+003,8.787077e+001
1.530287e+003,8.872826e+001
1.531251e+003,8.806653e+001
1.532215e+003,8.769197e+001
1.533179e+003,8.773016e+001
1.534144e+003,8.783720e+001
1.535108e+003,8.787862e+001
1.536072e+003,8.789089e+001
1.537036e+003,8.810114e+001
1.538000e+003,8.835122e+001
1.538965e+003,8.810339e+001
1.539929e+003,8.712638e+001
1.540893e+003,8.593365e+001
1.541857e+003,8.520215e+001
1.542822e+003,8.474902e+001
1.543786e+003,8.331918e+001
1.544750e+003,8.006563e+001
1.545714e+003,7.859615e+001
1.546679e+003,7.992554e+001
1.547643e+003,8.149861e+001
1.548607e+003,8.329569e+001
1.549571e+003,8.444633e+001
1.550536e+003,8.337590e+001
1.551500e+003,8.091747e+001
1.552464e+003,7.969169e+001
1.553428e+003,8.047188e+001
1.554392e+003,8.129929e+001
1.555357e+003,8.048142e+001
1.556321e+003,7.887311e+001
1.557285e+003,7.836867e+001
1.558249e+003,7.894533e+001
1.559214e+003,7.881584e+001
1.560178e+003,7.748218e+001
1.561142e+003,7.682631e+001
1.562106e+003,7.818005e+001
1.563071e+003,7.958449e+001
1.564035e+003,7.935421e+001
1.564999e+003,7.801283e+001
1.565963e+003,7.647758e+001
1.566927e+003,7.494826e+001
1.567892e+003,7.426376e+001
1.568856e+003,7.514792e+001
1.569820e+003,7.606224e+001
1.570784e+003,7.499751e+001
1.571749e+003,7.274255e+001
1.572713e+003,7.108720e+001
1.573677e+003,7.012288e+001
1.574641e+003,7.006937e+001
1.575606e+003,7.146013e+001
1.576570e+003,7.267017e+001
1.577534e+003,7.236952e+001
1.578498e+003,7.112788e+001
1.579463e+003,6.988381e+001
1.580427e+003,6.866296e+001
1.581391e+003,6.730692e+001
1.582355e+003,6.564748e+001
1.583319e+003,6.443761e+001
1.584284e+003,6.458712e+001
1.585248e+003,6.516986e+001
1.586212e+003,6.482579e+001
1.587176e+003,6.377378e+001
1.588141e+003,6.298483e+001
1.589105e+003,6.273768e+001
1.590069e+003,6.217810e+001
1.591033e+003,6.032570e+001
1.591998e+003,5.830763e+001
1.592962e+003,5.817715e+001
1.593926e+003,5.945642e+001
1.594890e+003,5.921290e+001
1.595854e+003,5.679134e+001
1.596819e+003,5.575977e+001
1.597783e+003,5.880355e+001
1.598747e+003,6.130758e+001
1.599711e+003,5.873149e+001
1.600676e+003,5.439784e+001
1.601640e+003,5.241188e+001
1.602604e+003,5.267653e+001
1.603568e+003,5.302775e+001
1.604533e+003,5.264734e+001
1.605497e+003,5.142035e+001
1.606461e+003,4.861330e+001
1.607425e+003,4.519624e+001
1.608390e+003,4.405217e+001
1.609354e+003,4.529188e+001
1.610318e+003,4.644180e+001
1.611282e+003,4.695432e+001
1.612246e+003,4.755462e+001
1.613211e+003,4.961120e+001
1.614175e+003,5.082168e+001
1.615139e+003,4.891294e+001
1.616103e+003,4.548426e+001
1.617068e+003,4.291502e+001
1.618032e+003,4.163787e+001
1.618996e+003,4.115850e+001
1.619960e+003,4.123806e+001
1.620925e+003,4.149583e+001
1.621889e+003,4.179646e+001
1.622853e+003,4.195110e+001
1.623817e+003,4.020301e+001
1.624781e+003,3.601723e+001
1.625746e+003,3.359350e+001
1.626710e+003,3.477409e+001
1.627674e+003,3.603453e+001
1.628638e+003,3.520858e+001
1.629603e+003,3.408269e+001
1.630567e+003,3.467809e+001
1.631531e+003,3.606562e+001
1.632495e+003,3.593848e+001
1.633460e+003,3.389124e+001
1.634424e+003,3.153502e+001
1.635388e+003,2.988838e+001
1.636352e+003,2.894876e+001
1.637317e+003,2.900812e+001
1.638281e+003,2.996576e+001
1.639245e+003,3.028298e+001
1.640209e+003,2.975653e+001
1.641173e+003,2.920285e+001
1.642138e+003,2.899819e+001
1.643102e+003,2.861992e+001
1.644066e+003,2.789396e+001
1.645030e+003,2.680529e+001
1.645995e+003,2.483881e+001
1.646959e+003,2.257157e+001
1.647923e+003,2.155109e+001
1.648887e+003,2.217966e+001
1.649852e+003,2.300312e+001
1.650816e+003,2.277774e+001
1.651780e+003,2.208228e+001
1.652744e+003,2.233564e+001
1.653708e+003,2.347166e+001
1.654673e+003,2.346441e+001
1.655637e+003,2.183503e+001
1.656601e+003,2.042344e+001
1.657565e+003,1.991916e+001
1.658530e+003,1.958711e+001
1.659494e+003,1.924650e+001
1.660458e+003,1.866351e+001
1.661422e+003,1.717069e+001
1.662387e+003,1.524771e+001
1.663351e+003,1.444886e+001
1.664315e+003,1.526093e+001
1.665279e+003,1.622236e+001
1.666244e+003,1.605474e+001
1.667208e+003,1.532793e+001
1.668172e+003,1.536963e+001
1.669136e+003,1.605740e+001
1.670100e+003,1.565117e+001
1.671065e+003,1.371697e+001
1.672029e+003,1.195908e+001
1.672993e+003,1.097478e+001
1.673957e+003,1.032423e+001
1.674922e+003,9.376852e+000
1.675886e+003,8.760394e+000
1.676850e+003,9.691946e+000
1.677814e+003,1.162102e+001
1.678779e+003,1.250601e+001
1.679743e+003,1.170994e+001
1.680707e+003,1.056196e+001
1.681671e+003,9.954458e+000
1.682635e+003,9.771726e+000
1.683600e+003,1.006387e+001
1.684564e+003,1.069398e+001
1.685528e+003,1.051136e+001
1.686492e+003,9.224619e+000
1.687457e+003,8.253412e+000
1.688421e+003,8.118787e+000
1.689385e+003,8.437998e+000
1.690349e+003,9.496485e+000
1.691314e+003,1.051480e+001
1.692278e+003,1.044500e+001
1.693242e+003,9.438993e+000
1.694206e+003,8.188611e+000
1.695171e+003,6.814597e+000
1.696135e+003,5.757434e+000
1.697099e+003,5.346616e+000
1.698063e+003,5.337054e+000
1.699027e+003,5.826669e+000
1.699992e+003,6.423114e+000
1.700956e+003,5.399692e+000
1.701920e+003,2.655554e+000
1.702884e+003,1.343106e+000
1.703849e+003,2.906094e+000
1.704813e+003,4.744644e+000
1.705777e+003,4.986997e+000
1.706741e+003,4.212149e+000
1.707706e+003,3.169486e+000
1.708670e+003,1.965762e+000
1.709634e+003,8.705292e-001
1.710598e+003,-1.658569e-001
1.711563e+003,-6.575470e-001
1.712527e+003,1.731628e-001
1.713491e+003,9.973267e-001
1.714455e+003,4.589325e-001
1.715419e+003,-6.511688e-001
1.716384e+003,-9.231323e-001
1.717348e+003,-4.061310e-001
1.718312e+003,-7.958984e-003
1.719276e+003,-1.658630e-002
1.720241e+003,-1.797272e-001
1.721205e+003,-3.632263e-001
1.722169e+003,-4.378174e-001
1.723133e+003,-1.712036e-003
1.724098e+003,7.977844e-001
1.725062e+003,4.157440e-001
1.726026e+003,-1.701703e+000
1.726990e+003,-2.743988e+000
1.727954e+003,-1.611826e+000
1.728919e+003,-1.811432e-001
1.729883e+003,1.221310e+000
1.730847e+003,2.091714e+000
1.731811e+003,1.745700e+000
1.732776e+003,5.395203e-001
1.733740e+003,-8.734436e-001
1.734704e+003,-2.219986e+000
1.735668e+003,-3.239548e+000
1.736633e+003,-3.784692e+000
1.737597e+003,-3.842267e+000
1.738561e+003,-3.297092e+000
1.739525e+003,-2.365772e+000
1.740490e+003,-2.200345e+000
1.741454e+003,-3.211188e+000
1.742418e+003,-3.524771e+000
1.743382e+003,-2.470862e+000
1.744346e+003,-1.781567e+000
1.745311e+003,-1.961694e+000
1.746275e+003,-2.317328e+000
1.747239e+003,-2.557504e+000
1.748203e+003,-2.625934e+000
1.749168e+003,-2.219083e+000
1.750132e+003,-1.666885e+000
1.751096e+003,-2.091867e+000
1.752060e+003,-3.738007e+000
1.753025e+003,-5.069449e+000
1.753989e+003,-4.616977e+000
1.754953e+003,-3.246249e+000
1.755917e+003,-2.962393e+000
1.756881e+003,-3.787415e+000
1.757846e+003,-4.657849e+000
1.758810e+003,-5.843787e+000
1.759774e+003,-6.221530e+000
1.760738e+003,-5.088849e+000
1.761703e+003,-3.935162e+000
1.762667e+003,-3.000436e+000
1.763631e+003,-2.515079e+000
1.764595e+003,-2.599252e+000
1.765560e+003,-3.247913e+000
1.766524e+003,-4.878797e+000
1.767488e+003,-7.229804e+000
1.768452e+003,-8.667867e+000
1.769417e+003,-8.286211e+000
1.770381e+003,-7.047076e+000
1.771345e+003,-5.507324e+000
1.772309e+003,-4.173080e+000
1.773273e+003,-4.734586e+000
1.774238e+003,-6.971405e+000
1.775202e+003,-8.136168e+000
1.776166e+003,-7.757414e+000
1.777130e+003,-7.011328e+000
1.778095e+003,-6.268884e+000
1.779059e+003,-5.417825e+000
1.780023e+003,-3.975354e+000
1.780987e+003,-2.662082e+000
1.781952e+003,-2.913446e+000
1.782916e+003,-4.433112e+000
1.783880e+003,-5.572995e+000
1.784844e+003,-6.085425e+000
1.785808e+003,-6.073578e+000
1.786773e+003,-4.947650e+000
1.787737e+003,-4.028811e+000
1.788701e+003,-4.783197e+000
1.789665e+003,-6.105893e+000
1.790630e+003,-6.177567e+000
1.791594e+003,-5.287555e+000
1.792558e+003,-5.000638e+000
1.793522e+003,-5.677646e+000
1.794487e+003,-6.364090e+000
1.795451e+003,-6.471231e+000
1.796415e+003,-6.034708e+000
1.797379e+003,-4.988144e+000
1.798344e+003,-3.629196e+000
1.799308e+003,-3.379105e+000
1.800272e+003,-4.658813e+000
1.801236e+003,-5.505719e+000
1.802201e+003,-5.692743e+000
1.803165e+003,-5.770114e+000
1.804129e+003,-5.821374e+000
1.805093e+003,-5.772165e+000
1.806057e+003,-5.493994e+000
1.807022e+003,-5.179651e+000
1.807986e+003,-5.000913e+000
1.808950e+003,-4.973163e+000
1.809914e+003,-5.069324e+000
1.810879e+003,-5.275107e+000
1.811843e+003,-5.562521e+000
1.812807e+003,-5.912723e+000
1.813771e+003,-6.404855e+000
1.814736e+003,-7.265613e+000
1.815700e+003,-8.325526e+000
1.816664e+003,-8.647474e+000
1.817628e+003,-8.195459e+000
1.818593e+003,-7.397870e+000
1.819557e+003,-6.011041e+000
1.820521e+003,-5.070123e+000
1.821485e+003,-5.258365e+000
1.822449e+003,-5.614209e+000
1.823414e+003,-5.328805e+000
1.824378e+003,-4.915961e+000
1.825342e+003,-5.030169e+000
1.826306e+003,-5.573407e+000
1.827271e+003,-6.213101e+000
1.828235e+003,-6.948309e+000
1.829199e+003,-7.033035e+000
1.830163e+003,-5.466119e+000
1.831128e+003,-3.854233e+000
1.832092e+003,-3.819168e+000
1.833056e+003,-4.472687e+000
1.834020e+003,-4.209457e+000
1.834984e+003,-3.374466e+000
1.835949e+003,-3.575821e+000
1.836913e+003,-5.023004e+000
1.837877e+003,-6.383469e+000
1.838841e+003,-6.962985e+000
1.839806e+003,-6.957437e+000
1.840770e+003,-6.528116e+000
1.841734e+003,-5.795007e+000
1.842698e+003,-5.007571e+000
1.843663e+003,-4.020764e+000
1.844627e+003,-4.033221e+000
1.845591e+003,-6.491611e+000
1.846555e+003,-7.687972e+000
1.847520e+003,-6.567752e+000
1.848484e+003,-5.473346e+000
1.849448e+003,-5.330359e+000
1.850412e+003,-5.453580e+000
1.851376e+003,-5.250623e+000
1.852341e+003,-4.885596e+000
1.853305e+003,-4.897406e+000
1.854269e+003,-5.190772e+000
1.855233e+003,-4.852689e+000
1.856198e+003,-3.488065e+000
1.857162e+003,-2.253055e+000
1.858126e+003,-2.396207e+000
1.859090e+003,-3.249908e+000
1.860055e+003,-3.567657e+000
1.861019e+003,-3.424735e+000
1.861983e+003,-2.955777e+000
1.862947e+003,-2.131357e+000
1.863911e+003,-2.044547e+000
1.864876e+003,-3.150656e+000
1.865840e+003,-4.017728e+000
1.866804e+003,-3.768863e+000
1.867768e+003,-3.131726e+000
1.868733e+003,-3.049213e+000
1.869697e+003,-3.198318e+000
1.870661e+003,-2.387436e+000
1.871625e+003,-6.055359e-001
1.872590e+003,2.579498e-001
1.873554e+003,-4.393066e-001
1.874518e+003,-1.125943e+000
1.875482e+003,-1.442712e+000
1.876447e+003,-1.520395e+000
1.877411e+003,-1.058667e+000
1.878375e+003,-6.873535e-001
1.879339e+003,-1.486853e+000
1.880303e+003,-2.874637e+000
1.881268e+003,-3.386569e+000
1.882232e+003,-2.852988e+000
1.883196e+003,-2.303268e+000
1.884160e+003,-2.289615e+000
1.885125e+003,-2.420905e+000
1.886089e+003,-2.283997e+000
1.887053e+003,-1.947815e+000
1.888017e+003,-1.582242e+000
1.888982e+003,-1.180478e+000
1.889946e+003,-3.352539e-001
1.890910e+003,1.309927e+000
1.891874e+003,1.475415e+000
1.892839e+003,-1.112167e+000
1.893803e+003,-3.319159e+000
1.894767e+003,-3.938241e+000
1.895731e+003,-3.306159e+000
1.896695e+003,-7.117462e-001
1.897660e+003,2.395383e+000
1.898624e+003,3.486160e+000
1.899588e+003,2.647644e+000
1.900552e+003,1.385996e+000
1.901517e+003,-3.583588e-001
1.902481e+003,-1.305927e+000
1.903445e+003,-1.768799e-001
1.904409e+003,1.010977e+000
1.905374e+003,9.246582e-001
1.906338e+003,2.216370e-001
1.907302e+003,-5.955994e-001
1.908266e+003,-1.344241e+000
1.909230e+003,-1.765433e+000
1.910195e+003,-1.853708e+000
1.911159e+003,-1.911826e+000
1.912123e+003,-2.020532e+000
1.913087e+003,-1.550537e+000
1.914052e+003,1.506134e-001
1.915016e+003,2.023279e+000
1.915980e+003,1.670425e+000
1.916944e+003,-6.563050e-001
1.917909e+003,-1.450064e+000
1.918873e+003,-3.510895e-001
1.919837e+003,2.013550e-001
1.920801e+003,-2.527222e-001
1.921766e+003,-7.204468e-001
1.922730e+003,-1.050421e+000
1.923694e+003,-1.082523e+000
1.924658e+003,-3.782745e-001
1.925622e+003,4.983826e-001
1.926587e+003,8.941040e-001
1.927551e+003,8.924561e-001
1.928515e+003,7.704498e-001
1.929479e+003,5.532440e-001
1.930444e+003,3.139740e-001
1.931408e+003,1.358337e-002
1.932372e+003,-2.604401e-001
1.933336e+003,-5.911773e-001
1.934301e+003,-7.385010e-001
1.935265e+003,-4.368347e-001
1.936229e+003,1.457306e-001
1.937193e+003,1.045587e+000
1.938157e+003,1.898389e+000
1.939122e+003,1.814127e+000
1.940086e+003,7.244141e-001
1.941050e+003,-5.406128e-001
1.942014e+003,-1.469525e+000
1.942979e+003,-1.839160e+000
1.943943e+003,-1.266095e+000
1.944907e+003,-1.649078e-001
1.945871e+003,1.358215e-001
1.946836e+003,-2.771729e-001
1.947800e+003,3.679565e-001
1.948764e+003,2.318017e+000
1.949728e+003,2.806442e+000
1.950693e+003,7.549225e-001
1.951657e+003,-8.117065e-001
1.952621e+003,-1.215576e-001
1.953585e+003,1.047681e+000
1.954549e+003,1.049750e+000
1.955514e+003,3.078705e-001
1.956478e+003,-3.937531e-001
1.957442e+003,-1.038528e+000
1.958406e+003,-1.339221e+000
1.959371e+003,-1.203616e+000
1.960335e+003,-1.001352e+000
1.961299e+003,-1.001282e+000
1.962263e+003,-6.027557e-001
1.963228e+003,1.013004e+000
1.964192e+003,2.406479e+000
1.965156e+003,2.363931e+000
1.966120e+003,1.656216e+000
1.967084e+003,1.019003e+000
1.968049e+003,7.779754e-001
1.969013e+003,1.435281e+000
1.969977e+003,2.895642e+000
1.970941e+003,4.112756e+000
1.971906e+003,4.505652e+000
1.972870e+003,4.314893e+000
1.973834e+003,3.579111e+000
1.974798e+003,2.640314e+000
1.975763e+003,2.029953e+000
1.976727e+003,1.678589e+000
1.977691e+003,1.472693e+000
1.978655e+003,1.371268e+000
1.979620e+003,1.245886e+000
1.980584e+003,1.086935e+000
1.981548e+003,8.728698e-001
1.982512e+003,5.517975e-001
1.983476e+003,4.285339e-001
1.984441e+003,8.663117e-001
1.985405e+003,1.619818e+000
1.986369e+003,2.141055e+000
1.987333e+003,2.448804e+000
1.988298e+003,2.383356e+000
1.989262e+003,1.768091e+000
1.990226e+003,1.133157e+000
1.991190e+003,8.439026e-002
1.992155e+003,-1.745331e-001
1.993119e+003,1.486499e+000
1.994083e+003,3.004773e+000
1.995047e+003,3.007593e+000
1.996011e+003,2.570364e+000
1.996976e+003,2.726062e+000
1.997940e+003,3.377289e+000
1.998904e+003,4.457306e+000
1.999868e+003,5.877835e+000
2.000833e+003,6.110352e+000
2.001797e+003,4.014594e+000
2.002761e+003,2.625186e+000
2.003725e+003,3.910877e+000
2.004690e+003,5.357135e+000
2.005654e+003,4.918286e+000
2.006618e+003,4.228946e+000
2.007582e+003,5.732675e+000
2.008547e+003,7.911340e+000
2.009511e+003,7.587225e+000
2.010475e+003,5.104874e+000
2.011439e+003,3.263455e+000
2.012403e+003,3.065561e+000
2.013368e+003,3.533374e+000
2.014332e+003,4.012393e+000
2.015296e+003,4.468750e+000
2.016260e+003,4.892505e+000
2.017225e+003,5.242486e+000
2.018189e+003,5.348025e+000
2.019153e+003,5.270151e+000
2.020117e+003,5.295102e+000
2.021082e+003,5.432166e+000
2.022046e+003,5.671591e+000
2.023010e+003,6.015085e+000
2.023974e+003,5.828415e+000
2.024938e+003,4.708749e+000
2.025903e+003,3.281494e+000
2.026867e+003,2.140479e+000
2.027831e+003,1.419519e+000
2.028795e+003,1.492117e+000
2.029760e+003,2.354028e+000
2.030724e+003,3.196793e+000
2.031688e+003,4.228747e+000
2.032652e+003,4.203445e+000
2.033617e+003,2.369342e+000
2.034581e+003,1.164380e+000
2.035545e+003,1.402893e+000
2.036509e+003,2.113895e+000
2.037474e+003,2.971710e+000
2.038438e+003,3.766229e+000
2.039402e+003,4.396738e+000
2.040366e+003,4.804697e+000
2.041330e+003,4.912103e+000
2.042295e+003,4.723038e+000
2.043259e+003,3.824973e+000
2.044223e+003,1.229260e+000
2.045187e+003,3.520569e-001
2.046152e+003,3.667078e+000
2.047116e+003,6.261884e+000
2.048080e+003,5.923913e+000
2.049044e+003,4.591989e+000
2.050009e+003,3.004279e+000
2.050973e+003,1.799969e+000
2.051937e+003,1.957587e+000
2.052901e+003,2.857934e+000
2.053865e+003,2.786417e+000
2.054830e+003,1.667175e+000
2.055794e+003,1.518082e+000
2.056758e+003,3.351788e+000
2.057722e+003,4.958368e+000
2.058687e+003,4.484808e+000
2.059651e+003,3.361127e+000
2.060615e+003,2.874042e+000
2.061579e+003,2.615475e+000
2.062544e+003,1.870398e+000
2.063508e+003,1.047104e+000
2.064472e+003,1.022183e+000
2.065436e+003,1.793045e+000
2.066401e+003,3.221729e+000
2.067365e+003,4.950995e+000
2.068329e+003,5.473636e+000
2.069293e+003,3.870651e+000
2.070258e+003,1.647336e+000
2.071222e+003,4.512451e-001
2.072186e+003,1.839783e-001
2.073150e+003,9.613403e-001
2.074115e+003,2.458212e+000
2.075079e+003,3.117459e+000
2.076043e+003,3.012637e+000
2.077007e+003,3.344067e+000
2.077971e+003,4.310697e+000
2.078936e+003,5.518777e+000
2.079900e+003,6.836700e+000
2.080864e+003,7.107043e+000
2.081828e+003,5.414749e+000
2.082792e+003,3.067114e+000
2.083757e+003,1.849890e+000
2.084721e+003,1.598761e+000
2.085685e+003,1.854312e+000
2.086649e+003,2.659671e+000
2.087614e+003,3.234103e+000
2.088578e+003,3.632147e+000
2.089542e+003,3.431409e+000
2.090506e+003,2.229764e+000
2.091471e+003,1.511261e+000
2.092435e+003,1.960150e+000
2.093399e+003,2.653308e+000
2.094363e+003,3.152353e+000
2.095328e+003,3.298688e+000
2.096292e+003,2.634540e+000
2.097256e+003,1.523660e+000
2.098220e+003,1.388306e+000
2.099185e+003,2.388345e+000
2.100149e+003,3.062582e+000
2.101113e+003,3.011115e+000
2.102077e+003,3.306552e+000
2.103042e+003,4.796799e+000
2.104006e+003,5.433197e+000
2.104970e+003,3.845706e+000
2.105934e+003,2.409949e+000
2.106898e+003,2.626715e+000
2.107863e+003,3.392639e+000
2.108827e+003,3.637119e+000
2.109791e+003,3.544934e+000
2.110755e+003,3.403900e+000
2.111719e+003,3.277402e+000
2.112684e+003,4.045993e+000
2.113648e+003,6.604175e+000
2.114612e+003,7.847519e+000
2.115576e+003,5.933267e+000
2.116541e+003,4.247916e+000
2.117505e+003,3.897400e+000
2.118469e+003,4.274353e+000
2.119433e+003,5.863641e+000
2.120398e+003,7.232187e+000
2.121362e+003,6.446869e+000
2.122326e+003,4.544196e+000
2.123290e+003,3.628824e+000
2.124255e+003,3.840189e+000
2.125219e+003,4.090909e+000
2.126183e+003,4.060763e+000
2.127147e+003,4.131387e+000
2.128112e+003,4.524499e+000
2.129076e+003,5.042261e+000
2.130040e+003,5.854883e+000
2.131004e+003,6.408411e+000
2.131969e+003,5.991889e+000
2.132933e+003,5.271692e+000
2.133897e+003,4.894723e+000
2.134861e+003,4.961487e+000
2.135825e+003,5.892090e+000
2.136790e+003,7.163568e+000
2.137754e+003,6.887009e+000
2.138718e+003,4.674829e+000
2.139682e+003,3.029028e+000
2.140646e+003,3.501309e+000
2.141611e+003,4.488367e+000
2.142575e+003,4.560382e+000
2.143539e+003,4.576752e+000
2.144503e+003,5.876077e+000
2.145468e+003,7.358139e+000
2.146432e+003,7.272668e+000
2.147396e+003,6.233429e+000
2.148360e+003,5.581790e+000
2.149325e+003,5.454596e+000
2.150289e+003,5.310626e+000
2.151253e+003,5.050278e+000
2.152217e+003,5.297366e+000
2.153182e+003,6.439264e+000
2.154146e+003,7.582056e+000
2.155110e+003,8.031708e+000
2.156074e+003,7.799530e+000
2.157039e+003,6.418649e+000
2.158003e+003,4.644128e+000
2.158967e+003,3.597882e+000
2.159931e+003,3.285995e+000
2.160896e+003,3.776251e+000
2.161860e+003,4.776862e+000
2.162824e+003,5.541315e+000
2.163788e+003,5.893546e+000
2.164752e+003,6.155371e+000
2.165717e+003,6.474533e+000
2.166681e+003,6.494379e+000
2.167645e+003,5.778043e+000
2.168609e+003,5.172156e+000
2.169573e+003,6.475503e+000
2.170538e+003,8.328552e+000
2.171502e+003,7.566629e+000
2.172466e+003,5.391681e+000
2.173430e+003,4.797470e+000
2.174395e+003,5.655576e+000
2.175359e+003,6.707162e+000
2.176323e+003,7.558496e+000
2.177287e+003,7.997931e+000
2.178252e+003,7.948901e+000
2.179216e+003,7.484952e+000
2.180180e+003,6.662857e+000
2.181144e+003,6.026740e+000
2.182109e+003,6.267938e+000
2.183073e+003,7.012067e+000
2.184037e+003,7.702929e+000
2.185001e+003,8.279013e+000
2.185966e+003,8.767481e+000
2.186930e+003,9.020398e+000
2.187894e+003,8.153476e+000
2.188858e+003,6.436951e+000
2.189823e+003,5.673569e+000
2.190787e+003,6.186658e+000
2.191751e+003,6.501276e+000
2.192715e+003,5.850607e+000
2.193679e+003,4.768979e+000
2.194644e+003,3.608655e+000
2.195608e+003,3.016672e+000
2.196572e+003,4.701688e+000
2.197536e+003,7.404193e+000
2.198500e+003,8.020803e+000
2.199465e+003,7.065530e+000
2.200429e+003,5.340787e+000
2.201393e+003,3.537521e+000
2.202357e+003,4.379321e+000
2.203322e+003,7.655081e+000
2.204286e+003,9.348755e+000
2.205250e+003,8.090482e+000
2.206214e+003,6.341003e+000
2.207179e+003,5.783859e+000
2.208143e+003,6.109042e+000
2.209107e+003,7.211969e+000
2.210071e+003,8.360150e+000
2.211036e+003,7.988699e+000
2.212000e+003,6.740140e+000
2.212964e+003,5.864908e+000
2.213928e+003,5.553345e+000
2.214893e+003,6.636081e+000
2.215857e+003,8.699725e+000
2.216821e+003,9.863012e+000
2.217785e+003,9.767893e+000
2.218750e+003,9.477900e+000
2.219714e+003,9.541751e+000
2.220678e+003,9.939270e+000
2.221642e+003,1.067271e+001
2.222606e+003,1.176690e+001
2.223571e+003,1.354109e+001
2.224535e+003,1.536515e+001
2.225499e+003,1.608537e+001
2.226463e+003,1.603760e+001
2.227427e+003,1.542204e+001
2.228392e+003,1.481857e+001
2.229356e+003,1.599962e+001
2.230320e+003,1.853330e+001
2.231284e+003,1.993699e+001
2.232249e+003,1.969756e+001
2.233213e+003,1.946844e+001
2.234177e+003,2.015506e+001
2.235141e+003,2.170938e+001
2.236106e+003,2.437081e+001
2.237070e+003,2.700377e+001
2.238034e+003,2.786217e+001
2.238998e+003,2.809359e+001
2.239963e+003,2.947075e+001
2.240927e+003,3.135365e+001
2.241891e+003,3.231736e+001
2.242855e+003,3.293851e+001
2.243820e+003,3.496441e+001
2.244784e+003,3.810238e+001
2.245748e+003,4.030252e+001
2.246712e+003,4.117057e+001
2.247677e+003,4.254471e+001
2.248641e+003,4.543328e+001
2.249605e+003,4.857442e+001
2.250569e+003,5.134664e+001
2.251533e+003,5.328256e+001
2.252498e+003,5.370617e+001
2.253462e+003,5.329087e+001
2.254426e+003,5.237217e+001
2.255390e+003,5.140992e+001
2.256354e+003,5.144023e+001
2.257319e+003,5.155711e+001
2.258283e+003,4.968900e+001
2.259247e+003,4.626855e+001
2.260211e+003,4.376025e+001
2.261176e+003,4.267857e+001
2.262140e+003,4.085526e+001
2.263104e+003,3.700412e+001
2.264068e+003,3.354671e+001
2.265033e+003,3.260612e+001
2.265997e+003,3.144310e+001
2.266961e+003,2.726186e+001
2.267925e+003,2.351206e+001
2.268890e+003,2.376610e+001
2.269854e+003,2.513225e+001
2.270818e+003,2.444171e+001
2.271782e+003,2.239292e+001
2.272747e+003,2.041989e+001
2.273711e+003,1.879604e+001
2.274675e+003,1.766906e+001
2.275639e+003,1.707191e+001
2.276604e+003,1.616343e+001
2.277568e+003,1.453614e+001
2.278532e+003,1.300278e+001
2.279496e+003,1.163440e+001
2.280460e+003,1.049485e+001
2.281425e+003,9.724307e+000
2.282389e+003,9.058649e+000
2.283353e+003,8.443698e+000
2.284317e+003,7.851798e+000
2.285281e+003,7.335736e+000
2.286246e+003,6.767230e+000
2.287210e+003,5.652887e+000
2.288174e+003,4.210410e+000
2.289138e+003,3.938153e+000
2.290103e+003,5.242783e+000
2.291067e+003,5.785385e+000
2.292031e+003,5.417932e+000
2.292995e+003,4.553751e+000
2.293960e+003,2.424786e+000
2.294924e+003,1.245911e+000
2.295888e+003,2.023968e+000
2.296852e+003,2.951727e+000
2.297817e+003,3.245627e+000
2.298781e+003,3.186108e+000
2.299745e+003,2.922638e+000
2.300709e+003,2.678497e+000
2.301674e+003,2.901083e+000
2.302638e+003,3.354086e+000
2.303602e+003,2.829013e+000
2.304566e+003,1.192795e+000
2.305531e+003,2.814087e-001
2.306495e+003,1.585724e-001
2.307459e+003,6.454254e-001
2.308423e+003,1.803281e+000
2.309387e+003,2.759964e+000
2.310352e+003,3.334677e+000
2.311316e+003,2.861453e+000
2.312280e+003,9.544403e-001
2.313244e+003,-7.953369e-001
2.314208e+003,-1.085562e+000
2.315173e+003,-3.345917e-001
2.316137e+003,1.147424e+000
2.317101e+003,2.487061e+000
2.318065e+003,5.664185e-001
2.319030e+003,-3.373465e+000
2.319994e+003,-4.019250e+000
2.320958e+003,-2.143677e+000
2.321922e+003,-1.043744e+000
2.322887e+003,-9.026672e-001
2.323851e+003,-6.614563e-001
2.324815e+003,-1.778595e-001
2.325779e+003,-8.290710e-002
2.326744e+003,-5.758545e-001
2.327708e+003,-1.274191e+000
2.328672e+003,-1.957712e+000
2.329636e+003,-2.285690e+000
2.330601e+003,-1.546893e+000
2.331565e+003,-9.461182e-001
2.332529e+003,-2.167877e+000
2.333493e+003,-3.950238e+000
2.334458e+003,-5.095273e+000
2.335422e+003,-5.609799e+000
2.336386e+003,-5.320886e+000
2.337350e+003,-4.638251e+000
2.338314e+003,-4.085715e+000
2.339279e+003,-3.820779e+000
2.340243e+003,-4.100125e+000
2.341207e+003,-4.846060e+000
2.342171e+003,-5.014429e+000
2.343135e+003,-4.026041e+000
2.344100e+003,-3.685745e+000
2.345064e+003,-5.601987e+000
2.346028e+003,-6.853848e+000
2.346992e+003,-5.833991e+000
2.347957e+003,-4.699725e+000
2.348921e+003,-4.257590e+000
2.349885e+003,-4.359308e+000
2.350849e+003,-5.336337e+000
2.351814e+003,-6.443967e+000
2.352778e+003,-6.780074e+000
2.353742e+003,-6.537198e+000
2.354706e+003,-6.081018e+000
2.355671e+003,-5.449658e+000
2.356635e+003,-5.506119e+000
2.357599e+003,-6.706284e+000
2.358563e+003,-6.545276e+000
2.359528e+003,-4.200714e+000
2.360492e+003,-3.387961e+000
2.361456e+003,-4.995972e+000
2.362420e+003,-6.039880e+000
2.363385e+003,-5.499777e+000
2.364349e+003,-5.163367e+000
2.365313e+003,-6.059192e+000
2.366277e+003,-6.878453e+000
2.367241e+003,-6.367920e+000
2.368206e+003,-5.439276e+000
2.369170e+003,-5.643753e+000
2.370134e+003,-6.411014e+000
2.371098e+003,-5.776111e+000
2.372063e+003,-4.291373e+000
2.373027e+003,-4.593051e+000
2.373991e+003,-6.048413e+000
2.374955e+003,-5.909787e+000
2.375919e+003,-4.527804e+000
2.376884e+003,-4.385916e+000
2.377848e+003,-5.665393e+000
2.378812e+003,-6.672992e+000
2.379776e+003,-6.799993e+000
2.380741e+003,-6.558661e+000
2.381705e+003,-6.216569e+000
2.382669e+003,-5.875104e+000
2.383633e+003,-5.779297e+000
2.384598e+003,-5.409674e+000
2.385562e+003,-3.719617e+000
2.386526e+003,-2.391989e+000
2.387490e+003,-3.431717e+000
2.388455e+003,-4.804450e+000
2.389419e+003,-4.247336e+000
2.390383e+003,-2.982919e+000
2.391347e+003,-2.623102e+000
2.392312e+003,-3.130148e+000
2.393276e+003,-4.263657e+000
2.394240e+003,-5.812839e+000
2.395204e+003,-6.620956e+000
2.396168e+003,-6.387952e+000
2.397133e+003,-6.135114e+000
2.398097e+003,-6.001802e+000
2.399061e+003,-5.696396e+000
2.400025e+003,-5.104117e+000
2.400990e+003,-4.551383e+000
2.401954e+003,-4.068982e+000
2.402918e+003,-3.726175e+000
2.403882e+003,-3.524695e+000
2.404846e+003,-3.607608e+000
2.405811e+003,-4.146973e+000
2.406775e+003,-4.781751e+000
2.407739e+003,-5.025909e+000
2.408703e+003,-4.961923e+000
2.409668e+003,-4.784769e+000
2.410632e+003,-4.454587e+000
2.411596e+003,-3.542007e+000
2.412560e+003,-2.367053e+000
2.413525e+003,-2.550171e+000
2.414489e+003,-3.756235e+000
2.415453e+003,-4.275659e+000
2.416417e+003,-3.948334e+000
2.417382e+003,-3.337882e+000
2.418346e+003,-2.766327e+000
2.419310e+003,-2.766980e+000
2.420274e+003,-3.523193e+000
2.421239e+003,-4.107181e+000
2.422203e+003,-3.968005e+000
2.423167e+003,-3.354800e+000
2.424131e+003,-1.904215e+000
2.425095e+003,-7.585785e-001
2.426060e+003,-9.476471e-001
2.427024e+003,-1.394943e+000
2.427988e+003,-1.433945e+000
2.428952e+003,-1.186841e+000
2.429917e+003,-3.820343e-001
2.430881e+003,3.274841e-001
2.431845e+003,-4.025940e-001
2.432809e+003,-2.055188e+000
2.433773e+003,-2.405423e+000
2.434738e+003,-1.443051e+000
2.435702e+003,-1.628525e+000
2.436666e+003,-3.777963e+000
2.437630e+003,-3.883667e+000
2.438595e+003,-1.192044e+000
2.439559e+003,-4.502564e-002
2.440523e+003,-1.301535e+000
2.441487e+003,-1.401831e+000
2.442452e+003,7.777222e-001
2.443416e+003,2.393060e+000
2.444380e+003,1.994959e+000
2.445344e+003,6.135986e-001
2.446309e+003,-9.683625e-001
2.447273e+003,-1.622885e+000
2.448237e+003,4.742950e-001
2.449201e+003,3.539288e+000
2.450166e+003,4.988971e+000
2.451130e+003,5.146750e+000
2.452094e+003,3.649939e+000
2.453058e+003,1.848590e+000
2.454022e+003,2.261075e+000
2.454987e+003,3.642203e+000
2.455951e+003,3.257434e+000
2.456915e+003,1.653177e+000
2.457879e+003,1.082965e+000
2.458844e+003,1.795367e+000
2.459808e+003,2.572995e+000
2.460772e+003,3.155603e+000
2.461736e+003,3.553534e+000
2.462700e+003,3.541412e+000
2.463665e+003,3.668478e+000
2.464629e+003,4.618955e+000
2.465593e+003,4.706033e+000
2.466557e+003,2.849616e+000
2.467522e+003,1.600912e+000
2.468486e+003,2.076987e+000
2.469450e+003,3.372812e+000
2.470414e+003,5.145767e+000
2.471379e+003,6.180191e+000
2.472343e+003,4.816034e+000
2.473307e+003,2.558768e+000
2.474271e+003,2.637900e+000
2.475236e+003,4.287482e+000
2.476200e+003,5.216388e+000
2.477164e+003,5.522043e+000
2.478128e+003,5.262564e+000
2.479093e+003,4.726364e+000
2.480057e+003,4.604538e+000
2.481021e+003,4.814801e+000
2.481985e+003,4.935534e+000
2.482949e+003,4.940918e+000
2.483914e+003,5.108813e+000
2.484878e+003,5.455231e+000
2.485842e+003,5.463351e+000
2.486806e+003,4.789575e+000
2.487771e+003,4.712320e+000
2.488735e+003,6.207825e+000
2.489699e+003,7.543979e+000
2.490663e+003,8.237055e+000
2.491627e+003,8.683985e+000
2.492592e+003,9.059866e+000
2.493556e+003,9.207425e+000
2.494520e+003,8.957474e+000
2.495484e+003,8.590677e+000
2.496449e+003,8.159274e+000
2.497413e+003,8.164230e+000
2.498377e+003,9.482471e+000
2.499341e+003,1.142479e+001
2.500306e+003,1.218502e+001
2.501270e+003,1.196128e+001
2.502234e+003,1.151909e+001
2.503198e+003,1.085514e+001
2.504163e+003,9.376758e+000
2.505127e+003,7.832300e+000
2.506091e+003,9.141928e+000
2.507055e+003,1.235729e+001
2.508020e+003,1.370938e+001
2.508984e+003,1.295038e+001
2.509948e+003,1.259724e+001
2.510912e+003,1.334130e+001
2.511876e+003,1.355408e+001
2.512841e+003,1.227270e+001
2.513805e+003,1.187345e+001
2.514769e+003,1.425207e+001
2.515733e+003,1.581464e+001
2.516698e+003,1.479458e+001
2.517662e+003,1.404201e+001
2.518626e+003,1.441712e+001
2.519590e+003,1.544495e+001
2.520554e+003,1.704322e+001
2.521519e+003,1.872423e+001
2.522483e+003,2.005386e+001
2.523447e+003,2.133673e+001
2.524411e+003,2.316100e+001
2.525376e+003,2.495086e+001
2.526340e+003,2.482995e+001
2.527304e+003,2.359042e+001
2.528268e+003,2.402105e+001
2.529233e+003,2.543910e+001
2.530197e+003,2.598511e+001
2.531161e+003,2.621193e+001
2.532125e+003,2.772217e+001
2.533090e+003,3.013248e+001
2.534054e+003,3.242057e+001
2.535018e+003,3.418433e+001
2.535982e+003,3.464467e+001
2.536947e+003,3.374277e+001
2.537911e+003,3.377765e+001
2.538875e+003,3.563846e+001
2.539839e+003,3.740065e+001
2.540803e+003,3.892532e+001
2.541768e+003,4.010256e+001
2.542732e+003,4.097506e+001
2.543696e+003,4.117614e+001
2.544660e+003,4.038560e+001
2.545625e+003,4.024642e+001
2.546589e+003,4.160226e+001
2.547553e+003,4.285256e+001
2.548517e+003,4.270849e+001
2.549482e+003,4.252548e+001
2.550446e+003,4.403235e+001
2.551410e+003,4.596612e+001
2.552374e+003,4.625443e+001
2.553339e+003,4.576513e+001
2.554303e+003,4.579419e+001
2.555267e+003,4.588263e+001
2.556231e+003,4.557661e+001
2.557196e+003,4.477673e+001
2.558160e+003,4.320254e+001
2.559124e+003,4.121215e+001
2.560088e+003,3.918162e+001
2.561052e+003,3.737294e+001
2.562017e+003,3.633144e+001
2.562981e+003,3.602130e+001
2.563945e+003,3.575533e+001
2.564909e+003,3.563209e+001
2.565874e+003,3.481645e+001
2.566838e+003,3.313856e+001
2.567802e+003,3.269932e+001
2.568766e+003,3.368448e+001
2.569730e+003,3.285238e+001
2.570695e+003,2.975169e+001
2.571659e+003,2.718629e+001
2.572623e+003,2.606240e+001
2.573587e+003,2.528586e+001
2.574552e+003,2.428818e+001
2.575516e+003,2.271881e+001
2.576480e+003,2.000073e+001
2.577444e+003,1.786509e+001
2.578409e+003,1.780675e+001
2.579373e+003,1.802947e+001
2.580337e+003,1.774678e+001
2.581301e+003,1.734079e+001
2.582266e+003,1.710439e+001
2.583230e+003,1.677813e+001
2.584194e+003,1.605001e+001
2.585158e+003,1.526566e+001
2.586123e+003,1.485909e+001
2.587087e+003,1.448460e+001
2.588051e+003,1.348996e+001
2.589015e+003,1.214296e+001
2.589979e+003,1.116425e+001
2.590944e+003,1.056418e+001
2.591908e+003,1.074029e+001
2.592872e+003,1.115465e+001
2.593836e+003,1.032866e+001
2.594801e+003,8.692182e+000
2.595765e+003,7.238977e+000
2.596729e+003,6.029343e+000
2.597693e+003,4.638132e+000
2.598657e+003,3.219949e+000
2.599622e+003,2.620117e+000
2.600586e+003,2.965778e+000
2.601550e+003,3.024985e+000
2.602514e+003,2.430798e+000
2.603479e+003,2.067420e+000
2.604443e+003,1.939813e+000
2.605407e+003,2.026642e+000
2.606371e+003,2.362604e+000
2.607336e+003,2.962439e+000
2.608300e+003,3.838986e+000
2.609264e+003,4.203977e+000
2.610228e+003,3.745834e+000
2.611193e+003,2.494241e+000
2.612157e+003,5.312897e-001
2.613121e+003,-1.060599e+000
2.614085e+003,-1.385706e+000
2.615050e+003,-1.336597e+000
2.616014e+003,-1.647232e+000
2.616978e+003,-1.879681e+000
2.617942e+003,-1.881702e+000
2.618906e+003,-1.501355e+000
2.619871e+003,7.157288e-002
2.620835e+003,1.180591e+000
2.621799e+003,4.369507e-002
2.622763e+003,-1.262140e+000
2.623728e+003,-7.256134e-001
2.624692e+003,6.264191e-001
2.625656e+003,1.215439e+000
2.626620e+003,1.194348e+000
2.627584e+003,7.857910e-001
2.628549e+003,2.333038e-001
2.629513e+003,7.540802e-001
2.630477e+003,1.534747e+000
2.631441e+003,1.143219e-001
2.632406e+003,-2.030743e+000
2.633370e+003,-1.516461e+000
2.634334e+003,4.839905e-001
2.635298e+003,7.898620e-001
2.636263e+003,-2.850677e-001
2.637227e+003,-2.120972e-002
2.638191e+003,1.756970e+000
2.639155e+003,1.724722e+000
2.640120e+003,-5.822998e-001
2.641084e+003,-2.419403e+000
2.642048e+003,-4.061220e+000
2.643012e+003,-3.105850e+000
2.643977e+003,5.999634e-001
2.644941e+003,2.114102e+000
2.645905e+003,8.672608e-001
2.646869e+003,-6.161529e-001
2.647833e+003,-1.517398e+000
2.648798e+003,-2.057172e+000
2.649762e+003,-2.316827e+000
2.650726e+003,-2.095566e+000
2.651690e+003,-1.158701e+000
2.652655e+003,-4.988098e-001
2.653619e+003,-1.366727e+000
2.654583e+003,-1.257401e+000
2.655547e+003,2.132745e+000
2.656511e+003,3.979852e+000
2.657476e+003,2.420035e+000
2.658440e+003,6.294800e-001
2.659404e+003,-1.482849e-001
2.660368e+003,-4.267853e-001
2.661333e+003,-5.129608e-001
2.662297e+003,-5.993652e-001
2.663261e+003,-9.001282e-001
2.664225e+003,-1.246454e+000
2.665190e+003,-1.303394e+000
2.666154e+003,-1.431424e+000
2.667118e+003,-2.738863e+000
2.668082e+003,-3.462714e+000
2.669047e+003,-8.941559e-001
2.670011e+003,1.775192e+000
2.670975e+003,1.084128e+000
2.671939e+003,-5.791413e-001
2.672904e+003,-4.371918e-001
2.673868e+003,5.499603e-001
2.674832e+003,1.115503e+000
2.675796e+003,1.248816e+000
2.676760e+003,9.277374e-001
2.677725e+003,1.534851e-001
2.678689e+003,-1.544489e+000
2.679653e+003,-3.417987e+000
2.680617e+003,-2.877754e+000
2.681582e+003,-1.071979e+000
2.682546e+003,-6.365967e-002
2.683510e+003,1.333618e-002
2.684474e+003,-1.199561e+000
2.685438e+003,-2.864412e+000
2.686403e+003,-2.846260e+000
2.687367e+003,-1.301593e+000
2.688331e+003,-8.958679e-001
2.689295e+003,-1.736259e+000
2.690260e+003,-1.191510e+000
2.691224e+003,1.071094e+000
2.692188e+003,1.394131e+000
2.693152e+003,-1.775635e-001
2.694117e+003,-9.609192e-001
2.695081e+003,-8.340637e-001
2.696045e+003,-8.397827e-001
2.697009e+003,-1.257858e+000
2.697974e+003,-2.456044e+000
2.698938e+003,-4.191077e+000
2.699902e+003,-4.622362e+000
2.700866e+003,-3.056633e+000
2.701831e+003,-1.883597e+000
2.702795e+003,-2.158243e+000
2.703759e+003,-1.974960e+000
2.704723e+003,-7.996979e-001
2.705688e+003,-4.301971e-001
2.706652e+003,-1.275798e+000
2.707616e+003,-1.582356e+000
2.708580e+003,-9.282471e-001
2.709544e+003,-1.127707e+000
2.710509e+003,-2.774405e+000
2.711473e+003,-4.042529e+000
2.712437e+003,-3.923103e+000
2.713401e+003,-3.098126e+000
2.714365e+003,-1.623497e+000
2.715330e+003,-6.006225e-001
2.716294e+003,-8.375458e-001
2.717258e+003,-1.266309e+000
2.718222e+003,-1.273251e+000
2.719187e+003,-1.931807e+000
2.720151e+003,-4.202423e+000
2.721115e+003,-5.168291e+000
2.722079e+003,-3.215617e+000
2.723044e+003,-1.214070e+000
2.724008e+003,-1.311630e+000
2.724972e+003,-2.050884e+000
2.725936e+003,-1.949443e+000
2.726901e+003,-1.721568e+000
2.727865e+003,-2.259058e+000
2.728829e+003,-2.879462e+000
2.729793e+003,-3.176886e+000
2.730758e+003,-3.174910e+000
2.731722e+003,-2.760498e+000
2.732686e+003,-2.226904e+000
2.733650e+003,-1.778493e+000
2.734615e+003,-1.202181e+000
2.735579e+003,-1.377899e-001
2.736543e+003,4.129791e-001
2.737507e+003,-1.055962e+000
2.738471e+003,-3.170635e+000
2.739436e+003,-3.229645e+000
2.740400e+003,-2.331720e+000
2.741364e+003,-2.192017e+000
2.742328e+003,-2.307022e+000
2.743292e+003,-2.303998e+000
2.744257e+003,-2.000809e+000
2.745221e+003,-7.687317e-001
2.746185e+003,4.325043e-001
2.747149e+003,1.877441e-001
2.748114e+003,-6.534927e-001
2.749078e+003,-8.464829e-001
2.750042e+003,-6.277100e-001
2.751006e+003,-6.461411e-001
2.751971e+003,-7.903168e-001
2.752935e+003,-4.478806e-001
2.753899e+003,-6.670227e-002
2.754863e+003,-1.006409e+000
2.755828e+003,-2.291152e+000
2.756792e+003,-2.025055e+000
2.757756e+003,-1.194878e+000
2.758720e+003,-1.964166e+000
2.759685e+003,-3.346393e+000
2.760649e+003,-2.320035e+000
2.761613e+003,1.775818e-002
2.762577e+003,-3.610229e-002
2.763542e+003,-2.014203e+000
2.764506e+003,-2.078755e+000
2.765470e+003,-7.392212e-001
2.766434e+003,-8.168854e-001
2.767398e+003,-1.783475e+000
2.768363e+003,-2.324072e+000
2.769327e+003,-2.360089e+000
2.770291e+003,-1.765410e+000
2.771255e+003,-9.207474e-001
2.772219e+003,-6.834641e-001
2.773184e+003,-1.033489e+000
2.774148e+003,-1.297758e+000
2.775112e+003,-1.471063e+000
2.776076e+003,-1.894490e+000
2.777041e+003,-2.575298e+000
2.778005e+003,-1.638400e+000
2.778969e+003,4.393280e-001
2.779933e+003,1.061969e+000
2.780898e+003,4.350952e-001
2.781862e+003,-4.168671e-001
2.782826e+003,-1.200087e+000
2.783790e+003,-1.741003e+000
2.784755e+003,-2.050914e+000
2.785719e+003,-2.335454e+000
2.786683e+003,-2.595242e+000
2.787647e+003,-2.308972e+000
2.788612e+003,-1.283768e+000
2.789576e+003,-1.945032e+000
2.790540e+003,-4.171039e+000
2.791504e+003,-4.534503e+000
2.792469e+003,-3.158304e+000
2.793433e+003,-1.253381e+000
2.794397e+003,4.490280e-001
2.795361e+003,4.319367e-001
2.796325e+003,-1.079153e+000
2.797290e+003,-2.528256e+000
2.798254e+003,-3.492419e+000
2.799218e+003,-3.001265e+000
2.800182e+003,-6.590530e-001
2.801146e+003,3.647797e-001
2.802111e+003,-8.546905e-002
2.803075e+003,3.957413e-001
2.804039e+003,1.725555e+000
2.805003e+003,2.237634e+000
2.805968e+003,1.838290e+000
2.806932e+003,1.265637e+000
2.807896e+003,6.963196e-001
2.808860e+003,-3.754929e-001
2.809825e+003,-1.843796e+000
2.810789e+003,-1.908275e+000
2.811753e+003,1.457260e-001
2.812717e+003,9.101059e-001
2.813682e+003,2.697449e-002
2.814646e+003,-4.386139e-001
2.815610e+003,-4.374985e-001
2.816574e+003,-2.168213e-001
2.817539e+003,4.622650e-002
2.818503e+003,-5.861756e-001
2.819467e+003,-1.785039e+000
2.820431e+003,-1.550896e+000
2.821396e+003,1.832901e-001
2.822360e+003,8.567795e-001
2.823324e+003,-2.466660e-001
2.824288e+003,-4.395645e-001
2.825252e+003,9.511108e-001
2.826217e+003,7.672073e-001
2.827181e+003,-1.051518e+000
2.828145e+003,-1.264203e+000
2.829109e+003,1.325500e-001
2.830073e+003,1.815695e+000
2.831038e+003,3.162198e+000
2.832002e+003,3.006442e+000
2.832966e+003,1.467018e+000
2.833930e+003,-4.855347e-002
2.834895e+003,-1.202876e+000
2.835859e+003,-1.437709e+000
2.836823e+003,-6.329376e-001
2.837787e+003,6.528457e-001
2.838752e+003,2.519943e+000
2.839716e+003,3.053436e+000
2.840680e+003,2.254013e+000
2.841644e+003,6.132782e-001
2.842609e+003,-1.345757e+000
2.843573e+003,-2.217638e+000
2.844537e+003,-2.033847e+000
2.845501e+003,-2.153203e+000
2.846466e+003,-2.786290e+000
2.847430e+003,-2.385275e+000
2.848394e+003,-5.753495e-001
2.849358e+003,-3.704925e-001
2.850323e+003,-1.919672e+000
2.851287e+003,-1.732103e+000
2.852251e+003,1.568604e-002
2.853215e+003,1.637248e+000
2.854179e+003,2.775571e+000
2.855144e+003,3.231073e+000
2.856108e+003,2.966284e+000
2.857072e+003,1.662248e+000
2.858036e+003,-3.954025e-001
2.859000e+003,-1.140840e+000
2.859965e+003,-4.597519e-001
2.860929e+003,1.076752e-001
2.861893e+003,5.475922e-001
2.862857e+003,4.981140e-001
2.863822e+003,1.771698e-002
2.864786e+003,-1.171471e+000
2.865750e+003,-2.429086e+000
2.866714e+003,-1.590823e+000
2.867679e+003,4.039337e-001
2.868643e+003,3.391830e-001
2.869607e+003,-1.421614e+000
2.870571e+003,-1.119125e+000
2.871536e+003,1.002866e+000
2.872500e+003,1.791769e+000
2.873464e+003,1.277731e+000
2.874428e+003,8.529221e-001
2.875393e+003,4.215500e-001
2.876357e+003,-9.054871e-001
2.877321e+003,-2.223633e+000
2.878285e+003,-1.115375e+000
2.879250e+003,1.235544e+000
2.880214e+003,2.234528e+000
2.881178e+003,1.982700e+000
2.882142e+003,1.749760e+000
2.883106e+003,1.457083e+000
2.884071e+003,4.867752e-001
2.885035e+003,-8.528427e-001
2.885999e+003,-9.010254e-001
2.886963e+003,4.412079e-002
2.887927e+003,1.981337e+000
2.888892e+003,3.848819e+000
2.889856e+003,3.623437e+000
2.890820e+003,2.553226e+000
2.891784e+003,3.070660e+000
2.892749e+003,3.892856e+000
2.893713e+003,2.533350e+000
2.894677e+003,2.211014e-001
2.895641e+003,-2.120132e-001
2.896606e+003,4.956757e-001
2.897570e+003,3.003128e-001
2.898534e+003,-1.588226e-001
2.899498e+003,2.233460e-001
2.900463e+003,8.659851e-001
2.901427e+003,1.202957e+000
2.902391e+003,1.301038e+000
2.903355e+003,1.302637e+000
2.904320e+003,1.019182e+000
2.905284e+003,1.008484e-001
2.906248e+003,-6.499954e-001
2.907212e+003,1.699493e-001
2.908177e+003,1.303485e+000
2.909141e+003,1.558868e-001
2.910105e+003,-1.210475e+000
2.911069e+003,-2.233246e-001
2.912033e+003,1.026704e+000
2.912998e+003,1.065739e+000
2.913962e+003,5.318009e-001
2.914926e+003,-4.365509e-001
2.915890e+003,-9.232758e-001
2.916854e+003,-2.031281e-001
2.917819e+003,6.082779e-001
2.918783e+003,3.101517e-001
2.919747e+003,9.029541e-002
2.920711e+003,1.914896e+000
2.921676e+003,3.235142e+000
2.922640e+003,1.641478e+000
2.923604e+003,3.956009e-001
2.924568e+003,1.080386e+000
2.925533e+003,1.588110e+000
2.926497e+003,1.149042e+000
2.927461e+003,7.773498e-001
2.928425e+003,1.042702e+000
2.929390e+003,-1.523204e+000
2.930354e+003,-1.013936e+001
2.931318e+003,-1.510510e+001
2.932282e+003,-6.569842e+000
2.933247e+003,-8.612823e-002
2.934211e+003,-8.823181e-001
2.935175e+003,-1.392783e+000
2.936139e+003,-1.118179e+000
2.937104e+003,-2.228714e-001
2.938068e+003,1.203889e+000
2.939032e+003,2.184746e+000
2.939996e+003,2.449568e+000
2.940960e+003,2.804863e+000
2.941925e+003,3.527833e+000
2.942889e+003,3.194504e+000
2.943853e+003,7.686203e-001
2.944817e+003,-7.920105e-001
2.945781e+003,-1.380096e+000
2.946746e+003,-1.118561e+000
2.947710e+003,-1.066711e-001
2.948674e+003,1.078630e+000
2.949638e+003,2.082651e+000
2.950603e+003,1.720920e+000
2.951567e+003,3.723282e-001
2.952531e+003,1.493240e-001
2.953495e+003,1.309589e+000
2.954460e+003,2.209938e+000
2.955424e+003,2.790527e+000
2.956388e+003,1.251202e+000
2.957352e+003,-1.927246e+000
2.958317e+003,-1.410141e+000
2.959281e+003,1.373573e+000
2.960245e+003,2.434543e+000
2.961209e+003,2.071695e+000
2.962174e+003,1.267322e+000
2.963138e+003,5.037414e-001
2.964102e+003,4.742737e-001
2.965066e+003,9.285324e-001
2.966031e+003,1.364648e+000
2.966995e+003,1.717281e+000
2.967959e+003,1.820103e+000
2.968923e+003,1.624083e+000
2.969887e+003,4.525604e-001
2.970852e+003,-4.506958e-001
2.971816e+003,1.499979e+000
2.972780e+003,3.344992e+000
2.973744e+003,1.156349e+000
2.974708e+003,-1.372101e+000
2.975673e+003,-1.135048e+000
2.976637e+003,1.514236e-001
2.977601e+003,4.906906e-001
2.978565e+003,5.035370e-001
2.979530e+003,9.933273e-001
2.980494e+003,1.601236e+000
2.981458e+003,2.148048e+000
2.982422e+003,2.582783e+000
2.983387e+003,3.159543e+000
2.984351e+003,2.862863e+000
2.985315e+003,1.203928e+000
2.986279e+003,-2.777420e-001
2.987244e+003,-7.842285e-001
2.988208e+003,-4.921555e-001
2.989172e+003,5.281967e-001
2.990136e+003,1.501363e+000
2.991101e+003,2.162467e+000
2.992065e+003,2.333571e+000
2.993029e+003,1.780380e+000
2.993993e+003,1.268468e+000
2.994958e+003,8.555878e-001
2.995922e+003,5.311173e-001
2.996886e+003,3.725891e-001
2.997850e+003,1.019736e+000
2.998814e+003,2.315134e+000
2.999779e+003,2.613554e+000
3.000743e+003,1.476353e+000
3.001707e+003,7.980896e-001
3.002671e+003,7.644547e-001
3.003635e+003,1.373837e+000
3.004600e+003,2.494278e+000
3.005564e+003,1.543420e+000
3.006528e+003,-5.978317e-001
3.007492e+003,-8.026276e-001
3.008457e+003,3.885697e-001
3.009421e+003,1.319540e+000
3.010385e+003,1.715968e+000
3.011349e+003,1.693741e+000
3.012314e+003,1.191536e+000
3.013278e+003,-2.740082e-001
3.014242e+003,-2.055432e+000
3.015206e+003,-1.874359e+000
3.016171e+003,-6.212357e-001
3.017135e+003,6.854035e-001
3.018099e+003,1.656555e+000
3.019063e+003,1.666087e+000
3.020028e+003,1.540733e+000
3.020992e+003,2.231166e+000
3.021956e+003,2.316260e+000
3.022920e+003,4.480942e-001
3.023885e+003,-1.622139e+000
3.024849e+003,-2.018854e+000
3.025813e+003,-1.519339e+000
3.026777e+003,-9.682312e-002
3.027741e+003,7.571121e-001
3.028706e+003,-7.089340e-001
3.029670e+003,-9.083847e-001
3.030634e+003,1.418117e+000
3.031598e+003,2.497427e+000
3.032563e+003,1.164743e+000
3.033527e+003,-3.512360e-001
3.034491e+003,-9.905060e-001
3.035455e+003,-6.959961e-001
3.036420e+003,7.776474e-001
3.037384e+003,1.639189e+000
3.038348e+003,1.226781e+000
3.039312e+003,1.373129e+000
3.040277e+003,2.107944e+000
3.041241e+003,1.521617e+000
3.042205e+003,-1.143356e-001
3.043169e+003,-1.122267e+000
3.044134e+003,-1.262122e+000
3.045098e+003,-6.733505e-001
3.046062e+003,4.004990e-001
3.047026e+003,1.343365e+000
3.047990e+003,2.050104e+000
3.048955e+003,1.958809e+000
3.049919e+003,1.198587e+000
3.050883e+003,3.983765e-002
3.051847e+003,-1.109010e+000
3.052812e+003,-1.524034e+000
3.053776e+003,-1.525374e+000
3.054740e+003,-1.670609e+000
3.055704e+003,-1.426854e+000
3.056668e+003,-1.159225e-001
3.057633e+003,1.275868e+000
3.058597e+003,1.668216e+000
3.059561e+003,1.484589e+000
3.060525e+003,1.095912e+000
3.061490e+003,6.297989e-001
3.062454e+003,8.285065e-002
3.063418e+003,-3.376648e-001
3.064382e+003,-6.857575e-001
3.065347e+003,-4.470108e-001
3.066311e+003,5.550156e-001
3.067275e+003,7.026642e-001
3.068239e+003,-4.213623e-001
3.069204e+003,-5.940521e-001
3.070168e+003,1.156810e+000
3.071132e+003,2.281628e+000
3.072096e+003,1.550003e+000
3.073061e+003,1.381842e+000
3.074025e+003,1.868350e+000
3.074989e+003,2.545961e+000
3.075953e+003,3.137344e+000
3.076917e+003,2.378462e+000
3.077882e+003,7.318329e-001
3.078846e+003,-2.902893e-001
3.079810e+003,-6.732758e-001
3.080774e+003,-1.324902e+000
3.081739e+003,-1.973486e+000
3.082703e+003,-1.531618e+000
3.083667e+003,-4.217483e-001
3.084631e+003,8.282318e-002
3.085595e+003,1.742661e-001
3.086560e+003,-9.389190e-002
3.087524e+003,-2.934341e-001
3.088488e+003,1.421280e-001
3.089452e+003,6.024857e-001
3.090417e+003,7.232376e-001
3.091381e+003,5.328400e-001
3.092345e+003,3.609314e-002
3.093309e+003,-4.392273e-001
3.094274e+003,-7.140015e-001
3.095238e+003,-4.548157e-001
3.096202e+003,1.269118e+000
3.097166e+003,2.237382e+000
3.098131e+003,1.913902e+000
3.099095e+003,1.560768e+000
3.100059e+003,1.386618e+000
3.101023e+003,9.942948e-001
3.101988e+003,4.575012e-001
3.102952e+003,7.766830e-001
3.103916e+003,2.020923e+000
3.104880e+003,2.248491e+000
3.105844e+003,1.228157e+000
3.106809e+003,2.995941e-001
3.107773e+003,-4.855789e-001
3.108737e+003,-2.331879e-001
3.109701e+003,4.671051e-001
3.110666e+003,1.383011e-001
3.111630e+003,-6.740707e-001
3.112594e+003,-9.655350e-001
3.113558e+003,-1.061029e+000
3.114522e+003,-1.656593e+000
3.115487e+003,-1.898363e+000
3.116451e+003,-3.772583e-001
3.117415e+003,1.457816e+000
3.118379e+003,1.528107e+000
3.119344e+003,9.326752e-001
3.120308e+003,1.244919e-001
3.121272e+003,-5.463913e-001
3.122236e+003,-1.064507e+000
3.123201e+003,-9.163788e-001
3.124165e+003,2.818298e-002
3.125129e+003,5.294968e-001
3.126093e+003,1.019592e-001
3.127058e+003,-5.977783e-001
3.128022e+003,-1.388983e+000
3.128986e+003,-1.337572e+000
3.129950e+003,2.557373e-003
3.130915e+003,6.673965e-001
3.131879e+003,6.910370e-001
3.132843e+003,2.538681e-001
3.133807e+003,-4.034882e-001
3.134771e+003,-9.134110e-001
3.135736e+003,-1.067664e+000
3.136700e+003,-9.934998e-002
3.137664e+003,1.043979e+000
3.138628e+003,4.566254e-001
3.139593e+003,-9.465729e-001
3.140557e+003,-1.034572e+000
3.141521e+003,-6.091461e-001
3.142485e+003,-9.363815e-001
3.143449e+003,-1.236459e+000
3.144414e+003,-4.400055e-001
3.145378e+003,-3.413498e-001
3.146342e+003,-1.931108e+000
3.147306e+003,-2.517541e+000
3.148271e+003,-8.921677e-001
3.149235e+003,8.191711e-001
3.150199e+003,1.435594e+000
3.151163e+003,1.713002e+000
3.152128e+003,2.378255e+000
3.153092e+003,1.300932e+000
3.154056e+003,-1.891438e+000
3.155020e+003,-2.711279e+000
3.155985e+003,-1.408569e+000
3.156949e+003,-2.740448e-001
3.157913e+003,2.190567e-001
3.158877e+003,-4.003906e-001
3.159842e+003,-1.575394e+000
3.160806e+003,-1.763100e+000
3.161770e+003,-1.206966e+000
3.162734e+003,-4.684326e-001
3.163698e+003,2.863342e-001
3.164663e+003,5.846527e-001
3.165627e+003,8.007218e-001
3.166591e+003,1.643398e+000
3.167555e+003,2.063478e+000
3.168520e+003,1.394148e+000
3.169484e+003,5.371399e-001
3.170448e+003,-8.171539e-002
3.171412e+003,-5.827179e-001
3.172376e+003,-1.041742e+000
3.173341e+003,-9.829208e-001
3.174305e+003,1.473114e-001
3.175269e+003,8.674347e-001
3.176233e+003,1.069211e+000
3.177198e+003,6.216385e-001
3.178162e+003,-3.258774e-001
3.179126e+003,-6.987289e-001
3.180090e+003,-6.566132e-001
3.181055e+003,-1.181027e+000
3.182019e+003,-1.970181e+000
3.182983e+003,-1.727296e+000
3.183947e+003,-1.040366e+000
3.184912e+003,-1.484375e+000
3.185876e+003,-2.281593e+000
3.186840e+003,-1.526115e+000
3.187804e+003,-3.582062e-001
3.188769e+003,2.222488e-001
3.189733e+003,4.384506e-001
3.190697e+003,4.141189e-001
3.191661e+003,8.827667e-002
3.192625e+003,-5.559204e-001
3.193590e+003,-6.840805e-001
3.194554e+003,9.286652e-002
3.195518e+003,3.610581e-001
3.196482e+003,-8.477173e-001
3.197447e+003,-1.259059e+000
3.198411e+003,-6.000992e-001
3.199375e+003,2.279373e-001
3.200339e+003,1.007187e+000
3.201303e+003,5.344208e-001
3.202268e+003,-5.527679e-001
3.203232e+003,-4.877213e-001
3.204196e+003,1.925232e-001
3.205160e+003,-3.319443e-001
3.206125e+003,-7.966706e-001
3.207089e+003,1.545523e+000
3.208053e+003,4.306761e+000
3.209017e+003,2.673946e+000
3.209982e+003,3.980927e-001
3.210946e+003,6.870407e-001
3.211910e+003,1.223209e+000
3.212874e+003,1.194164e+000
3.213839e+003,8.173645e-001
3.214803e+003,2.249908e-001
3.215767e+003,2.264740e-001
3.216731e+003,1.036960e+000
3.217696e+003,9.964691e-001
3.218660e+003,-7.835968e-001
3.219624e+003,-4.704132e-001
3.220588e+003,2.033431e+000
3.221552e+003,2.303699e+000
3.222517e+003,1.065831e+000
3.223481e+003,2.396622e-001
3.224445e+003,4.349213e-002
3.225409e+003,1.183383e+000
3.226374e+003,2.112703e+000
3.227338e+003,8.658997e-001
3.228302e+003,-4.045669e-001
3.229266e+003,1.184286e+000
3.230230e+003,2.973134e+000
3.231195e+003,1.750848e+000
3.232159e+003,3.094513e-001
3.233123e+003,-2.474152e-001
3.234087e+003,-4.805512e-001
3.235052e+003,-4.623016e-001
3.236016e+003,-5.880264e-001
3.236980e+003,-9.181259e-001
3.237944e+003,-1.406229e+000
3.238909e+003,-1.880879e+000
3.239873e+003,-1.077029e+000
3.240837e+003,6.947632e-001
3.241801e+003,3.425491e-001
3.242766e+003,-1.457249e+000
3.243730e+003,-2.224616e+000
3.244694e+003,-2.204636e+000
3.245658e+003,-1.356697e+000
3.246623e+003,-4.767136e-001
3.247587e+003,-1.758499e-001
3.248551e+003,-8.691864e-002
3.249515e+003,2.256317e-002
3.250479e+003,-1.251541e-001
3.251444e+003,-8.197204e-001
3.252408e+003,-1.235983e+000
3.253372e+003,-4.718002e-001
3.254336e+003,-4.277130e-001
3.255301e+003,-1.245898e+000
3.256265e+003,-1.928981e+000
3.257229e+003,-2.336581e+000
3.258193e+003,-2.207874e+000
3.259157e+003,-1.850833e+000
3.260122e+003,-2.444719e+000
3.261086e+003,-3.106009e+000
3.262050e+003,-1.635971e+000
3.263014e+003,6.530182e-001
3.263979e+003,7.072724e-001
3.264943e+003,-8.454438e-002
3.265907e+003,-6.772003e-002
3.266871e+003,-2.186966e-001
3.267836e+003,-1.525621e+000
3.268800e+003,-1.723091e+000
3.269764e+003,-1.764816e-001
3.270728e+003,1.220323e+000
3.271693e+003,1.641121e+000
3.272657e+003,5.177795e-001
3.273621e+003,-2.465251e+000
3.274585e+003,-2.913743e+000
3.275550e+003,-5.597870e-001
3.276514e+003,2.704758e-001
3.277478e+003,-1.111298e-002
3.278442e+003,-5.683120e-001
3.279406e+003,-1.138902e+000
3.280371e+003,-1.588405e+000
3.281335e+003,-1.697005e+000
3.282299e+003,-1.223071e+000
3.283263e+003,-8.133133e-001
3.284228e+003,-1.112201e+000
3.285192e+003,-1.350003e+000
3.286156e+003,-8.007813e-001
3.287120e+003,-1.987778e-001
3.288084e+003,1.607635e-001
3.289049e+003,1.414244e+000
3.290013e+003,3.317450e+000
3.290977e+003,2.073582e+000
3.291941e+003,-1.347772e+000
3.292906e+003,-2.127707e+000
3.293870e+003,-3.673142e-001
3.294834e+003,8.462921e-001
3.295798e+003,1.377603e+000
3.296763e+003,5.375565e-001
3.297727e+003,-5.800720e-001
3.298691e+003,2.535126e-001
3.299655e+003,1.135231e+000
3.300620e+003,3.313293e-001
3.301584e+003,-3.190674e-001
3.302548e+003,-3.036758e-001
3.303512e+003,-4.515885e-001
3.304477e+003,-8.584839e-001
3.305441e+003,6.722534e-001
3.306405e+003,4.962537e+000
3.307369e+003,5.796884e+000
3.308333e+003,2.744025e+000
3.309298e+003,2.070793e+000
3.310262e+003,2.916788e+000
3.311226e+003,2.966300e+000
3.312190e+003,2.426117e+000
3.313155e+003,1.345551e+000
3.314119e+003,5.722107e-001
3.315083e+003,7.375396e-001
3.316047e+003,1.417523e+000
3.317011e+003,2.344803e+000
3.317976e+003,2.490681e+000
3.318940e+003,6.925201e-002
3.319904e+003,-6.021683e-001
3.320868e+003,1.752980e+000
3.321833e+003,1.883958e+000
3.322797e+003,1.523132e-002
3.323761e+003,-1.293838e-001
3.324725e+003,1.170992e+000
3.325690e+003,1.928877e+000
3.326654e+003,2.061822e+000
3.327618e+003,1.997971e+000
3.328582e+003,1.963783e+000
3.329547e+003,2.625455e+000
3.330511e+003,3.173770e+000
3.331475e+003,2.321461e+000
3.332439e+003,1.605003e+000
3.333404e+003,1.807230e+000
3.334368e+003,1.594829e+000
3.335332e+003,7.577484e-001
3.336296e+003,5.151520e-001
3.337260e+003,9.138001e-001
3.338225e+003,6.485443e-002
3.339189e+003,-2.181576e+000
3.340153e+003,-2.906271e+000
3.341117e+003,-2.339261e+000
3.342082e+003,-1.308067e+000
3.343046e+003,-4.176514e-001
3.344010e+003,-8.807373e-001
3.344974e+003,-1.586307e+000
3.345938e+003,-1.736716e+000
3.346903e+003,-1.682805e+000
3.347867e+003,-1.591800e+000
3.348831e+003,-9.304947e-001
3.349795e+003,6.199738e-001
3.350760e+003,1.269681e+000
3.351724e+003,-1.426559e-001
3.352688e+003,-3.181351e-001
3.353652e+003,5.789337e-001
3.354617e+003,7.681640e-001
3.355581e+003,4.313965e-001
3.356545e+003,1.426910e-001
3.357509e+003,-2.378479e-001
3.358474e+003,-9.882095e-001
3.359438e+003,-1.868469e+000
3.360402e+003,-2.755046e+000
3.361366e+003,-2.589752e+000
3.362331e+003,7.858337e-001
3.363295e+003,2.456249e+000
3.364259e+003,-5.687653e-001
3.365223e+003,-1.587286e+000
3.366188e+003,-3.614792e-001
3.367152e+003,4.087067e-002
3.368116e+003,-4.623093e-001
3.369080e+003,-5.960968e-001
3.370044e+003,-4.831360e-001
3.371009e+003,-9.398972e-001
3.371973e+003,-1.529039e+000
3.372937e+003,-1.329395e+000
3.373901e+003,-9.903183e-001
3.374865e+003,-1.664716e+000
3.375830e+003,-1.759670e+000
3.376794e+003,-2.120499e-001
3.377758e+003,-5.655060e-002
3.378722e+003,-1.662264e+000
3.379687e+003,-2.070175e+000
3.380651e+003,-9.174011e-001
3.381615e+003,-7.413834e-001
3.382579e+003,-1.672142e+000
3.383544e+003,-1.720750e+000
3.384508e+003,-1.135327e+000
3.385472e+003,-3.126206e-001
3.386436e+003,2.763367e-003
3.387401e+003,-2.199971e+000
3.388365e+003,-3.434334e+000
3.389329e+003,-1.831598e+000
3.390293e+003,-5.431534e-001
3.391258e+003,-7.882690e-001
3.392222e+003,-1.151982e+000
3.393186e+003,-1.037166e+000
3.394150e+003,-4.822830e-001
3.395115e+003,4.336304e-001
3.396079e+003,2.727660e+000
3.397043e+003,5.206039e+000
3.398007e+003,3.022458e+000
3.398971e+003,-2.844757e-001
3.399936e+003,2.890167e-001
3.400900e+003,2.172197e+000
3.401864e+003,3.818811e+000
3.402828e+003,4.034959e+000
3.403792e+003,1.928403e+000
3.404757e+003,9.560913e-001
3.405721e+003,3.847940e+000
3.406685e+003,5.135750e+000
3.407649e+003,4.617015e+000
3.408614e+003,4.884168e+000
3.409578e+003,6.098450e+000
3.410542e+003,9.015079e+000
3.411506e+003,1.189342e+001
3.412471e+003,1.209374e+001
3.413435e+003,1.143578e+001
3.414399e+003,1.170688e+001
3.415363e+003,1.183703e+001
3.416328e+003,1.009160e+001
3.417292e+003,9.710632e+000
3.418256e+003,1.226735e+001
3.419220e+003,1.468526e+001
3.420185e+003,1.654838e+001
3.421149e+003,1.611466e+001
3.422113e+003,1.411173e+001
3.423077e+003,1.232264e+001
3.424042e+003,1.159182e+001
3.425006e+003,1.306859e+001
3.425970e+003,1.472460e+001
3.426934e+003,1.291704e+001
