7.140112e+001,1.293686e+002
7.236536e+001,1.279034e+002
7.332959e+001,1.300136e+002
7.429382e+001,1.319662e+002
7.525806e+001,1.346437e+002
7.622229e+001,1.333604e+002
7.718652e+001,1.238911e+002
7.815076e+001,1.010094e+002
7.911499e+001,8.687508e+001
8.007922e+001,7.993764e+001
8.104346e+001,7.947021e+001
8.200769e+001,8.564302e+001
8.297192e+001,1.034753e+002
8.393616e+001,1.212337e+002
8.490039e+001,1.405562e+002
8.586462e+001,1.575683e+002
8.682886e+001,1.661284e+002
8.779310e+001,1.510614e+002
8.875733e+001,1.284664e+002
8.972157e+001,1.060894e+002
9.068580e+001,8.723711e+001
9.165003e+001,7.245044e+001
9.261427e+001,6.730415e+001
9.357850e+001,6.871273e+001
9.454273e+001,7.237157e+001
9.550697e+001,7.565190e+001
9.647120e+001,7.921240e+001
9.743543e+001,7.967397e+001
9.839967e+001,7.615918e+001
9.936390e+001,7.058099e+001
1.003281e+002,6.497215e+001
1.012924e+002,5.815477e+001
1.022566e+002,5.331515e+001
1.032208e+002,5.159812e+001
1.041851e+002,5.232668e+001
1.051493e+002,5.383483e+001
1.061135e+002,5.633295e+001
1.070778e+002,5.771715e+001
1.080420e+002,5.629144e+001
1.090062e+002,5.189205e+001
1.099705e+002,4.612206e+001
1.109347e+002,4.286152e+001
1.118989e+002,4.123038e+001
1.128632e+002,4.086384e+001
1.138274e+002,4.149749e+001
1.147916e+002,4.334037e+001
1.157559e+002,4.500950e+001
1.167201e+002,4.693254e+001
1.176843e+002,4.861147e+001
1.186486e+002,4.929716e+001
1.196128e+002,4.735683e+001
1.205770e+002,4.657200e+001
1.215413e+002,4.904079e+001
1.225055e+002,5.290176e+001
1.234697e+002,5.410601e+001
1.244340e+002,4.660661e+001
1.253982e+002,3.825648e+001
1.263624e+002,2.967059e+001
1.273267e+002,2.207241e+001
1.282909e+002,1.773391e+001
1.292551e+002,2.600315e+001
1.302194e+002,3.851504e+001
1.311836e+002,4.825419e+001
1.321478e+002,5.070638e+001
1.331121e+002,4.561360e+001
1.340763e+002,3.951670e+001
1.350405e+002,3.203805e+001
1.360048e+002,2.558967e+001
1.369690e+002,2.271222e+001
1.379332e+002,2.544537e+001
1.388975e+002,2.963124e+001
1.398617e+002,3.766956e+001
1.408259e+002,4.631739e+001
1.417902e+002,5.037036e+001
1.427544e+002,4.350836e+001
1.437186e+002,3.596482e+001
1.446829e+002,2.945659e+001
1.456471e+002,2.457965e+001
1.466113e+002,2.130164e+001
1.475756e+002,1.935044e+001
1.485398e+002,1.942416e+001
1.495040e+002,2.436348e+001
1.504683e+002,3.445481e+001
1.514325e+002,4.726226e+001
1.523967e+002,4.723381e+001
1.533610e+002,3.742111e+001
1.543252e+002,2.640834e+001
1.552894e+002,2.037443e+001
1.562537e+002,2.147907e+001
1.572179e+002,2.130974e+001
1.581821e+002,1.768292e+001
1.591464e+002,1.434033e+001
1.601106e+002,1.571713e+001
1.610748e+002,2.774767e+001
1.620391e+002,3.586871e+001
1.630033e+002,3.558235e+001
1.639676e+002,2.993243e+001
1.649318e+002,2.370109e+001
1.658960e+002,2.088810e+001
1.668603e+002,1.980139e+001
1.678245e+002,1.973861e+001
1.687887e+002,2.034387e+001
1.697530e+002,2.126255e+001
1.707172e+002,2.144300e+001
1.716814e+002,2.118508e+001
1.726457e+002,2.153823e+001
1.736099e+002,2.303048e+001
1.745741e+002,2.577884e+001
1.755384e+002,2.523829e+001
1.765026e+002,1.880155e+001
1.774668e+002,1.294977e+001
1.784311e+002,1.182654e+001
1.793953e+002,1.799137e+001
1.803595e+002,2.102351e+001
1.813238e+002,1.748827e+001
1.822880e+002,1.213781e+001
1.832522e+002,9.011828e+000
1.842165e+002,1.168093e+001
1.851807e+002,1.391865e+001
1.861449e+002,9.828644e+000
1.871092e+002,2.654388e+000
1.880734e+002,-3.255438e+000
1.890376e+002,-1.511676e+000
1.900019e+002,5.558942e+000
1.909661e+002,1.055294e+001
1.919303e+002,1.295739e+001
1.928946e+002,1.342740e+001
1.938588e+002,1.389488e+001
1.948230e+002,1.386448e+001
1.957873e+002,1.498469e+001
1.967515e+002,1.756270e+001
1.977157e+002,2.164783e+001
1.986800e+002,2.719066e+001
1.996442e+002,3.422312e+001
2.006084e+002,4.221000e+001
2.015727e+002,5.331340e+001
2.025369e+002,6.795378e+001
2.035011e+002,7.759985e+001
2.044654e+002,7.407224e+001
2.054296e+002,6.547826e+001
2.063938e+002,5.502587e+001
2.073581e+002,4.498427e+001
2.083223e+002,3.688895e+001
2.092865e+002,3.321804e+001
2.102508e+002,3.326402e+001
2.112150e+002,3.742157e+001
2.121792e+002,4.627642e+001
2.131435e+002,6.175974e+001
2.141077e+002,6.994137e+001
2.150719e+002,6.817087e+001
2.160362e+002,6.174506e+001
2.170004e+002,5.844684e+001
2.179646e+002,6.095652e+001
2.189289e+002,6.330967e+001
2.198931e+002,6.292758e+001
2.208573e+002,6.201697e+001
2.218216e+002,6.504251e+001
2.227858e+002,7.975114e+001
2.237500e+002,9.426511e+001
2.247143e+002,1.066925e+002
2.256785e+002,1.150540e+002
2.266427e+002,1.167740e+002
2.276070e+002,1.014253e+002
2.285712e+002,7.776273e+001
2.295354e+002,5.659152e+001
2.304997e+002,4.115334e+001
2.314639e+002,3.086955e+001
2.324281e+002,2.261260e+001
2.333924e+002,1.619463e+001
2.343566e+002,1.146504e+001
2.353208e+002,8.733124e+000
2.362851e+002,8.293671e+000
2.372493e+002,8.070935e+000
2.382135e+002,8.075628e+000
2.391778e+002,8.068909e+000
2.401420e+002,7.856519e+000
2.411062e+002,7.319543e+000
2.420705e+002,7.013031e+000
2.430347e+002,7.882581e+000
2.439989e+002,8.692591e+000
2.449632e+002,8.300519e+000
2.459274e+002,5.778473e+000
2.468916e+002,2.364331e+000
2.478559e+002,6.083069e-001
2.488201e+002,9.094238e-002
2.497843e+002,1.059143e-001
2.507486e+002,-1.723938e-001
2.517128e+002,-8.343506e-001
2.526770e+002,-3.933777e-001
2.536413e+002,1.313666e+000
2.546055e+002,3.720215e+000
2.555697e+002,6.039728e+000
2.565340e+002,8.745532e+000
2.574982e+002,1.059825e+001
2.584625e+002,1.175930e+001
2.594267e+002,1.218582e+001
2.603909e+002,1.160909e+001
2.613552e+002,8.197980e+000
2.623194e+002,5.480725e+000
2.632836e+002,5.672546e+000
2.642479e+002,8.061853e+000
2.652121e+002,1.081521e+001
2.661763e+002,1.124178e+001
2.671406e+002,1.005492e+001
2.681048e+002,7.886706e+000
2.690690e+002,4.969007e+000
2.700333e+002,1.871374e+000
2.709975e+002,1.210870e+000
2.719617e+002,3.951178e+000
2.729260e+002,5.914435e+000
2.738902e+002,5.910864e+000
2.748544e+002,3.961591e+000
2.758187e+002,2.254614e+000
2.767829e+002,6.049682e-001
2.777471e+002,-6.544983e-001
2.787114e+002,-1.155139e+000
2.796756e+002,-8.494141e-001
2.806398e+002,-4.924988e-001
2.816041e+002,-1.387158e+000
2.825683e+002,-2.035254e+000
2.835325e+002,-1.128998e+000
2.844968e+002,1.711072e+000
2.854610e+002,5.090625e+000
2.864252e+002,4.869134e+000
2.873895e+002,2.834729e+000
2.883537e+002,1.987097e+000
2.893179e+002,4.287262e+000
2.902822e+002,1.008455e+001
2.912464e+002,1.108835e+001
2.922106e+002,6.062433e+000
2.931749e+002,1.642151e-001
2.941391e+002,-3.515704e+000
2.951033e+002,-4.653577e+000
2.960676e+002,-4.448712e+000
2.970318e+002,-1.959290e+000
2.979960e+002,7.752686e-001
2.989603e+002,2.185559e+000
2.999245e+002,1.295727e+000
3.008887e+002,8.335571e-002
3.018530e+002,-3.643311e-001
3.028172e+002,-1.564514e-001
3.037814e+002,8.348877e-001
3.047457e+002,2.764636e+000
3.057099e+002,5.219842e+000
3.066741e+002,7.276398e+000
3.076384e+002,8.791583e+000
3.086026e+002,8.813886e+000
3.095668e+002,6.154486e+000
3.105311e+002,-7.101135e-001
3.114953e+002,-4.168628e+000
3.124595e+002,-2.509387e+000
3.134238e+002,1.001978e+000
3.143880e+002,2.432294e+000
3.153522e+002,-2.393860e-001
3.163165e+002,-1.879938e+000
3.172807e+002,-1.116394e+000
3.182449e+002,9.281006e-001
3.192092e+002,2.980518e+000
3.201734e+002,4.232806e+000
3.211376e+002,5.072772e+000
3.221019e+002,5.978088e+000
3.230661e+002,6.867957e+000
3.240303e+002,7.571832e+000
3.249946e+002,7.855505e+000
3.259588e+002,7.681769e+000
3.269230e+002,7.455286e+000
3.278873e+002,7.169135e+000
3.288515e+002,6.864496e+000
3.298157e+002,6.622412e+000
3.307800e+002,6.537744e+000
3.317442e+002,6.629315e+000
3.327084e+002,6.129968e+000
3.336727e+002,5.832532e+000
3.346369e+002,7.361536e+000
3.356011e+002,1.346745e+001
3.365654e+002,1.810981e+001
3.375296e+002,1.929459e+001
3.384938e+002,1.830955e+001
3.394581e+002,1.712532e+001
3.404223e+002,1.702068e+001
3.413865e+002,1.793083e+001
3.423508e+002,1.959175e+001
3.433150e+002,2.206234e+001
3.442792e+002,2.543872e+001
3.452435e+002,2.992679e+001
3.462077e+002,3.570685e+001
3.471719e+002,4.205735e+001
3.481362e+002,4.866307e+001
3.491004e+002,5.614434e+001
3.500646e+002,6.585255e+001
3.510289e+002,7.437126e+001
3.519931e+002,9.156622e+001
3.529573e+002,1.194563e+002
3.539216e+002,1.554999e+002
3.548858e+002,1.972707e+002
3.558500e+002,2.597396e+002
3.568143e+002,3.040739e+002
3.577785e+002,3.160018e+002
3.587427e+002,3.014948e+002
3.597070e+002,2.708613e+002
3.606712e+002,2.281216e+002
3.616354e+002,1.817112e+002
3.625997e+002,1.406703e+002
3.635639e+002,1.062841e+002
3.645281e+002,7.977766e+001
3.654924e+002,6.311642e+001
3.664566e+002,5.957885e+001
3.674208e+002,5.462601e+001
3.683851e+002,4.732665e+001
3.693493e+002,3.886217e+001
3.703135e+002,3.178532e+001
3.712778e+002,2.641451e+001
3.722420e+002,2.283142e+001
3.732062e+002,2.168786e+001
3.741705e+002,2.205917e+001
3.751347e+002,2.265137e+001
3.760989e+002,2.304644e+001
3.770632e+002,2.314734e+001
3.780274e+002,2.261036e+001
3.789916e+002,2.169531e+001
3.799559e+002,2.088586e+001
3.809201e+002,2.085485e+001
3.818844e+002,2.123539e+001
3.828486e+002,2.075231e+001
3.838128e+002,1.948820e+001
3.847771e+002,1.810169e+001
3.857413e+002,1.759160e+001
3.867055e+002,1.858058e+001
3.876698e+002,1.887059e+001
3.886340e+002,1.695978e+001
3.895982e+002,1.491164e+001
3.905625e+002,1.591845e+001
3.915267e+002,2.304022e+001
3.924909e+002,2.834029e+001
3.934552e+002,3.067606e+001
3.944194e+002,3.071344e+001
3.953836e+002,2.877385e+001
3.963479e+002,2.420828e+001
3.973121e+002,1.980289e+001
3.982763e+002,1.813876e+001
3.992406e+002,1.828144e+001
4.002048e+002,1.894847e+001
4.011690e+002,1.889188e+001
4.021333e+002,1.835201e+001
4.030975e+002,1.931877e+001
4.040617e+002,2.182397e+001
4.050260e+002,2.447632e+001
4.059902e+002,2.555841e+001
4.069544e+002,2.351493e+001
4.079187e+002,2.461448e+001
4.088829e+002,2.990225e+001
4.098471e+002,3.656303e+001
4.108114e+002,4.243960e+001
4.117756e+002,4.677101e+001
4.127398e+002,5.196364e+001
4.137041e+002,6.082545e+001
4.146683e+002,6.959178e+001
4.156325e+002,7.569827e+001
4.165968e+002,7.777124e+001
4.175610e+002,7.651546e+001
4.185252e+002,7.237894e+001
4.194895e+002,6.665404e+001
4.204537e+002,6.032481e+001
4.214179e+002,5.408187e+001
4.223822e+002,4.808031e+001
4.233464e+002,4.537098e+001
4.243106e+002,4.553920e+001
4.252749e+002,4.718017e+001
4.262391e+002,4.945018e+001
4.272033e+002,5.228216e+001
4.281676e+002,5.788503e+001
4.291318e+002,6.687943e+001
4.300960e+002,7.788840e+001
4.310603e+002,8.990770e+001
4.320245e+002,1.029261e+002
4.329887e+002,1.189380e+002
4.339530e+002,1.413339e+002
4.349172e+002,1.665374e+002
4.358814e+002,1.968595e+002
4.368457e+002,2.301866e+002
4.378099e+002,2.605025e+002
4.387741e+002,2.751353e+002
4.397384e+002,2.759598e+002
4.407026e+002,2.677818e+002
4.416668e+002,2.507696e+002
4.426311e+002,2.271940e+002
4.435953e+002,2.046622e+002
4.445595e+002,1.809686e+002
4.455238e+002,1.618929e+002
4.464880e+002,1.488388e+002
4.474522e+002,1.404585e+002
4.484165e+002,1.343333e+002
4.493807e+002,1.325574e+002
4.503449e+002,1.297714e+002
4.513092e+002,1.244992e+002
4.522734e+002,1.170591e+002
4.532376e+002,1.077920e+002
4.542019e+002,9.634013e+001
4.551661e+002,8.465504e+001
4.561303e+002,7.488132e+001
4.570946e+002,6.692593e+001
4.580588e+002,6.046677e+001
4.590230e+002,5.514167e+001
4.599873e+002,5.115785e+001
4.609515e+002,4.853606e+001
4.619157e+002,4.709816e+001
4.628800e+002,4.673356e+001
4.638442e+002,4.753653e+001
4.648084e+002,4.998020e+001
4.657727e+002,5.221986e+001
4.667369e+002,5.348054e+001
4.677011e+002,5.525111e+001
4.686654e+002,5.921802e+001
4.696296e+002,6.598265e+001
4.705938e+002,7.114526e+001
4.715581e+002,7.061964e+001
4.725223e+002,6.777670e+001
4.734865e+002,6.431417e+001
4.744508e+002,6.111449e+001
4.754150e+002,5.813602e+001
4.763792e+002,5.541161e+001
4.773435e+002,5.276604e+001
4.783077e+002,4.956859e+001
4.792719e+002,4.555599e+001
4.802362e+002,4.095931e+001
4.812004e+002,3.696067e+001
4.821646e+002,3.373977e+001
4.831289e+002,3.079963e+001
4.840931e+002,2.795956e+001
4.850573e+002,2.526839e+001
4.860216e+002,2.290040e+001
4.869858e+002,2.118647e+001
4.879500e+002,1.996362e+001
4.889143e+002,1.929487e+001
4.898785e+002,1.896411e+001
4.908427e+002,1.865675e+001
4.918070e+002,1.804406e+001
4.927712e+002,1.738923e+001
4.937354e+002,1.693913e+001
4.946997e+002,1.680495e+001
4.956639e+002,1.726872e+001
4.966281e+002,1.863475e+001
4.975924e+002,2.101157e+001
4.985566e+002,2.309629e+001
4.995208e+002,2.447084e+001
5.004851e+002,2.613865e+001
5.014493e+002,2.899584e+001
5.024135e+002,3.337165e+001
5.033778e+002,3.746771e+001
5.043420e+002,4.138073e+001
5.053063e+002,4.501473e+001
5.062705e+002,4.921510e+001
5.072347e+002,5.369225e+001
5.081990e+002,5.539956e+001
5.091632e+002,4.692672e+001
5.101274e+002,3.709315e+001
5.110917e+002,3.185429e+001
5.120559e+002,3.192285e+001
5.130201e+002,3.398997e+001
5.139844e+002,3.135515e+001
5.149486e+002,2.431593e+001
5.159128e+002,1.848522e+001
5.168771e+002,1.453366e+001
5.178413e+002,1.215297e+001
5.188055e+002,1.079377e+001
5.197698e+002,1.201497e+001
5.207340e+002,1.173558e+001
5.216982e+002,7.664289e+000
5.226625e+002,3.215765e+000
5.236267e+002,3.082581e+000
5.245909e+002,1.079149e+001
5.255552e+002,1.636480e+001
5.265194e+002,1.350800e+001
5.274836e+002,7.489349e+000
5.284479e+002,2.765509e+000
5.294121e+002,1.830048e+000
5.303763e+002,2.943738e+000
5.313406e+002,1.696600e+000
5.323048e+002,-7.968994e-001
5.332690e+002,-2.084589e+000
5.342333e+002,-8.841431e-001
5.351975e+002,2.327386e+000
5.361617e+002,3.556714e+000
5.371260e+002,1.205426e+000
5.380902e+002,-5.517517e-001
5.390544e+002,-9.440735e-001
5.400187e+002,-2.751648e-001
5.409829e+002,6.171814e-001
5.419471e+002,1.971838e+000
5.429114e+002,3.165619e+000
5.438756e+002,4.148688e+000
5.448398e+002,4.798834e+000
5.458041e+002,5.002027e+000
5.467683e+002,4.690173e+000
5.477325e+002,3.838947e+000
5.486968e+002,2.148749e+000
5.496610e+002,5.584717e-002
5.506252e+002,-1.610199e+000
5.515895e+002,-2.166742e+000
5.525537e+002,-1.622607e+000
5.535179e+002,-6.333130e-001
5.544822e+002,1.126996e+000
5.554464e+002,2.552374e+000
5.564106e+002,2.835101e+000
5.573749e+002,1.918085e+000
5.583391e+002,1.400861e+000
5.593033e+002,2.084491e+000
5.602676e+002,2.639014e+000
5.612318e+002,2.640240e+000
5.621960e+002,2.176856e+000
5.631603e+002,1.689612e+000
5.641245e+002,1.639569e+000
5.650887e+002,1.504761e+000
5.660530e+002,5.126709e-001
5.670172e+002,-9.453369e-001
5.679814e+002,-1.972345e+000
5.689457e+002,-1.575525e+000
5.699099e+002,1.292297e-001
5.708741e+002,1.201508e+000
5.718384e+002,1.756824e+000
5.728026e+002,1.734375e+000
5.737668e+002,7.874023e-001
5.747311e+002,-1.476788e+000
5.756953e+002,-2.766516e+000
5.766595e+002,-2.610931e+000
5.776238e+002,-2.126849e+000
5.785880e+002,-1.572949e+000
5.795522e+002,-1.034637e+000
5.805165e+002,-6.184326e-001
5.814807e+002,-1.566711e-001
5.824449e+002,-6.618652e-002
5.834092e+002,-9.070374e-001
5.843734e+002,-2.424414e+000
5.853376e+002,-3.956763e+000
5.863019e+002,-4.721619e+000
5.872661e+002,-4.763397e+000
5.882303e+002,-4.933423e+000
5.891946e+002,-5.247070e+000
5.901588e+002,-5.183820e+000
5.911230e+002,-4.051849e+000
5.920873e+002,-1.307306e+000
5.930515e+002,2.147583e-001
5.940157e+002,2.904663e-001
5.949800e+002,-1.152588e-001
5.959442e+002,-8.857361e-001
5.969084e+002,-1.939655e+000
5.978727e+002,-2.414905e+000
5.988369e+002,-8.281738e-001
5.998011e+002,6.761109e-001
6.007654e+002,1.357068e+000
6.017296e+002,1.113232e+000
6.026938e+002,1.314087e-002
6.036581e+002,-2.226178e+000
6.046223e+002,-4.825305e+000
6.055865e+002,-5.523621e+000
6.065508e+002,-4.396680e+000
6.075150e+002,-2.744324e+000
6.084792e+002,-2.002313e+000
6.094435e+002,-2.495172e+000
6.104077e+002,-2.090295e+000
6.113719e+002,-1.806274e-001
6.123362e+002,1.623181e+000
6.133004e+002,2.484265e+000
6.142646e+002,2.374048e+000
6.152289e+002,2.069745e+000
6.161931e+002,1.528156e+000
6.171573e+002,1.126880e+000
6.181216e+002,8.968811e-001
6.190858e+002,1.000751e+000
6.200500e+002,1.735345e+000
6.210143e+002,3.528619e+000
6.219785e+002,5.850915e+000
6.229427e+002,7.483966e+000
6.239070e+002,8.548841e+000
6.248712e+002,9.716772e+000
6.258354e+002,1.169673e+001
6.267997e+002,1.470439e+001
6.277639e+002,1.715281e+001
6.287281e+002,1.930236e+001
6.296924e+002,2.065580e+001
6.306566e+002,2.063340e+001
6.316208e+002,1.937336e+001
6.325851e+002,1.843759e+001
6.335493e+002,1.894439e+001
6.345135e+002,1.933999e+001
6.354778e+002,1.907173e+001
6.364420e+002,1.829759e+001
6.374063e+002,1.748469e+001
6.383705e+002,1.704133e+001
6.393347e+002,1.658802e+001
6.402990e+002,1.547457e+001
6.412632e+002,1.394362e+001
6.422274e+002,1.243195e+001
6.431917e+002,1.124340e+001
6.441559e+002,1.036335e+001
6.451201e+002,1.007399e+001
6.460844e+002,1.109736e+001
6.470486e+002,1.128539e+001
6.480128e+002,9.291779e+000
6.489771e+002,5.774591e+000
6.499413e+002,3.564795e+000
6.509055e+002,4.138074e+000
6.518698e+002,4.860345e+000
6.528340e+002,5.065637e+000
6.537982e+002,5.052179e+000
6.547625e+002,5.343249e+000
6.557267e+002,6.282202e+000
6.566909e+002,7.230988e+000
6.576552e+002,7.126391e+000
6.586194e+002,6.432727e+000
6.595836e+002,5.741479e+000
6.605479e+002,5.387787e+000
6.615121e+002,5.458581e+000
6.624763e+002,6.246552e+000
6.634406e+002,8.314672e+000
6.644048e+002,9.572901e+000
6.653690e+002,9.174749e+000
6.663333e+002,7.840332e+000
6.672975e+002,7.084924e+000
6.682617e+002,7.645758e+000
6.692260e+002,7.707581e+000
6.701902e+002,5.916419e+000
6.711544e+002,4.167188e+000
6.721187e+002,4.570996e+000
6.730829e+002,7.649371e+000
6.740471e+002,1.060505e+001
6.750114e+002,7.840100e+000
6.759756e+002,3.583362e+000
6.769398e+002,2.623785e+000
6.779041e+002,5.749219e+000
6.788683e+002,1.052575e+001
6.798325e+002,1.254434e+001
6.807968e+002,1.079414e+001
6.817610e+002,9.595398e+000
6.827252e+002,9.267230e+000
6.836895e+002,9.196814e+000
6.846537e+002,8.679980e+000
6.856179e+002,7.486493e+000
6.865822e+002,7.054236e+000
6.875464e+002,8.583435e+000
6.885106e+002,1.007172e+001
6.894749e+002,1.037228e+001
6.904391e+002,9.720136e+000
6.914034e+002,9.450659e+000
6.923676e+002,1.114310e+001
6.933318e+002,1.343223e+001
6.942961e+002,1.420898e+001
6.952603e+002,1.378101e+001
6.962245e+002,1.329935e+001
6.971888e+002,1.381711e+001
6.981530e+002,1.532613e+001
6.991172e+002,1.608253e+001
7.000815e+002,1.570119e+001
7.010457e+002,1.543516e+001
7.020099e+002,1.568500e+001
7.029742e+002,1.647247e+001
7.039384e+002,1.778820e+001
7.049026e+002,2.036338e+001
7.058669e+002,2.236139e+001
7.068311e+002,2.264702e+001
7.077953e+002,2.233085e+001
7.087596e+002,2.307592e+001
7.097238e+002,2.588085e+001
7.106880e+002,2.890801e+001
7.116523e+002,2.876923e+001
7.126165e+002,2.688381e+001
7.135807e+002,2.516358e+001
7.145450e+002,2.437599e+001
7.155092e+002,2.418964e+001
7.164734e+002,2.362496e+001
7.174377e+002,2.234887e+001
7.184019e+002,2.138781e+001
7.193661e+002,2.097180e+001
7.203304e+002,2.062369e+001
7.212946e+002,1.973056e+001
7.222589e+002,1.806455e+001
7.232231e+002,1.697533e+001
7.241873e+002,1.707681e+001
7.251516e+002,1.762804e+001
7.261158e+002,1.870960e+001
7.270800e+002,1.992634e+001
7.280443e+002,2.031027e+001
7.290085e+002,1.851145e+001
7.299727e+002,1.566635e+001
7.309370e+002,1.429916e+001
7.319012e+002,1.426138e+001
7.328654e+002,1.435419e+001
7.338297e+002,1.346082e+001
7.347939e+002,1.150508e+001
7.357581e+002,1.005696e+001
7.367224e+002,8.790454e+000
7.376866e+002,8.295514e+000
7.386508e+002,9.150488e+000
7.396151e+002,1.090858e+001
7.405793e+002,1.236369e+001
7.415435e+002,1.320389e+001
7.425078e+002,1.373015e+001
7.434720e+002,1.354307e+001
7.444362e+002,1.334777e+001
7.454005e+002,1.422031e+001
7.463647e+002,1.653542e+001
7.473289e+002,1.902384e+001
7.482932e+002,1.886292e+001
7.492574e+002,1.703975e+001
7.502216e+002,1.567105e+001
7.511859e+002,1.518361e+001
7.521501e+002,1.521542e+001
7.531143e+002,1.522325e+001
7.540786e+002,1.540095e+001
7.550428e+002,1.517409e+001
7.560070e+002,1.380218e+001
7.569713e+002,1.277903e+001
7.579355e+002,1.343447e+001
7.588997e+002,1.564700e+001
7.598640e+002,1.716041e+001
7.608282e+002,1.590650e+001
7.617924e+002,1.449485e+001
7.627567e+002,1.395823e+001
7.637209e+002,1.436699e+001
7.646851e+002,1.562372e+001
7.656494e+002,1.765939e+001
7.666136e+002,2.033013e+001
7.675778e+002,2.374609e+001
7.685421e+002,2.779441e+001
7.695063e+002,2.994649e+001
7.704705e+002,2.852123e+001
7.714348e+002,2.450186e+001
7.723990e+002,2.182643e+001
7.733632e+002,2.122421e+001
7.743275e+002,2.099282e+001
7.752917e+002,2.116074e+001
7.762559e+002,2.155692e+001
7.772202e+002,2.196512e+001
7.781844e+002,2.232188e+001
7.791486e+002,2.295997e+001
7.801129e+002,2.492317e+001
7.810771e+002,2.678976e+001
7.820413e+002,2.728047e+001
7.830056e+002,2.657892e+001
7.839698e+002,2.581907e+001
7.849340e+002,2.629394e+001
7.858983e+002,2.797165e+001
7.868625e+002,2.943749e+001
7.878267e+002,3.068712e+001
7.887910e+002,3.173075e+001
7.897552e+002,3.252736e+001
7.907194e+002,3.313060e+001
7.916837e+002,3.379128e+001
7.926479e+002,3.431832e+001
7.936121e+002,3.514513e+001
7.945764e+002,3.673919e+001
7.955406e+002,3.842336e+001
7.965048e+002,3.935527e+001
7.974691e+002,3.924612e+001
7.984333e+002,3.913021e+001
7.993975e+002,4.018694e+001
8.003618e+002,4.193996e+001
8.013260e+002,4.433940e+001
8.022902e+002,4.723576e+001
8.032545e+002,4.999480e+001
8.042187e+002,5.167907e+001
8.051829e+002,5.206049e+001
8.061472e+002,5.276925e+001
8.071114e+002,5.378099e+001
8.080756e+002,5.494990e+001
8.090399e+002,5.562019e+001
8.100041e+002,5.615646e+001
8.109683e+002,5.896078e+001
8.119326e+002,6.659698e+001
8.128968e+002,7.417543e+001
8.138610e+002,7.982139e+001
8.148253e+002,8.440160e+001
8.157895e+002,8.875151e+001
8.167537e+002,9.338269e+001
8.177180e+002,9.860140e+001
8.186822e+002,1.057703e+002
8.196464e+002,1.139787e+002
8.206107e+002,1.213376e+002
8.215749e+002,1.273956e+002
8.225391e+002,1.320470e+002
8.235034e+002,1.352890e+002
8.244676e+002,1.375834e+002
8.254318e+002,1.363535e+002
8.263961e+002,1.296322e+002
8.273603e+002,1.230144e+002
8.283245e+002,1.198096e+002
8.292888e+002,1.189997e+002
8.302530e+002,1.159980e+002
8.312172e+002,1.070996e+002
8.321815e+002,9.821087e+001
8.331457e+002,9.363808e+001
8.341099e+002,9.159354e+001
8.350742e+002,8.963690e+001
8.360384e+002,8.652525e+001
8.370026e+002,8.293628e+001
8.379669e+002,8.049043e+001
8.389311e+002,7.922162e+001
8.398953e+002,7.761470e+001
8.408596e+002,7.563947e+001
8.418238e+002,7.314323e+001
8.427880e+002,6.965892e+001
8.437523e+002,6.478968e+001
8.447165e+002,6.111469e+001
8.456807e+002,5.984708e+001
8.466450e+002,5.881742e+001
8.476092e+002,5.720822e+001
8.485734e+002,5.517928e+001
8.495377e+002,5.337054e+001
8.505019e+002,5.224418e+001
8.514661e+002,5.135572e+001
8.524304e+002,4.979098e+001
8.533946e+002,4.807460e+001
8.543588e+002,4.732330e+001
8.553231e+002,4.789824e+001
8.562873e+002,4.887647e+001
8.572515e+002,4.818070e+001
8.582158e+002,4.494384e+001
8.591800e+002,4.260312e+001
8.601442e+002,4.072070e+001
8.611085e+002,3.991359e+001
8.620727e+002,4.149916e+001
8.630369e+002,4.521589e+001
8.640012e+002,4.733818e+001
8.649654e+002,4.491403e+001
8.659296e+002,4.254966e+001
8.668939e+002,4.234357e+001
8.678581e+002,4.344128e+001
8.688223e+002,4.473616e+001
8.697866e+002,4.558745e+001
8.707508e+002,4.589551e+001
8.717150e+002,4.506590e+001
8.726793e+002,4.341390e+001
8.736435e+002,4.266576e+001
8.746077e+002,4.332850e+001
8.755720e+002,4.427803e+001
8.765362e+002,4.400414e+001
8.775004e+002,4.221154e+001
8.784647e+002,4.048199e+001
8.794289e+002,3.829907e+001
8.803931e+002,3.673384e+001
8.813574e+002,3.665168e+001
8.823216e+002,3.733193e+001
8.832858e+002,3.748827e+001
8.842501e+002,3.666349e+001
8.852143e+002,3.495608e+001
8.861785e+002,3.147015e+001
8.871428e+002,2.758069e+001
8.881070e+002,2.496774e+001
8.890712e+002,2.409735e+001
8.900355e+002,2.437283e+001
8.909997e+002,2.492041e+001
8.919639e+002,2.588217e+001
8.929282e+002,2.597726e+001
8.938924e+002,2.462972e+001
8.948566e+002,2.330719e+001
8.958209e+002,2.281780e+001
8.967851e+002,2.298098e+001
8.977493e+002,2.296648e+001
8.987136e+002,2.229139e+001
8.996778e+002,2.188115e+001
9.006420e+002,2.298730e+001
9.016063e+002,2.396359e+001
9.025705e+002,2.285878e+001
9.035347e+002,1.943829e+001
9.044990e+002,1.563622e+001
9.054632e+002,1.384081e+001
9.064274e+002,1.374883e+001
9.073917e+002,1.373104e+001
9.083559e+002,1.381956e+001
9.093201e+002,1.376599e+001
9.102844e+002,1.320872e+001
9.112486e+002,1.219929e+001
9.122128e+002,1.191418e+001
9.131771e+002,1.337485e+001
9.141413e+002,1.424966e+001
9.151055e+002,1.436910e+001
9.160698e+002,1.382603e+001
9.170340e+002,1.224961e+001
9.179982e+002,9.649908e+000
9.189625e+002,7.703321e+000
9.199267e+002,8.724994e+000
9.208909e+002,1.037048e+001
9.218552e+002,1.020803e+001
9.228194e+002,8.561053e+000
9.237836e+002,6.820679e+000
9.247479e+002,6.077417e+000
9.257121e+002,6.248572e+000
9.266763e+002,6.922967e+000
9.276406e+002,8.648053e+000
9.286048e+002,9.574878e+000
9.295690e+002,8.907794e+000
9.305333e+002,7.769897e+000
9.314975e+002,7.618640e+000
9.324617e+002,8.704004e+000
9.334260e+002,9.188166e+000
9.343902e+002,7.008136e+000
9.353545e+002,5.201233e+000
9.363187e+002,5.540771e+000
9.372830e+002,7.177802e+000
9.382472e+002,8.417132e+000
9.392114e+002,8.227466e+000
9.401757e+002,7.247919e+000
9.411399e+002,6.723248e+000
9.421041e+002,6.595136e+000
9.430684e+002,7.022552e+000
9.440326e+002,8.138928e+000
9.449968e+002,9.504474e+000
9.459611e+002,1.080721e+001
9.469253e+002,1.224774e+001
9.478895e+002,1.277211e+001
9.488538e+002,1.125018e+001
9.498180e+002,9.928082e+000
9.507822e+002,9.298230e+000
9.517465e+002,9.247907e+000
9.527107e+002,9.586218e+000
9.536749e+002,1.026467e+001
9.546392e+002,1.120305e+001
9.556034e+002,1.261510e+001
9.565676e+002,1.400715e+001
9.575319e+002,1.478177e+001
9.584961e+002,1.490134e+001
9.594603e+002,1.446736e+001
9.604246e+002,1.339798e+001
9.613888e+002,1.164819e+001
9.623530e+002,1.202785e+001
9.633173e+002,1.635168e+001
9.642815e+002,2.024147e+001
9.652457e+002,2.260913e+001
9.662100e+002,2.469910e+001
9.671742e+002,2.731137e+001
9.681384e+002,3.043619e+001
9.691027e+002,3.629927e+001
9.700669e+002,4.762963e+001
9.710311e+002,6.146924e+001
9.719954e+002,8.026633e+001
9.729596e+002,9.991166e+001
9.739238e+002,1.118369e+002
9.748881e+002,1.103024e+002
9.758523e+002,9.861375e+001
9.768165e+002,8.717594e+001
9.777808e+002,7.586741e+001
9.787450e+002,6.585800e+001
9.797092e+002,5.751319e+001
9.806735e+002,5.033928e+001
9.816377e+002,4.370701e+001
9.826019e+002,3.761388e+001
9.835662e+002,3.320963e+001
9.845304e+002,3.192695e+001
9.854946e+002,3.126100e+001
9.864589e+002,3.033362e+001
9.874231e+002,2.954302e+001
9.883873e+002,2.938837e+001
9.893516e+002,3.003178e+001
9.903158e+002,3.133865e+001
9.912800e+002,3.344517e+001
9.922443e+002,3.618032e+001
9.932085e+002,3.800090e+001
9.941727e+002,3.872733e+001
9.951370e+002,4.032021e+001
9.961012e+002,4.388251e+001
9.970654e+002,4.927236e+001
9.980297e+002,5.619296e+001
9.989939e+002,6.102689e+001
9.999581e+002,7.470068e+001
1.000922e+003,9.472560e+001
1.001887e+003,1.260092e+002
1.002851e+003,1.765513e+002
1.003815e+003,2.434190e+002
1.004779e+003,3.166703e+002
1.005744e+003,4.010464e+002
1.006708e+003,4.652184e+002
1.007672e+003,4.595366e+002
1.008636e+003,4.035870e+002
1.009600e+003,3.348672e+002
1.010565e+003,2.689522e+002
1.011529e+003,2.087665e+002
1.012493e+003,1.613845e+002
1.013457e+003,1.296261e+002
1.014422e+003,1.039497e+002
1.015386e+003,8.411369e+001
1.016350e+003,6.882863e+001
1.017314e+003,5.872849e+001
1.018279e+003,5.241808e+001
1.019243e+003,4.777596e+001
1.020207e+003,4.440927e+001
1.021171e+003,4.154479e+001
1.022135e+003,3.891707e+001
1.023100e+003,3.626686e+001
1.024064e+003,3.301425e+001
1.025028e+003,2.932116e+001
1.025992e+003,2.612498e+001
1.026957e+003,2.428622e+001
1.027921e+003,2.365740e+001
1.028885e+003,2.295013e+001
1.029849e+003,2.210052e+001
1.030814e+003,2.132171e+001
1.031778e+003,2.024549e+001
1.032742e+003,1.937608e+001
1.033706e+003,1.956380e+001
1.034671e+003,2.084340e+001
1.035635e+003,2.156284e+001
1.036599e+003,2.063266e+001
1.037563e+003,1.955222e+001
1.038527e+003,1.905817e+001
1.039492e+003,1.891005e+001
1.040456e+003,1.874359e+001
1.041420e+003,1.844641e+001
1.042384e+003,1.822656e+001
1.043349e+003,1.839460e+001
1.044313e+003,1.894435e+001
1.045277e+003,1.949158e+001
1.046241e+003,2.015286e+001
1.047206e+003,2.048096e+001
1.048170e+003,1.988776e+001
1.049134e+003,1.888767e+001
1.050098e+003,1.893607e+001
1.051063e+003,2.071100e+001
1.052027e+003,2.187448e+001
1.052991e+003,2.091662e+001
1.053955e+003,1.973422e+001
1.054919e+003,1.943129e+001
1.055884e+003,1.978481e+001
1.056848e+003,2.010122e+001
1.057812e+003,1.999046e+001
1.058776e+003,1.955200e+001
1.059741e+003,1.867392e+001
1.060705e+003,1.742252e+001
1.061669e+003,1.677617e+001
1.062633e+003,1.689540e+001
1.063598e+003,1.740004e+001
1.064562e+003,1.829697e+001
1.065526e+003,1.955704e+001
1.066490e+003,1.985084e+001
1.067454e+003,1.776094e+001
1.068419e+003,1.683679e+001
1.069383e+003,1.883745e+001
1.070347e+003,2.128453e+001
1.071311e+003,2.191079e+001
1.072276e+003,2.086185e+001
1.073240e+003,2.031812e+001
1.074204e+003,2.213132e+001
1.075168e+003,2.491880e+001
1.076133e+003,2.539119e+001
1.077097e+003,2.408798e+001
1.078061e+003,2.253881e+001
1.079025e+003,2.107391e+001
1.079990e+003,1.989292e+001
1.080954e+003,1.920468e+001
1.081918e+003,1.897933e+001
1.082882e+003,1.951596e+001
1.083846e+003,2.223291e+001
1.084811e+003,2.399425e+001
1.085775e+003,2.351820e+001
1.086739e+003,2.217542e+001
1.087703e+003,2.152067e+001
1.088668e+003,2.188685e+001
1.089632e+003,2.227431e+001
1.090596e+003,2.164661e+001
1.091560e+003,2.061883e+001
1.092525e+003,2.041572e+001
1.093489e+003,2.088572e+001
1.094453e+003,2.155773e+001
1.095417e+003,2.223457e+001
1.096381e+003,2.305540e+001
1.097346e+003,2.448204e+001
1.098310e+003,2.711035e+001
1.099274e+003,2.818796e+001
1.100238e+003,2.653831e+001
1.101203e+003,2.496411e+001
1.102167e+003,2.430111e+001
1.103131e+003,2.412535e+001
1.104095e+003,2.367900e+001
1.105060e+003,2.277579e+001
1.106024e+003,2.216488e+001
1.106988e+003,2.268812e+001
1.107952e+003,2.390316e+001
1.108917e+003,2.522696e+001
1.109881e+003,2.649064e+001
1.110845e+003,2.708316e+001
1.111809e+003,2.659829e+001
1.112773e+003,2.551168e+001
1.113738e+003,2.506841e+001
1.114702e+003,2.579084e+001
1.115666e+003,2.585198e+001
1.116630e+003,2.463472e+001
1.117595e+003,2.350599e+001
1.118559e+003,2.259414e+001
1.119523e+003,2.220632e+001
1.120487e+003,2.296524e+001
1.121452e+003,2.502612e+001
1.122416e+003,2.724077e+001
1.123380e+003,2.876225e+001
1.124344e+003,2.957015e+001
1.125308e+003,2.962690e+001
1.126273e+003,2.911605e+001
1.127237e+003,2.845452e+001
1.128201e+003,2.781775e+001
1.129165e+003,2.742118e+001
1.130130e+003,2.782194e+001
1.131094e+003,2.927333e+001
1.132058e+003,3.056209e+001
1.133022e+003,3.196750e+001
1.133987e+003,3.296424e+001
1.134951e+003,3.348077e+001
1.135915e+003,3.352944e+001
1.136879e+003,3.292788e+001
1.137844e+003,3.166390e+001
1.138808e+003,3.046889e+001
1.139772e+003,2.979414e+001
1.140736e+003,2.953871e+001
1.141700e+003,2.974247e+001
1.142665e+003,3.032339e+001
1.143629e+003,3.092814e+001
1.144593e+003,3.139612e+001
1.145557e+003,3.189387e+001
1.146522e+003,3.271705e+001
1.147486e+003,3.389186e+001
1.148450e+003,3.480710e+001
1.149414e+003,3.594550e+001
1.150379e+003,3.644942e+001
1.151343e+003,3.562413e+001
1.152307e+003,3.434354e+001
1.153271e+003,3.343552e+001
1.154235e+003,3.307381e+001
1.155200e+003,3.331542e+001
1.156164e+003,3.450751e+001
1.157128e+003,3.614103e+001
1.158092e+003,3.747466e+001
1.159057e+003,3.853794e+001
1.160021e+003,3.929105e+001
1.160985e+003,3.967886e+001
1.161949e+003,4.015586e+001
1.162914e+003,4.154214e+001
1.163878e+003,4.404070e+001
1.164842e+003,4.594184e+001
1.165806e+003,4.694248e+001
1.166771e+003,4.757986e+001
1.167735e+003,4.795275e+001
1.168699e+003,4.797242e+001
1.169663e+003,4.717916e+001
1.170627e+003,4.583267e+001
1.171592e+003,4.515781e+001
1.172556e+003,4.601570e+001
1.173520e+003,4.764215e+001
1.174484e+003,4.915349e+001
1.175449e+003,5.045613e+001
1.176413e+003,5.112380e+001
1.177377e+003,5.103849e+001
1.178341e+003,5.121645e+001
1.179306e+003,5.282293e+001
1.180270e+003,5.576025e+001
1.181234e+003,5.845917e+001
1.182198e+003,6.168903e+001
1.183162e+003,6.303422e+001
1.184127e+003,6.081326e+001
1.185091e+003,5.831706e+001
1.186055e+003,5.782800e+001
1.187019e+003,5.878552e+001
1.187984e+003,5.925363e+001
1.188948e+003,5.829431e+001
1.189912e+003,5.698115e+001
1.190876e+003,5.678629e+001
1.191841e+003,5.728947e+001
1.192805e+003,5.752098e+001
1.193769e+003,5.743737e+001
1.194733e+003,5.673991e+001
1.195698e+003,5.489538e+001
1.196662e+003,5.254139e+001
1.197626e+003,5.159599e+001
1.198590e+003,5.266774e+001
1.199554e+003,5.281222e+001
1.200519e+003,5.048011e+001
1.201483e+003,4.873271e+001
1.202447e+003,4.904556e+001
1.203411e+003,5.022913e+001
1.204376e+003,5.060167e+001
1.205340e+003,4.977639e+001
1.206304e+003,4.883686e+001
1.207268e+003,4.892562e+001
1.208233e+003,4.971914e+001
1.209197e+003,4.971305e+001
1.210161e+003,4.896672e+001
1.211125e+003,4.871657e+001
1.212089e+003,4.950066e+001
1.213054e+003,5.034319e+001
1.214018e+003,5.007605e+001
1.214982e+003,4.891401e+001
1.215946e+003,4.851722e+001
1.216911e+003,4.956170e+001
1.217875e+003,5.021717e+001
1.218839e+003,4.967791e+001
1.219803e+003,4.874336e+001
1.220768e+003,4.777982e+001
1.221732e+003,4.710934e+001
1.222696e+003,4.713325e+001
1.223660e+003,4.803125e+001
1.224625e+003,4.945821e+001
1.225589e+003,5.088377e+001
1.226553e+003,5.222268e+001
1.227517e+003,5.290913e+001
1.228481e+003,5.276701e+001
1.229446e+003,5.261498e+001
1.230410e+003,5.284829e+001
1.231374e+003,5.324291e+001
1.232338e+003,5.353315e+001
1.233303e+003,5.375650e+001
1.234267e+003,5.370856e+001
1.235231e+003,5.318932e+001
1.236195e+003,5.241113e+001
1.237160e+003,5.083759e+001
1.238124e+003,4.937638e+001
1.239088e+003,4.957545e+001
1.240052e+003,5.141590e+001
1.241016e+003,5.310564e+001
1.241981e+003,5.288729e+001
1.242945e+003,5.133228e+001
1.243909e+003,5.116508e+001
1.244873e+003,5.353454e+001
1.245838e+003,5.457697e+001
1.246802e+003,5.320084e+001
1.247766e+003,5.163885e+001
1.248730e+003,5.090636e+001
1.249695e+003,5.095281e+001
1.250659e+003,5.164563e+001
1.251623e+003,5.299235e+001
1.252587e+003,5.467717e+001
1.253552e+003,5.723540e+001
1.254516e+003,5.920337e+001
1.255480e+003,5.849680e+001
1.256444e+003,5.621706e+001
1.257408e+003,5.513639e+001
1.258373e+003,5.630875e+001
1.259337e+003,5.803230e+001
1.260301e+003,5.780021e+001
1.261265e+003,5.562500e+001
1.262230e+003,5.506009e+001
1.263194e+003,5.804229e+001
1.264158e+003,5.960910e+001
1.265122e+003,5.847325e+001
1.266087e+003,5.687529e+001
1.267051e+003,5.605156e+001
1.268015e+003,5.612558e+001
1.268979e+003,5.716769e+001
1.269943e+003,5.921730e+001
1.270908e+003,6.080734e+001
1.271872e+003,5.970665e+001
1.272836e+003,5.747363e+001
1.273800e+003,5.806182e+001
1.274765e+003,6.130372e+001
1.275729e+003,6.444823e+001
1.276693e+003,6.649602e+001
1.277657e+003,6.730763e+001
1.278622e+003,6.605598e+001
1.279586e+003,6.251203e+001
1.280550e+003,6.061329e+001
1.281514e+003,6.232412e+001
1.282479e+003,6.340851e+001
1.283443e+003,6.209204e+001
1.284407e+003,6.032346e+001
1.285371e+003,5.927398e+001
1.286335e+003,5.909879e+001
1.287300e+003,5.981973e+001
1.288264e+003,6.143238e+001
1.289228e+003,6.318830e+001
1.290192e+003,6.376859e+001
1.291157e+003,6.323170e+001
1.292121e+003,6.341172e+001
1.293085e+003,6.443328e+001
1.294049e+003,6.527544e+001
1.295014e+003,6.582979e+001
1.295978e+003,6.605190e+001
1.296942e+003,6.533064e+001
1.297906e+003,6.392867e+001
1.298870e+003,6.430532e+001
1.299835e+003,6.802917e+001
1.300799e+003,7.139807e+001
1.301763e+003,7.159035e+001
1.302727e+003,7.063766e+001
1.303692e+003,7.020260e+001
1.304656e+003,7.052124e+001
1.305620e+003,7.124225e+001
1.306584e+003,7.210877e+001
1.307549e+003,7.304417e+001
1.308513e+003,7.397060e+001
1.309477e+003,7.489091e+001
1.310441e+003,7.535778e+001
1.311406e+003,7.534756e+001
1.312370e+003,7.508582e+001
1.313334e+003,7.428827e+001
1.314298e+003,7.354160e+001
1.315263e+003,7.339195e+001
1.316227e+003,7.374928e+001
1.317191e+003,7.415019e+001
1.318155e+003,7.438554e+001
1.319120e+003,7.466498e+001
1.320084e+003,7.542981e+001
1.321048e+003,7.623233e+001
1.322012e+003,7.601033e+001
1.322976e+003,7.483224e+001
1.323941e+003,7.384804e+001
1.324905e+003,7.360710e+001
1.325869e+003,7.390629e+001
1.326833e+003,7.448177e+001
1.327798e+003,7.530077e+001
1.328762e+003,7.604796e+001
1.329726e+003,7.683084e+001
1.330690e+003,7.716875e+001
1.331655e+003,7.614670e+001
1.332619e+003,7.548475e+001
1.333583e+003,7.691409e+001
1.334547e+003,7.946681e+001
1.335511e+003,8.109100e+001
1.336476e+003,8.096865e+001
1.337440e+003,8.021047e+001
1.338404e+003,8.023320e+001
1.339368e+003,8.091979e+001
1.340333e+003,8.090836e+001
1.341297e+003,7.983368e+001
1.342261e+003,7.900278e+001
1.343225e+003,7.918343e+001
1.344190e+003,7.904912e+001
1.345154e+003,7.664296e+001
1.346118e+003,7.344167e+001
1.347082e+003,7.350410e+001
1.348047e+003,7.789110e+001
1.349011e+003,8.181133e+001
1.349975e+003,8.212422e+001
1.350939e+003,8.099328e+001
1.351903e+003,8.081760e+001
1.352868e+003,8.111911e+001
1.353832e+003,8.074275e+001
1.354796e+003,7.943611e+001
1.355760e+003,7.830046e+001
1.356725e+003,7.840629e+001
1.357689e+003,7.953664e+001
1.358653e+003,8.077184e+001
1.359617e+003,8.231618e+001
1.360582e+003,8.335892e+001
1.361546e+003,8.363038e+001
1.362510e+003,8.358990e+001
1.363474e+003,8.315863e+001
1.364438e+003,8.281007e+001
1.365403e+003,8.295953e+001
1.366367e+003,8.352927e+001
1.367331e+003,8.429842e+001
1.368295e+003,8.515845e+001
1.369260e+003,8.549711e+001
1.370224e+003,8.385771e+001
1.371188e+003,8.051213e+001
1.372152e+003,8.055445e+001
1.373117e+003,8.538406e+001
1.374081e+003,8.906922e+001
1.375045e+003,8.862284e+001
1.376009e+003,8.682441e+001
1.376974e+003,8.686412e+001
1.377938e+003,8.856432e+001
1.378902e+003,8.998911e+001
1.379866e+003,9.063974e+001
1.380830e+003,9.062821e+001
1.381795e+003,8.988048e+001
1.382759e+003,8.860366e+001
1.383723e+003,8.595834e+001
1.384687e+003,8.307793e+001
1.385652e+003,8.314395e+001
1.386616e+003,8.728609e+001
1.387580e+003,9.261971e+001
1.388544e+003,9.590837e+001
1.389509e+003,9.711455e+001
1.390473e+003,9.620804e+001
1.391437e+003,9.156322e+001
1.392401e+003,8.878355e+001
1.393365e+003,8.894775e+001
1.394330e+003,8.990882e+001
1.395294e+003,9.150851e+001
1.396258e+003,9.287678e+001
1.397222e+003,9.265263e+001
1.398187e+003,9.128921e+001
1.399151e+003,9.131261e+001
1.400115e+003,9.443265e+001
1.401079e+003,9.842152e+001
1.402044e+003,9.904757e+001
1.403008e+003,9.624065e+001
1.403972e+003,9.460020e+001
1.404936e+003,9.438160e+001
1.405901e+003,9.481342e+001
1.406865e+003,9.628796e+001
1.407829e+003,9.769331e+001
1.408793e+003,9.784875e+001
1.409757e+003,9.693668e+001
1.410722e+003,9.553465e+001
1.411686e+003,9.343201e+001
1.412650e+003,9.224071e+001
1.413614e+003,9.377657e+001
1.414579e+003,9.639822e+001
1.415543e+003,9.833588e+001
1.416507e+003,9.983168e+001
1.417471e+003,1.017190e+002
1.418436e+003,1.041829e+002
1.419400e+003,1.060206e+002
1.420364e+003,1.059986e+002
1.421328e+003,1.045831e+002
1.422292e+003,1.032906e+002
1.423257e+003,1.018765e+002
1.424221e+003,1.010859e+002
1.425185e+003,1.013144e+002
1.426149e+003,1.017393e+002
1.427114e+003,1.020863e+002
1.428078e+003,1.029089e+002
1.429042e+003,1.047705e+002
1.430006e+003,1.074045e+002
1.430971e+003,1.102113e+002
1.431935e+003,1.128432e+002
1.432899e+003,1.150915e+002
1.433863e+003,1.167826e+002
1.434828e+003,1.178872e+002
1.435792e+003,1.167912e+002
1.436756e+003,1.114506e+002
1.437720e+003,1.076992e+002
1.438684e+003,1.060211e+002
1.439649e+003,1.061521e+002
1.440613e+003,1.095457e+002
1.441577e+003,1.139370e+002
1.442541e+003,1.151421e+002
1.443506e+003,1.127440e+002
1.444470e+003,1.103821e+002
1.445434e+003,1.100676e+002
1.446398e+003,1.112605e+002
1.447363e+003,1.138615e+002
1.448327e+003,1.171329e+002
1.449291e+003,1.193844e+002
1.450255e+003,1.205464e+002
1.451219e+003,1.204580e+002
1.452184e+003,1.179682e+002
1.453148e+003,1.153591e+002
1.454112e+003,1.161821e+002
1.455076e+003,1.197298e+002
1.456041e+003,1.215510e+002
1.457005e+003,1.207595e+002
1.457969e+003,1.199571e+002
1.458933e+003,1.198970e+002
1.459898e+003,1.204908e+002
1.460862e+003,1.225558e+002
1.461826e+003,1.247344e+002
1.462790e+003,1.243877e+002
1.463755e+003,1.216339e+002
1.464719e+003,1.200634e+002
1.465683e+003,1.224428e+002
1.466647e+003,1.267032e+002
1.467611e+003,1.278610e+002
1.468576e+003,1.252937e+002
1.469540e+003,1.238290e+002
1.470504e+003,1.246209e+002
1.471468e+003,1.249655e+002
1.472433e+003,1.238027e+002
1.473397e+003,1.227806e+002
1.474361e+003,1.234475e+002
1.475325e+003,1.247663e+002
1.476290e+003,1.244383e+002
1.477254e+003,1.223157e+002
1.478218e+003,1.211530e+002
1.479182e+003,1.232441e+002
1.480146e+003,1.270423e+002
1.481111e+003,1.288734e+002
1.482075e+003,1.284199e+002
1.483039e+003,1.286510e+002
1.484003e+003,1.306082e+002
1.484968e+003,1.314238e+002
1.485932e+003,1.296126e+002
1.486896e+003,1.275111e+002
1.487860e+003,1.269626e+002
1.488825e+003,1.275138e+002
1.489789e+003,1.280742e+002
1.490753e+003,1.283852e+002
1.491717e+003,1.284553e+002
1.492682e+003,1.282213e+002
1.493646e+003,1.278042e+002
1.494610e+003,1.274041e+002
1.495574e+003,1.269696e+002
1.496538e+003,1.262090e+002
1.497503e+003,1.249835e+002
1.498467e+003,1.245130e+002
1.499431e+003,1.263107e+002
1.500395e+003,1.283519e+002
1.501360e+003,1.279022e+002
1.502324e+003,1.255261e+002
1.503288e+003,1.233518e+002
1.504252e+003,1.214452e+002
1.505217e+003,1.206392e+002
1.506181e+003,1.224539e+002
1.507145e+003,1.242464e+002
1.508109e+003,1.233521e+002
1.509073e+003,1.212999e+002
1.510038e+003,1.206386e+002
1.511002e+003,1.216115e+002
1.511966e+003,1.225799e+002
1.512930e+003,1.225101e+002
1.513895e+003,1.221766e+002
1.514859e+003,1.231132e+002
1.515823e+003,1.251836e+002
1.516787e+003,1.255477e+002
1.517752e+003,1.232766e+002
1.518716e+003,1.219542e+002
1.519680e+003,1.236134e+002
1.520644e+003,1.248640e+002
1.521609e+003,1.232992e+002
1.522573e+003,1.210592e+002
1.523537e+003,1.212583e+002
1.524501e+003,1.236931e+002
1.525465e+003,1.256500e+002
1.526430e+003,1.254651e+002
1.527394e+003,1.238020e+002
1.528358e+003,1.216385e+002
1.529322e+003,1.190802e+002
1.530287e+003,1.180304e+002
1.531251e+003,1.202108e+002
1.532215e+003,1.206898e+002
1.533179e+003,1.175210e+002
1.534144e+003,1.149711e+002
1.535108e+003,1.151851e+002
1.536072e+003,1.164058e+002
1.537036e+003,1.169977e+002
1.538000e+003,1.167481e+002
1.538965e+003,1.156936e+002
1.539929e+003,1.139713e+002
1.540893e+003,1.128905e+002
1.541857e+003,1.141826e+002
1.542822e+003,1.170483e+002
1.543786e+003,1.175692e+002
1.544750e+003,1.143873e+002
1.545714e+003,1.131242e+002
1.546679e+003,1.160748e+002
1.547643e+003,1.176405e+002
1.548607e+003,1.146914e+002
1.549571e+003,1.108782e+002
1.550536e+003,1.097903e+002
1.551500e+003,1.107171e+002
1.552464e+003,1.113148e+002
1.553428e+003,1.109142e+002
1.554392e+003,1.098174e+002
1.555357e+003,1.080050e+002
1.556321e+003,1.059596e+002
1.557285e+003,1.047277e+002
1.558249e+003,1.044071e+002
1.559214e+003,1.048541e+002
1.560178e+003,1.065839e+002
1.561142e+003,1.076745e+002
1.562106e+003,1.073794e+002
1.563071e+003,1.060836e+002
1.564035e+003,1.037900e+002
1.564999e+003,1.010618e+002
1.565963e+003,9.882744e+001
1.566927e+003,9.722562e+001
1.567892e+003,9.618446e+001
1.568856e+003,9.558243e+001
1.569820e+003,9.588632e+001
1.570784e+003,9.872706e+001
1.571749e+003,1.023652e+002
1.572713e+003,1.022995e+002
1.573677e+003,9.864273e+001
1.574641e+003,9.526998e+001
1.575606e+003,9.292088e+001
1.576570e+003,9.186244e+001
1.577534e+003,9.348598e+001
1.578498e+003,9.612411e+001
1.579463e+003,9.618673e+001
1.580427e+003,9.370779e+001
1.581391e+003,9.173856e+001
1.582355e+003,9.116881e+001
1.583319e+003,9.116469e+001
1.584284e+003,9.205565e+001
1.585248e+003,9.248455e+001
1.586212e+003,8.952962e+001
1.587176e+003,8.471815e+001
1.588141e+003,8.315263e+001
1.589105e+003,8.597490e+001
1.590069e+003,8.790254e+001
1.591033e+003,8.471426e+001
1.591998e+003,7.983768e+001
1.592962e+003,7.851091e+001
1.593926e+003,8.005196e+001
1.594890e+003,8.083022e+001
1.595854e+003,8.053350e+001
1.596819e+003,7.951103e+001
1.597783e+003,7.724171e+001
1.598747e+003,7.508257e+001
1.599711e+003,7.419318e+001
1.600676e+003,7.387508e+001
1.601640e+003,7.332284e+001
1.602604e+003,7.263361e+001
1.603568e+003,7.240438e+001
1.604533e+003,7.284051e+001
1.605497e+003,7.346335e+001
1.606461e+003,7.421960e+001
1.607425e+003,7.466353e+001
1.608390e+003,7.315593e+001
1.609354e+003,6.969357e+001
1.610318e+003,6.735749e+001
1.611282e+003,6.675011e+001
1.612246e+003,6.652306e+001
1.613211e+003,6.677424e+001
1.614175e+003,6.650197e+001
1.615139e+003,6.438770e+001
1.616103e+003,6.167778e+001
1.617068e+003,6.060350e+001
1.618032e+003,6.124251e+001
1.618996e+003,6.158378e+001
1.619960e+003,6.043132e+001
1.620925e+003,5.854346e+001
1.621889e+003,5.679536e+001
1.622853e+003,5.529032e+001
1.623817e+003,5.459756e+001
1.624781e+003,5.494621e+001
1.625746e+003,5.511872e+001
1.626710e+003,5.492482e+001
1.627674e+003,5.425318e+001
1.628638e+003,5.254698e+001
1.629603e+003,5.068111e+001
1.630567e+003,4.942543e+001
1.631531e+003,4.866296e+001
1.632495e+003,4.799586e+001
1.633460e+003,4.736481e+001
1.634424e+003,4.703633e+001
1.635388e+003,4.724926e+001
1.636352e+003,4.755519e+001
1.637317e+003,4.697119e+001
1.638281e+003,4.559046e+001
1.639245e+003,4.516300e+001
1.640209e+003,4.607014e+001
1.641173e+003,4.654736e+001
1.642138e+003,4.630436e+001
1.643102e+003,4.541888e+001
1.644066e+003,4.337936e+001
1.645030e+003,4.119610e+001
1.645995e+003,3.990899e+001
1.646959e+003,3.931461e+001
1.647923e+003,3.859111e+001
1.648887e+003,3.751917e+001
1.649852e+003,3.683428e+001
1.650816e+003,3.737745e+001
1.651780e+003,3.816206e+001
1.652744e+003,3.651016e+001
1.653708e+003,3.257344e+001
1.654673e+003,3.147944e+001
1.655637e+003,3.451063e+001
1.656601e+003,3.665092e+001
1.657565e+003,3.637156e+001
1.658530e+003,3.495838e+001
1.659494e+003,3.235156e+001
1.660458e+003,2.962914e+001
1.661422e+003,2.776167e+001
1.662387e+003,2.684920e+001
1.663351e+003,2.707657e+001
1.664315e+003,2.843691e+001
1.665279e+003,2.938630e+001
1.666244e+003,2.835370e+001
1.667208e+003,2.649104e+001
1.668172e+003,2.661814e+001
1.669136e+003,2.846232e+001
1.670100e+003,2.770847e+001
1.671065e+003,2.307316e+001
1.672029e+003,2.003142e+001
1.672993e+003,2.157230e+001
1.673957e+003,2.347693e+001
1.674922e+003,2.264506e+001
1.675886e+003,2.090915e+001
1.676850e+003,2.039741e+001
1.677814e+003,2.088055e+001
1.678779e+003,2.096152e+001
1.679743e+003,2.020576e+001
1.680707e+003,1.927235e+001
1.681671e+003,1.870258e+001
1.682635e+003,1.820667e+001
1.683600e+003,1.693151e+001
1.684564e+003,1.519542e+001
1.685528e+003,1.515765e+001
1.686492e+003,1.724916e+001
1.687457e+003,1.877482e+001
1.688421e+003,1.874506e+001
1.689385e+003,1.814248e+001
1.690349e+003,1.769377e+001
1.691314e+003,1.714955e+001
1.692278e+003,1.609732e+001
1.693242e+003,1.459336e+001
1.694206e+003,1.284257e+001
1.695171e+003,1.082054e+001
1.696135e+003,9.432642e+000
1.697099e+003,9.509115e+000
1.698063e+003,1.024518e+001
1.699027e+003,1.064451e+001
1.699992e+003,1.087607e+001
1.700956e+003,1.165430e+001
1.701920e+003,1.299212e+001
1.702884e+003,1.340296e+001
1.703849e+003,1.226482e+001
1.704813e+003,1.038690e+001
1.705777e+003,7.601593e+000
1.706741e+003,5.251678e+000
1.707706e+003,6.368985e+000
1.708670e+003,9.881360e+000
1.709634e+003,1.149714e+001
1.710598e+003,1.048520e+001
1.711563e+003,8.896383e+000
1.712527e+003,6.974627e+000
1.713491e+003,5.449890e+000
1.714455e+003,4.864825e+000
1.715419e+003,5.130356e+000
1.716384e+003,6.538617e+000
1.717348e+003,8.715961e+000
1.718312e+003,9.979352e+000
1.719276e+003,9.798678e+000
1.720241e+003,8.716809e+000
1.721205e+003,6.857529e+000
1.722169e+003,5.058157e+000
1.723133e+003,4.805707e+000
1.724098e+003,5.928241e+000
1.725062e+003,6.829816e+000
1.726026e+003,7.653595e+000
1.726990e+003,7.549875e+000
1.727954e+003,5.218844e+000
1.728919e+003,3.448074e+000
1.729883e+003,4.233658e+000
1.730847e+003,5.549698e+000
1.731811e+003,5.038855e+000
1.732776e+003,3.460300e+000
1.733740e+003,3.044867e+000
1.734704e+003,4.063513e+000
1.735668e+003,4.836319e+000
1.736633e+003,4.379474e+000
1.737597e+003,3.098026e+000
1.738561e+003,1.385165e+000
1.739525e+003,-3.757202e-001
1.740490e+003,-3.552765e-001
1.741454e+003,2.281113e+000
1.742418e+003,3.480695e+000
1.743382e+003,1.721231e+000
1.744346e+003,8.773224e-001
1.745311e+003,2.867374e+000
1.746275e+003,4.453757e+000
1.747239e+003,2.978476e+000
1.748203e+003,5.490143e-001
1.749168e+003,8.572388e-003
1.750132e+003,1.154266e+000
1.751096e+003,2.143567e+000
1.752060e+003,2.202136e+000
1.753025e+003,1.770398e+000
1.753989e+003,1.234699e+000
1.754953e+003,7.724762e-001
1.755917e+003,8.889588e-001
1.756881e+003,1.602701e+000
1.757846e+003,1.395050e+000
1.758810e+003,-3.486969e-001
1.759774e+003,-1.152792e+000
1.760738e+003,1.013550e-001
1.761703e+003,1.194284e+000
1.762667e+003,1.233688e+000
1.763631e+003,9.189087e-001
1.764595e+003,8.506165e-001
1.765560e+003,8.681610e-001
1.766524e+003,4.873382e-001
1.767488e+003,-3.036408e-001
1.768452e+003,-9.814880e-001
1.769417e+003,-1.256525e+000
1.770381e+003,-1.270892e+000
1.771345e+003,-1.128058e+000
1.772309e+003,-9.011078e-001
1.773273e+003,-7.118958e-001
1.774238e+003,-5.933472e-001
1.775202e+003,-9.168762e-001
1.776166e+003,-1.879001e+000
1.777130e+003,-1.891141e+000
1.778095e+003,3.318787e-001
1.779059e+003,2.277542e+000
1.780023e+003,1.247671e+000
1.780987e+003,-1.048627e+000
1.781952e+003,-1.762033e+000
1.782916e+003,-1.179538e+000
1.783880e+003,-6.195465e-001
1.784844e+003,-1.797729e-001
1.785808e+003,-9.538879e-002
1.786773e+003,-7.564728e-001
1.787737e+003,-1.473972e+000
1.788701e+003,-1.730655e+000
1.789665e+003,-1.720477e+000
1.790630e+003,-1.623474e+000
1.791594e+003,-1.527670e+000
1.792558e+003,-1.673117e+000
1.793522e+003,-2.095566e+000
1.794487e+003,-2.455386e+000
1.795451e+003,-2.529624e+000
1.796415e+003,-2.314713e+000
1.797379e+003,-1.736215e+000
1.798344e+003,-1.042850e+000
1.799308e+003,-1.473044e+000
1.800272e+003,-3.852039e+000
1.801236e+003,-4.186810e+000
1.802201e+003,3.448486e-004
1.803165e+003,2.321906e+000
1.804129e+003,3.262482e-001
1.805093e+003,-1.938855e+000
1.806057e+003,-2.348209e+000
1.807022e+003,-1.837421e+000
1.807986e+003,-1.184726e+000
1.808950e+003,-7.920074e-001
1.809914e+003,-1.415405e+000
1.810879e+003,-2.985553e+000
1.811843e+003,-3.893719e+000
1.812807e+003,-2.926971e+000
1.813771e+003,-1.323782e+000
1.814736e+003,-1.157538e+000
1.815700e+003,-2.040811e+000
1.816664e+003,-1.574680e+000
1.817628e+003,4.911652e-001
1.818593e+003,1.173862e+000
1.819557e+003,-2.981567e-001
1.820521e+003,-1.753070e+000
1.821485e+003,-2.518533e+000
1.822449e+003,-2.925372e+000
1.823414e+003,-3.109592e+000
1.824378e+003,-3.212561e+000
1.825342e+003,-3.355649e+000
1.826306e+003,-3.525674e+000
1.827271e+003,-3.790561e+000
1.828235e+003,-4.222015e+000
1.829199e+003,-4.162781e+000
1.830163e+003,-2.849014e+000
1.831128e+003,-1.426013e+000
1.832092e+003,-1.040787e+000
1.833056e+003,-1.079529e+000
1.834020e+003,-4.107727e-001
1.834984e+003,6.944855e-001
1.835949e+003,1.029959e+000
1.836913e+003,4.471558e-001
1.837877e+003,5.523682e-003
1.838841e+003,2.578461e-001
1.839806e+003,9.041778e-001
1.840770e+003,1.738278e+000
1.841734e+003,2.383154e+000
1.842698e+003,1.581000e+000
1.843663e+003,-9.411865e-001
1.844627e+003,-2.090183e+000
1.845591e+003,-9.942077e-001
1.846555e+003,1.007935e-001
1.847520e+003,1.752731e+000
1.848484e+003,2.520795e+000
1.849448e+003,1.240570e+000
1.850412e+003,-4.577209e-001
1.851376e+003,-1.450195e+000
1.852341e+003,-1.785394e+000
1.853305e+003,-1.803900e+000
1.854269e+003,-1.554700e+000
1.855233e+003,-6.519745e-001
1.856198e+003,1.047314e+000
1.857162e+003,2.444089e+000
1.858126e+003,2.259152e+000
1.859090e+003,1.374661e+000
1.860055e+003,1.708340e+000
1.861019e+003,2.955060e+000
1.861983e+003,3.374927e+000
1.862947e+003,2.870761e+000
1.863911e+003,2.457028e+000
1.864876e+003,2.429529e+000
1.865840e+003,2.362570e+000
1.866804e+003,1.902872e+000
1.867768e+003,1.446451e+000
1.868733e+003,1.334274e+000
1.869697e+003,1.595380e+000
1.870661e+003,2.639078e+000
1.871625e+003,4.480512e+000
1.872590e+003,5.093896e+000
1.873554e+003,3.455344e+000
1.874518e+003,2.283078e+000
1.875482e+003,2.387048e+000
1.876447e+003,3.112482e+000
1.877411e+003,4.919904e+000
1.878375e+003,6.475510e+000
1.879339e+003,5.722208e+000
1.880303e+003,3.638467e+000
1.881268e+003,2.587683e+000
1.882232e+003,2.983163e+000
1.883196e+003,3.651450e+000
1.884160e+003,3.942191e+000
1.885125e+003,4.074100e+000
1.886089e+003,4.247693e+000
1.887053e+003,4.504974e+000
1.888017e+003,5.169812e+000
1.888982e+003,6.269864e+000
1.889946e+003,6.475308e+000
1.890910e+003,5.585800e+000
1.891874e+003,4.833173e+000
1.892839e+003,4.417471e+000
1.893803e+003,4.139020e+000
1.894767e+003,3.879474e+000
1.895731e+003,3.808966e+000
1.896695e+003,4.064111e+000
1.897660e+003,4.586734e+000
1.898624e+003,5.553253e+000
1.899588e+003,6.812243e+000
1.900552e+003,7.167160e+000
1.901517e+003,6.115714e+000
1.902481e+003,5.097135e+000
1.903445e+003,4.464560e+000
1.904409e+003,4.368533e+000
1.905374e+003,5.326159e+000
1.906338e+003,6.574881e+000
1.907302e+003,7.371066e+000
1.908266e+003,7.583029e+000
1.909230e+003,6.949246e+000
1.910195e+003,5.695685e+000
1.911159e+003,4.649313e+000
1.912123e+003,4.230096e+000
1.913087e+003,4.431946e+000
1.914052e+003,5.273551e+000
1.915016e+003,6.263693e+000
1.915980e+003,6.381592e+000
1.916944e+003,5.693451e+000
1.917909e+003,4.968011e+000
1.918873e+003,4.155859e+000
1.919837e+003,3.752936e+000
1.920801e+003,3.973502e+000
1.921766e+003,4.072632e+000
1.922730e+003,3.484897e+000
1.923694e+003,3.106265e+000
1.924658e+003,4.027206e+000
1.925622e+003,5.238763e+000
1.926587e+003,5.431421e+000
1.927551e+003,4.887912e+000
1.928515e+003,4.599280e+000
1.929479e+003,4.686728e+000
1.930444e+003,4.898822e+000
1.931408e+003,5.448993e+000
1.932372e+003,5.614352e+000
1.933336e+003,4.581827e+000
1.934301e+003,3.551752e+000
1.935265e+003,3.697867e+000
1.936229e+003,4.373254e+000
1.937193e+003,4.486291e+000
1.938157e+003,4.204721e+000
1.939122e+003,4.423526e+000
1.940086e+003,5.327408e+000
1.941050e+003,6.517172e+000
1.942014e+003,7.700586e+000
1.942979e+003,8.028394e+000
1.943943e+003,6.269693e+000
1.944907e+003,3.455661e+000
1.945871e+003,2.506598e+000
1.946836e+003,3.365668e+000
1.947800e+003,4.565652e+000
1.948764e+003,6.164963e+000
1.949728e+003,6.605164e+000
1.950693e+003,5.154248e+000
1.951657e+003,4.119220e+000
1.952621e+003,4.988727e+000
1.953585e+003,6.011435e+000
1.954549e+003,5.192889e+000
1.955514e+003,3.560495e+000
1.956478e+003,3.320215e+000
1.957442e+003,4.411695e+000
1.958406e+003,6.107959e+000
1.959371e+003,9.201831e+000
1.960335e+003,1.058307e+001
1.961299e+003,8.507733e+000
1.962263e+003,6.561301e+000
1.963228e+003,5.951974e+000
1.964192e+003,5.874106e+000
1.965156e+003,5.774182e+000
1.966120e+003,5.820670e+000
1.967084e+003,6.375216e+000
1.968049e+003,7.334299e+000
1.969013e+003,8.516714e+000
1.969977e+003,9.705948e+000
1.970941e+003,1.026816e+001
1.971906e+003,9.817441e+000
1.972870e+003,9.052386e+000
1.973834e+003,8.641703e+000
1.974798e+003,8.479193e+000
1.975763e+003,8.388364e+000
1.976727e+003,8.332434e+000
1.977691e+003,8.219254e+000
1.978655e+003,8.067248e+000
1.979620e+003,8.127661e+000
1.980584e+003,8.470230e+000
1.981548e+003,8.660635e+000
1.982512e+003,8.429514e+000
1.983476e+003,8.120008e+000
1.984441e+003,8.121347e+000
1.985405e+003,8.238998e+000
1.986369e+003,7.978503e+000
1.987333e+003,7.381314e+000
1.988298e+003,7.260318e+000
1.989262e+003,7.905719e+000
1.990226e+003,8.011917e+000
1.991190e+003,7.093750e+000
1.992155e+003,6.498209e+000
1.993119e+003,6.928729e+000
1.994083e+003,7.330539e+000
1.995047e+003,6.595102e+000
1.996011e+003,5.976074e+000
1.996976e+003,7.316638e+000
1.997940e+003,9.673678e+000
1.998904e+003,1.057428e+001
1.999868e+003,9.857773e+000
2.000833e+003,9.563787e+000
2.001797e+003,1.031708e+001
2.002761e+003,1.117325e+001
2.003725e+003,1.197823e+001
2.004690e+003,1.251803e+001
2.005654e+003,1.269228e+001
2.006618e+003,1.249553e+001
2.007582e+003,1.180036e+001
2.008547e+003,1.082091e+001
2.009511e+003,9.615885e+000
2.010475e+003,8.490988e+000
2.011439e+003,8.368878e+000
2.012403e+003,9.372696e+000
2.013368e+003,1.000620e+001
2.014332e+003,9.143847e+000
2.015296e+003,8.038175e+000
2.016260e+003,8.451944e+000
2.017225e+003,9.782263e+000
2.018189e+003,1.067834e+001
2.019153e+003,1.120742e+001
2.020117e+003,1.186215e+001
2.021082e+003,1.256943e+001
2.022046e+003,1.218694e+001
2.023010e+003,1.048159e+001
2.023974e+003,9.076123e+000
2.024938e+003,8.847720e+000
2.025903e+003,9.005200e+000
2.026867e+003,8.713614e+000
2.027831e+003,8.317087e+000
2.028795e+003,8.724823e+000
2.029760e+003,9.913513e+000
2.030724e+003,1.019527e+001
2.031688e+003,9.234060e+000
2.032652e+003,8.344763e+000
2.033617e+003,7.599899e+000
2.034581e+003,6.894873e+000
2.035545e+003,5.756589e+000
2.036509e+003,5.470792e+000
2.037474e+003,7.414411e+000
2.038438e+003,9.789984e+000
2.039402e+003,1.079290e+001
2.040366e+003,1.084788e+001
2.041330e+003,1.091792e+001
2.042295e+003,1.102889e+001
2.043259e+003,1.043386e+001
2.044223e+003,8.363760e+000
2.045187e+003,7.359103e+000
2.046152e+003,8.841342e+000
2.047116e+003,1.014421e+001
2.048080e+003,1.023136e+001
2.049044e+003,9.782166e+000
2.050009e+003,8.897082e+000
2.050973e+003,8.138669e+000
2.051937e+003,8.351919e+000
2.052901e+003,9.106753e+000
2.053865e+003,9.076853e+000
2.054830e+003,8.230673e+000
2.055794e+003,8.293036e+000
2.056758e+003,1.013225e+001
2.057722e+003,1.183906e+001
2.058687e+003,1.200543e+001
2.059651e+003,1.145653e+001
2.060615e+003,1.070660e+001
2.061579e+003,9.888361e+000
2.062544e+003,9.237866e+000
2.063508e+003,8.730810e+000
2.064472e+003,8.162476e+000
2.065436e+003,7.570508e+000
2.066401e+003,7.237396e+000
2.067365e+003,7.223773e+000
2.068329e+003,7.350812e+000
2.069293e+003,7.509000e+000
2.070258e+003,7.590555e+000
2.071222e+003,7.421500e+000
2.072186e+003,7.221414e+000
2.073150e+003,7.593140e+000
2.074115e+003,8.323947e+000
2.075079e+003,8.255359e+000
2.076043e+003,7.507474e+000
2.077007e+003,7.732751e+000
2.077971e+003,9.163534e+000
2.078936e+003,1.038562e+001
2.079900e+003,1.087831e+001
2.080864e+003,1.022473e+001
2.081828e+003,7.968732e+000
2.082792e+003,5.944455e+000
2.083757e+003,6.881531e+000
2.084721e+003,9.723780e+000
2.085685e+003,1.075730e+001
2.086649e+003,9.930420e+000
2.087614e+003,8.915854e+000
2.088578e+003,7.441107e+000
2.089542e+003,7.315125e+000
2.090506e+003,9.292572e+000
2.091471e+003,1.054111e+001
2.092435e+003,9.712634e+000
2.093399e+003,9.076548e+000
2.094363e+003,1.050258e+001
2.095328e+003,1.234126e+001
2.096292e+003,1.242771e+001
2.097256e+003,1.112608e+001
2.098220e+003,9.586563e+000
2.099185e+003,7.693887e+000
2.100149e+003,7.321387e+000
2.101113e+003,9.230466e+000
2.102077e+003,1.116240e+001
2.103042e+003,1.439397e+001
2.104006e+003,1.570613e+001
2.104970e+003,1.263994e+001
2.105934e+003,9.581800e+000
2.106898e+003,8.940305e+000
2.107863e+003,9.359228e+000
2.108827e+003,9.770001e+000
2.109791e+003,1.004507e+001
2.110755e+003,9.832843e+000
2.111719e+003,9.162226e+000
2.112684e+003,9.074145e+000
2.113648e+003,9.975614e+000
2.114612e+003,1.079312e+001
2.115576e+003,1.166780e+001
2.116541e+003,1.183260e+001
2.117505e+003,1.033130e+001
2.118469e+003,8.885739e+000
2.119433e+003,8.436969e+000
2.120398e+003,8.720325e+000
2.121362e+003,9.953812e+000
2.122326e+003,1.133344e+001
2.123290e+003,1.124908e+001
2.124255e+003,9.940076e+000
2.125219e+003,9.482043e+000
2.126183e+003,1.051163e+001
2.127147e+003,1.151363e+001
2.128112e+003,1.197000e+001
2.129076e+003,1.201691e+001
2.130040e+003,1.132619e+001
2.131004e+003,1.065959e+001
2.131969e+003,1.046693e+001
2.132933e+003,1.072612e+001
2.133897e+003,1.185129e+001
2.134861e+003,1.321252e+001
2.135825e+003,1.364981e+001
2.136790e+003,1.315222e+001
2.137754e+003,1.227824e+001
2.138718e+003,1.133692e+001
2.139682e+003,1.118887e+001
2.140646e+003,1.257791e+001
2.141611e+003,1.399256e+001
2.142575e+003,1.419361e+001
2.143539e+003,1.374041e+001
2.144503e+003,1.287125e+001
2.145468e+003,1.204845e+001
2.146432e+003,1.201780e+001
2.147396e+003,1.238082e+001
2.148360e+003,1.224741e+001
2.149325e+003,1.166198e+001
2.150289e+003,1.124847e+001
2.151253e+003,1.119175e+001
2.152217e+003,1.123074e+001
2.153182e+003,1.123544e+001
2.154146e+003,1.150537e+001
2.155110e+003,1.261042e+001
2.156074e+003,1.367746e+001
2.157039e+003,1.319688e+001
2.158003e+003,1.212782e+001
2.158967e+003,1.207819e+001
2.159931e+003,1.278846e+001
2.160896e+003,1.356465e+001
2.161860e+003,1.428194e+001
2.162824e+003,1.515917e+001
2.163788e+003,1.607592e+001
2.164752e+003,1.615934e+001
2.165717e+003,1.503392e+001
2.166681e+003,1.363139e+001
2.167645e+003,1.268840e+001
2.168609e+003,1.218864e+001
2.169573e+003,1.240199e+001
2.170538e+003,1.288838e+001
2.171502e+003,1.270008e+001
2.172466e+003,1.205675e+001
2.173430e+003,1.125483e+001
2.174395e+003,1.064614e+001
2.175359e+003,1.159163e+001
2.176323e+003,1.380977e+001
2.177287e+003,1.466091e+001
2.178252e+003,1.326733e+001
2.179216e+003,1.169718e+001
2.180180e+003,1.145655e+001
2.181144e+003,1.184285e+001
2.182109e+003,1.199456e+001
2.183073e+003,1.211018e+001
2.184037e+003,1.289147e+001
2.185001e+003,1.384002e+001
2.185966e+003,1.355931e+001
2.186930e+003,1.239132e+001
2.187894e+003,1.125398e+001
2.188858e+003,1.044491e+001
2.189823e+003,1.060057e+001
2.190787e+003,1.170282e+001
2.191751e+003,1.276470e+001
2.192715e+003,1.326202e+001
2.193679e+003,1.304733e+001
2.194644e+003,1.177198e+001
2.195608e+003,1.069477e+001
2.196572e+003,1.265891e+001
2.197536e+003,1.594168e+001
2.198500e+003,1.623050e+001
2.199465e+003,1.431382e+001
2.200429e+003,1.183081e+001
2.201393e+003,9.425321e+000
2.202357e+003,8.970438e+000
2.203322e+003,1.045682e+001
2.204286e+003,1.187488e+001
2.205250e+003,1.244867e+001
2.206214e+003,1.292060e+001
2.207179e+003,1.380831e+001
2.208143e+003,1.462418e+001
2.209107e+003,1.474407e+001
2.210071e+003,1.451502e+001
2.211036e+003,1.451031e+001
2.212000e+003,1.467898e+001
2.212964e+003,1.499588e+001
2.213928e+003,1.532780e+001
2.214893e+003,1.526332e+001
2.215857e+003,1.494049e+001
2.216821e+003,1.498191e+001
2.217785e+003,1.544584e+001
2.218750e+003,1.573509e+001
2.219714e+003,1.561005e+001
2.220678e+003,1.557783e+001
2.221642e+003,1.603624e+001
2.222606e+003,1.711130e+001
2.223571e+003,1.934288e+001
2.224535e+003,2.187252e+001
2.225499e+003,2.315903e+001
2.226463e+003,2.360946e+001
2.227427e+003,2.365574e+001
2.228392e+003,2.374970e+001
2.229356e+003,2.524426e+001
2.230320e+003,2.777173e+001
2.231284e+003,2.938936e+001
2.232249e+003,2.963054e+001
2.233213e+003,2.957266e+001
2.234177e+003,2.981227e+001
2.235141e+003,3.018818e+001
2.236106e+003,3.045548e+001
2.237070e+003,3.113925e+001
2.238034e+003,3.266658e+001
2.238998e+003,3.510195e+001
2.239963e+003,3.972380e+001
2.240927e+003,4.461970e+001
2.241891e+003,4.595443e+001
2.242855e+003,4.512485e+001
2.243820e+003,4.516842e+001
2.244784e+003,4.684905e+001
2.245748e+003,5.086996e+001
2.246712e+003,5.676165e+001
2.247677e+003,6.102395e+001
2.248641e+003,6.181174e+001
2.249605e+003,6.176723e+001
2.250569e+003,6.251996e+001
2.251533e+003,6.391821e+001
2.252498e+003,6.698660e+001
2.253462e+003,6.941695e+001
2.254426e+003,6.779625e+001
2.255390e+003,6.480357e+001
2.256354e+003,6.478516e+001
2.257319e+003,6.596271e+001
2.258283e+003,6.388457e+001
2.259247e+003,5.905792e+001
2.260211e+003,5.548954e+001
2.261176e+003,5.414970e+001
2.262140e+003,5.275715e+001
2.263104e+003,5.032176e+001
2.264068e+003,4.746703e+001
2.265033e+003,4.423290e+001
2.265997e+003,4.111217e+001
2.266961e+003,3.849973e+001
2.267925e+003,3.597908e+001
2.268890e+003,3.281498e+001
2.269854e+003,2.992952e+001
2.270818e+003,2.863318e+001
2.271782e+003,2.822399e+001
2.272747e+003,2.755356e+001
2.273711e+003,2.648185e+001
2.274675e+003,2.519813e+001
2.275639e+003,2.373691e+001
2.276604e+003,2.200115e+001
2.277568e+003,1.974406e+001
2.278532e+003,1.769219e+001
2.279496e+003,1.534926e+001
2.280460e+003,1.411156e+001
2.281425e+003,1.581253e+001
2.282389e+003,1.715631e+001
2.283353e+003,1.590970e+001
2.284317e+003,1.383322e+001
2.285281e+003,1.215815e+001
2.286246e+003,1.105751e+001
2.287210e+003,1.087241e+001
2.288174e+003,1.144811e+001
2.289138e+003,1.208592e+001
2.290103e+003,1.301173e+001
2.291067e+003,1.262692e+001
2.292031e+003,9.632813e+000
2.292995e+003,7.862781e+000
2.293960e+003,7.879614e+000
2.294924e+003,8.329462e+000
2.295888e+003,9.467102e+000
2.296852e+003,9.920468e+000
2.297817e+003,8.682630e+000
2.298781e+003,7.128686e+000
2.299745e+003,6.515753e+000
2.300709e+003,6.365832e+000
2.301674e+003,5.787460e+000
2.302638e+003,4.902997e+000
2.303602e+003,4.387103e+000
2.304566e+003,4.216058e+000
2.305531e+003,4.526566e+000
2.306495e+003,5.475241e+000
2.307459e+003,6.049558e+000
2.308423e+003,6.139234e+000
2.309387e+003,5.719229e+000
2.310352e+003,4.736352e+000
2.311316e+003,3.655975e+000
2.312280e+003,2.678766e+000
2.313244e+003,2.608456e+000
2.314208e+003,4.178500e+000
2.315173e+003,6.044318e+000
2.316137e+003,6.328833e+000
2.317101e+003,5.296799e+000
2.318065e+003,2.845783e+000
2.319030e+003,-1.400818e-001
2.319994e+003,6.821533e-001
2.320958e+003,4.143329e+000
2.321922e+003,5.080194e+000
2.322887e+003,3.650366e+000
2.323851e+003,3.162183e+000
2.324815e+003,4.104428e+000
2.325779e+003,4.794711e+000
2.326744e+003,4.598498e+000
2.327708e+003,4.285980e+000
2.328672e+003,4.342758e+000
2.329636e+003,4.009604e+000
2.330601e+003,2.242902e+000
2.331565e+003,3.270752e-001
2.332529e+003,-9.117432e-002
2.333493e+003,-6.652222e-002
2.334458e+003,-1.033215e+000
2.335422e+003,-2.212186e+000
2.336386e+003,-2.570172e+000
2.337350e+003,-2.174042e+000
2.338314e+003,-8.336121e-001
2.339279e+003,7.706054e-001
2.340243e+003,6.347809e-001
2.341207e+003,-1.330200e+000
2.342171e+003,-2.186285e+000
2.343135e+003,-6.396942e-001
2.344100e+003,2.538147e-001
2.345064e+003,-1.288309e+000
2.346028e+003,-2.696640e+000
2.346992e+003,-3.056634e+000
2.347957e+003,-3.091757e+000
2.348921e+003,-3.355588e+000
2.349885e+003,-3.217014e+000
2.350849e+003,-1.445505e+000
2.351814e+003,3.513214e-001
2.352778e+003,-2.089142e-001
2.353742e+003,-2.084732e+000
2.354706e+003,-2.575754e+000
2.355671e+003,-1.794861e+000
2.356635e+003,-1.632519e+000
2.357599e+003,-2.343463e+000
2.358563e+003,-2.604559e+000
2.359528e+003,-2.163059e+000
2.360492e+003,-2.244910e+000
2.361456e+003,-3.244754e+000
2.362420e+003,-3.528598e+000
2.363385e+003,-2.425238e+000
2.364349e+003,-1.603854e+000
2.365313e+003,-1.995474e+000
2.366277e+003,-2.597794e+000
2.367241e+003,-2.456210e+000
2.368206e+003,-2.276749e+000
2.369170e+003,-3.331989e+000
2.370134e+003,-4.923480e+000
2.371098e+003,-4.764078e+000
2.372063e+003,-3.383530e+000
2.373027e+003,-2.944330e+000
2.373991e+003,-3.242557e+000
2.374955e+003,-3.543579e+000
2.375919e+003,-3.757468e+000
2.376884e+003,-4.032788e+000
2.377848e+003,-4.266364e+000
2.378812e+003,-3.807190e+000
2.379776e+003,-2.551648e+000
2.380741e+003,-1.305963e+000
2.381705e+003,-4.881988e-001
2.382669e+003,-3.807068e-001
2.383633e+003,-1.766626e+000
2.384598e+003,-2.910800e+000
2.385562e+003,-1.920187e+000
2.386526e+003,-8.126831e-001
2.387490e+003,-1.732870e+000
2.388455e+003,-2.771411e+000
2.389419e+003,-1.324503e+000
2.390383e+003,6.334137e-001
2.391347e+003,3.245850e-002
2.392312e+003,-2.214066e+000
2.393276e+003,-3.710815e+000
2.394240e+003,-4.216773e+000
2.395204e+003,-4.029541e+000
2.396168e+003,-2.864075e+000
2.397133e+003,-2.362424e+000
2.398097e+003,-3.121848e+000
2.399061e+003,-3.579300e+000
2.400025e+003,-3.622070e+000
2.400990e+003,-3.435870e+000
2.401954e+003,-2.936111e+000
2.402918e+003,-2.505304e+000
2.403882e+003,-2.267264e+000
2.404846e+003,-2.468536e+000
2.405811e+003,-3.543222e+000
2.406775e+003,-4.050986e+000
2.407739e+003,-1.708658e+000
2.408703e+003,1.889999e+000
2.409668e+003,2.191956e+000
2.410632e+003,-5.621948e-002
2.411596e+003,-1.204327e+000
2.412560e+003,-1.409457e+000
2.413525e+003,-9.271454e-001
2.414489e+003,-1.337067e-001
2.415453e+003,-6.961823e-001
2.416417e+003,-2.295859e+000
2.417382e+003,-2.712863e+000
2.418346e+003,-1.507407e+000
2.419310e+003,1.830933e-001
2.420274e+003,1.759378e+000
2.421239e+003,2.396515e+000
2.422203e+003,1.336218e+000
2.423167e+003,4.594726e-002
2.424131e+003,-6.713837e-001
2.425095e+003,-9.316101e-001
2.426060e+003,-5.238159e-001
2.427024e+003,-2.806091e-002
2.427988e+003,4.035340e-002
2.428952e+003,5.498352e-002
2.429917e+003,5.777222e-001
2.430881e+003,1.219022e+000
2.431845e+003,1.109415e+000
2.432809e+003,5.607086e-001
2.433773e+003,1.067139e+000
2.434738e+003,2.634497e+000
2.435702e+003,2.852399e+000
2.436666e+003,1.141443e+000
2.437630e+003,1.430450e-001
2.438595e+003,-2.173309e-001
2.439559e+003,6.109070e-001
2.440523e+003,2.997858e+000
2.441487e+003,4.540250e+000
2.442452e+003,4.479215e+000
2.443416e+003,3.722772e+000
2.444380e+003,2.743359e+000
2.445344e+003,2.098468e+000
2.446309e+003,2.256604e+000
2.447273e+003,2.822858e+000
2.448237e+003,3.108517e+000
2.449201e+003,3.817316e+000
2.450166e+003,7.519983e+000
2.451130e+003,1.131848e+001
2.452094e+003,9.226965e+000
2.453058e+003,4.904645e+000
2.454022e+003,4.515875e+000
2.454987e+003,6.253867e+000
2.455951e+003,5.698300e+000
2.456915e+003,3.526047e+000
2.457879e+003,3.004330e+000
2.458844e+003,4.465576e+000
2.459808e+003,6.105237e+000
2.460772e+003,7.591012e+000
2.461736e+003,8.449222e+000
2.462700e+003,8.271695e+000
2.463665e+003,7.891767e+000
2.464629e+003,7.244299e+000
2.465593e+003,6.811905e+000
2.466557e+003,6.745999e+000
2.467522e+003,6.665695e+000
2.468486e+003,6.413849e+000
2.469450e+003,6.114118e+000
2.470414e+003,5.780011e+000
2.471379e+003,5.777893e+000
2.472343e+003,6.516174e+000
2.473307e+003,7.938635e+000
2.474271e+003,1.036904e+001
2.475236e+003,1.291808e+001
2.476200e+003,1.206436e+001
2.477164e+003,9.131296e+000
2.478128e+003,7.754813e+000
2.479093e+003,7.859955e+000
2.480057e+003,9.312048e+000
2.481021e+003,1.132970e+001
2.481985e+003,1.234142e+001
2.482949e+003,1.220021e+001
2.483914e+003,1.145054e+001
2.484878e+003,1.035699e+001
2.485842e+003,9.498816e+000
2.486806e+003,9.079700e+000
2.487771e+003,8.978808e+000
2.488735e+003,9.185245e+000
2.489699e+003,9.663336e+000
2.490663e+003,1.118998e+001
2.491627e+003,1.173791e+001
2.492592e+003,9.292193e+000
2.493556e+003,7.875275e+000
2.494520e+003,1.009739e+001
2.495484e+003,1.266636e+001
2.496449e+003,1.271080e+001
2.497413e+003,1.193501e+001
2.498377e+003,1.292314e+001
2.499341e+003,1.476316e+001
2.500306e+003,1.498238e+001
2.501270e+003,1.396816e+001
2.502234e+003,1.327967e+001
2.503198e+003,1.291327e+001
2.504163e+003,1.294060e+001
2.505127e+003,1.323239e+001
2.506091e+003,1.335789e+001
2.507055e+003,1.348196e+001
2.508020e+003,1.430376e+001
2.508984e+003,1.580126e+001
2.509948e+003,1.738040e+001
2.510912e+003,1.878356e+001
2.511876e+003,1.966993e+001
2.512841e+003,1.985371e+001
2.513805e+003,1.981215e+001
2.514769e+003,1.925252e+001
2.515733e+003,1.916129e+001
2.516698e+003,2.008878e+001
2.517662e+003,2.104454e+001
2.518626e+003,2.200361e+001
2.519590e+003,2.253160e+001
2.520554e+003,2.199995e+001
2.521519e+003,2.193790e+001
2.522483e+003,2.386922e+001
2.523447e+003,2.614548e+001
2.524411e+003,2.629502e+001
2.525376e+003,2.546818e+001
2.526340e+003,2.655886e+001
2.527304e+003,2.886138e+001
2.528268e+003,3.006713e+001
2.529233e+003,3.080661e+001
2.530197e+003,3.268938e+001
2.531161e+003,3.529760e+001
2.532125e+003,3.768463e+001
2.533090e+003,3.961270e+001
2.534054e+003,4.086614e+001
2.535018e+003,4.163931e+001
2.535982e+003,4.255645e+001
2.536947e+003,4.374284e+001
2.537911e+003,4.478107e+001
2.538875e+003,4.535744e+001
2.539839e+003,4.638000e+001
2.540803e+003,4.767698e+001
2.541768e+003,5.012663e+001
2.542732e+003,5.509942e+001
2.543696e+003,5.769813e+001
2.544660e+003,5.605547e+001
2.545625e+003,5.483067e+001
2.546589e+003,5.624982e+001
2.547553e+003,5.797645e+001
2.548517e+003,5.819355e+001
2.549482e+003,5.763519e+001
2.550446e+003,5.709827e+001
2.551410e+003,5.676868e+001
2.552374e+003,5.712784e+001
2.553339e+003,5.761796e+001
2.554303e+003,5.754254e+001
2.555267e+003,5.707234e+001
2.556231e+003,5.642036e+001
2.557196e+003,5.548428e+001
2.558160e+003,5.378547e+001
2.559124e+003,5.187869e+001
2.560088e+003,5.112568e+001
2.561052e+003,5.102520e+001
2.562017e+003,4.907867e+001
2.562981e+003,4.525996e+001
2.563945e+003,4.334208e+001
2.564909e+003,4.376879e+001
2.565874e+003,4.369231e+001
2.566838e+003,4.318954e+001
2.567802e+003,4.150338e+001
2.568766e+003,3.859004e+001
2.569730e+003,3.733285e+001
2.570695e+003,3.803551e+001
2.571659e+003,3.718926e+001
2.572623e+003,3.390867e+001
2.573587e+003,3.163448e+001
2.574552e+003,3.212031e+001
2.575516e+003,3.233461e+001
2.576480e+003,3.013386e+001
2.577444e+003,2.736574e+001
2.578409e+003,2.456083e+001
2.579373e+003,2.233751e+001
2.580337e+003,2.152635e+001
2.581301e+003,2.092586e+001
2.582266e+003,1.999623e+001
2.583230e+003,1.890198e+001
2.584194e+003,1.755895e+001
2.585158e+003,1.628213e+001
2.586123e+003,1.529616e+001
2.587087e+003,1.494102e+001
2.588051e+003,1.598503e+001
2.589015e+003,1.761740e+001
2.589979e+003,1.702611e+001
2.590944e+003,1.493140e+001
2.591908e+003,1.434297e+001
2.592872e+003,1.455864e+001
2.593836e+003,1.370697e+001
2.594801e+003,1.226323e+001
2.595765e+003,1.172981e+001
2.596729e+003,1.165882e+001
2.597693e+003,1.022771e+001
2.598657e+003,7.800937e+000
2.599622e+003,6.860825e+000
2.600586e+003,7.820770e+000
2.601550e+003,8.179529e+000
2.602514e+003,7.310446e+000
2.603479e+003,6.482617e+000
2.604443e+003,5.396188e+000
2.605407e+003,5.472122e+000
2.606371e+003,7.208844e+000
2.607336e+003,7.849283e+000
2.608300e+003,6.764203e+000
2.609264e+003,5.327777e+000
2.610228e+003,4.118598e+000
2.611193e+003,3.608548e+000
2.612157e+003,4.065671e+000
2.613121e+003,5.026468e+000
2.614085e+003,6.370407e+000
2.615050e+003,7.011627e+000
2.616014e+003,5.309128e+000
2.616978e+003,3.578094e+000
2.617942e+003,3.494488e+000
2.618906e+003,3.686215e+000
2.619871e+003,3.461945e+000
2.620835e+003,2.959018e+000
2.621799e+003,1.953915e+000
2.622763e+003,1.199222e+000
2.623728e+003,1.503436e+000
2.624692e+003,2.298221e+000
2.625656e+003,2.708991e+000
2.626620e+003,2.793274e+000
2.627584e+003,2.572659e+000
2.628549e+003,2.248459e+000
2.629513e+003,2.915433e+000
2.630477e+003,3.760968e+000
2.631441e+003,2.378152e+000
2.632406e+003,1.512512e-001
2.633370e+003,6.581421e-002
2.634334e+003,1.345670e+000
2.635298e+003,1.705649e+000
2.636263e+003,1.287067e+000
2.637227e+003,1.948398e+000
2.638191e+003,3.772153e+000
2.639155e+003,3.798721e+000
2.640120e+003,1.520184e+000
2.641084e+003,2.562073e-001
2.642048e+003,1.654968e-002
2.643012e+003,7.515503e-001
2.643977e+003,2.483289e+000
2.644941e+003,3.075586e+000
2.645905e+003,2.327530e+000
2.646869e+003,1.616333e+000
2.647833e+003,1.393546e+000
2.648798e+003,1.883310e+000
2.649762e+003,3.010751e+000
2.650726e+003,3.102325e+000
2.651690e+003,1.078189e+000
2.652655e+003,-9.332489e-001
2.653619e+003,-2.481595e+000
2.654583e+003,-2.968103e+000
2.655547e+003,-1.462741e+000
2.656511e+003,-3.490906e-002
2.657476e+003,7.973419e-001
2.658440e+003,1.428003e+000
2.659404e+003,2.133853e+000
2.660368e+003,1.923407e+000
2.661333e+003,6.947021e-002
2.662297e+003,-1.383063e+000
2.663261e+003,-3.708130e-001
2.664225e+003,1.313443e+000
2.665190e+003,1.512936e+000
2.666154e+003,9.438049e-001
2.667118e+003,2.733765e-002
2.668082e+003,-7.366363e-001
2.669047e+003,-8.611695e-001
2.670011e+003,-7.192993e-001
2.670975e+003,-4.748291e-001
2.671939e+003,-3.647552e-001
2.672904e+003,-8.230133e-001
2.673868e+003,-1.190482e+000
2.674832e+003,-3.529480e-001
2.675796e+003,8.367767e-001
2.676760e+003,-3.338318e-002
2.677725e+003,-2.195868e+000
2.678689e+003,-2.397113e+000
2.679653e+003,-1.259403e+000
2.680617e+003,-4.850739e-001
2.681582e+003,1.550903e-002
2.682546e+003,7.564636e-001
2.683510e+003,1.474560e+000
2.684474e+003,1.278159e+000
2.685438e+003,6.166992e-001
2.686403e+003,9.001220e-001
2.687367e+003,2.088712e+000
2.688331e+003,3.005057e+000
2.689295e+003,3.658087e+000
2.690260e+003,3.144455e+000
2.691224e+003,1.177863e+000
2.692188e+003,6.657867e-001
2.693152e+003,1.533420e+000
2.694117e+003,1.655576e+000
2.695081e+003,9.876007e-001
2.696045e+003,7.833588e-001
2.697009e+003,9.810852e-001
2.697974e+003,-8.231811e-002
2.698938e+003,-2.438501e+000
2.699902e+003,-3.621271e+000
2.700866e+003,-2.780057e+000
2.701831e+003,-1.448505e+000
2.702795e+003,8.538452e-001
2.703759e+003,1.538449e+000
2.704723e+003,-6.073059e-001
2.705688e+003,-7.854217e-001
2.706652e+003,2.126822e+000
2.707616e+003,2.844901e+000
2.708580e+003,9.736023e-002
2.709544e+003,-3.519641e+000
2.710509e+003,-6.683040e+000
2.711473e+003,-7.786484e+000
2.712437e+003,-5.972989e+000
2.713401e+003,-3.261466e+000
2.714365e+003,-5.291595e-001
2.715330e+003,1.564496e+000
2.716294e+003,3.202698e+000
2.717258e+003,3.335245e+000
2.718222e+003,1.824951e-003
2.719187e+003,-2.437375e+000
2.720151e+003,-2.514179e+000
2.721115e+003,-1.994626e+000
2.722079e+003,-1.737601e+000
2.723044e+003,-1.090488e+000
2.724008e+003,4.588745e-001
2.724972e+003,1.847055e+000
2.725936e+003,2.007822e+000
2.726901e+003,1.453629e+000
2.727865e+003,1.870728e-003
2.728829e+003,-8.890381e-001
2.729793e+003,7.973877e-001
2.730758e+003,2.412643e+000
2.731722e+003,1.994922e+000
2.732686e+003,8.831055e-001
2.733650e+003,-1.237457e-001
2.734615e+003,-9.528229e-001
2.735579e+003,-1.570685e+000
2.736543e+003,-1.939493e+000
2.737507e+003,-2.011853e+000
2.738471e+003,-1.742786e+000
2.739436e+003,-8.970703e-001
2.740400e+003,1.725647e-001
2.741364e+003,1.229486e+000
2.742328e+003,1.768527e+000
2.743292e+003,5.946045e-001
2.744257e+003,-8.134186e-001
2.745221e+003,-7.273560e-001
2.746185e+003,-1.834412e-002
2.747149e+003,3.383728e-001
2.748114e+003,1.532776e-001
2.749078e+003,-1.086935e+000
2.750042e+003,-2.517273e+000
2.751006e+003,-1.585321e+000
2.751971e+003,7.196289e-001
2.752935e+003,7.896271e-001
2.753899e+003,-2.738068e-001
2.754863e+003,-1.181641e-002
2.755828e+003,8.432617e-001
2.756792e+003,1.122769e+000
2.757756e+003,8.847046e-001
2.758720e+003,3.721558e-001
2.759685e+003,-3.792602e-001
2.760649e+003,-1.737573e+000
2.761613e+003,-3.140173e+000
2.762577e+003,-2.839062e+000
2.763542e+003,-1.071774e+000
2.764506e+003,9.118713e-001
2.765470e+003,2.773645e+000
2.766434e+003,2.274384e+000
2.767398e+003,3.042023e-001
2.768363e+003,-1.056525e+000
2.769327e+003,-1.762488e+000
2.770291e+003,-2.215390e+000
2.771255e+003,-2.356040e+000
2.772219e+003,-1.732593e+000
2.773184e+003,-5.631958e-001
2.774148e+003,5.565796e-002
2.775112e+003,1.130280e-001
2.776076e+003,-2.084930e-001
2.777041e+003,-9.074524e-001
2.778005e+003,-1.187280e+000
2.778969e+003,-1.143326e+000
2.779933e+003,-1.453735e+000
2.780898e+003,-1.888339e+000
2.781862e+003,-1.432184e+000
2.782826e+003,-4.404022e-001
2.783790e+003,-2.648498e-001
2.784755e+003,-8.191468e-001
2.785719e+003,-7.799743e-001
2.786683e+003,4.570618e-002
2.787647e+003,6.521484e-001
2.788612e+003,1.060748e+000
2.789576e+003,6.124054e-001
2.790540e+003,-6.248230e-001
2.791504e+003,-8.204620e-001
2.792469e+003,-1.222961e-001
2.793433e+003,-1.433411e-002
2.794397e+003,-3.307709e-001
2.795361e+003,5.593719e-001
2.796325e+003,2.330832e+000
2.797290e+003,2.640848e+000
2.798254e+003,1.153882e+000
2.799218e+003,-4.240112e-002
2.800182e+003,-7.671081e-001
2.801146e+003,-1.308502e+000
2.802111e+003,-1.712659e+000
2.803075e+003,-5.918732e-001
2.804039e+003,1.795975e+000
2.805003e+003,2.786429e+000
2.805968e+003,2.262927e+000
2.806932e+003,1.128677e+000
2.807896e+003,3.274841e-002
2.808860e+003,2.764160e-001
2.809825e+003,1.819626e+000
2.810789e+003,2.092236e+000
2.811753e+003,2.492279e-001
2.812717e+003,-5.050232e-001
2.813682e+003,1.392181e-001
2.814646e+003,3.429718e-001
2.815610e+003,9.732056e-002
2.816574e+003,1.700439e-001
2.817539e+003,4.967011e-001
2.818503e+003,2.178986e-001
2.819467e+003,-5.979859e-001
2.820431e+003,-1.077017e+000
2.821396e+003,-1.020139e+000
2.822360e+003,-8.569977e-001
2.823324e+003,-7.157868e-001
2.824288e+003,6.171570e-002
2.825252e+003,2.142468e+000
2.826217e+003,1.721020e+000
2.827181e+003,-1.304181e+000
2.828145e+003,-1.415295e+000
2.829109e+003,1.127145e+000
2.830073e+003,1.863001e+000
2.831038e+003,5.177002e-001
2.832002e+003,-1.052661e+000
2.832966e+003,-2.136862e+000
2.833930e+003,-2.034161e+000
2.834895e+003,-6.005554e-001
2.835859e+003,5.869904e-001
2.836823e+003,1.606061e+000
2.837787e+003,9.661407e-001
2.838752e+003,-1.520093e+000
2.839716e+003,-1.637152e+000
2.840680e+003,3.608978e-001
2.841644e+003,9.541748e-001
2.842609e+003,2.664185e-002
2.843573e+003,-9.158233e-001
2.844537e+003,-1.429471e+000
2.845501e+003,-1.497266e+000
2.846466e+003,-1.138901e+000
2.847430e+003,-3.185913e-001
2.848394e+003,1.091699e+000
2.849358e+003,1.523340e+000
2.850323e+003,9.213409e-001
2.851287e+003,8.519531e-001
2.852251e+003,1.194485e+000
2.853215e+003,6.256897e-001
2.854179e+003,-5.411224e-001
2.855144e+003,-7.435242e-001
2.856108e+003,-1.808136e-001
2.857072e+003,-4.978699e-001
2.858036e+003,-1.693463e+000
2.859000e+003,-1.594879e+000
2.859965e+003,-7.097168e-002
2.860929e+003,8.336822e-001
2.861893e+003,1.080704e+000
2.862857e+003,1.232779e+000
2.863822e+003,1.247885e+000
2.864786e+003,2.210876e-001
2.865750e+003,-1.122009e+000
2.866714e+003,-2.281250e-001
2.867679e+003,1.938412e+000
2.868643e+003,2.048019e+000
2.869607e+003,3.670990e-001
2.870571e+003,2.015076e-001
2.871536e+003,1.444516e+000
2.872500e+003,2.288779e+000
2.873464e+003,2.686664e+000
2.874428e+003,1.907306e+000
2.875393e+003,4.542359e-001
2.876357e+003,-1.004669e-001
2.877321e+003,1.880676e-001
2.878285e+003,1.287607e+000
2.879250e+003,2.619583e+000
2.880214e+003,3.280713e+000
2.881178e+003,3.285913e+000
2.882142e+003,3.110495e+000
2.883106e+003,2.652219e+000
2.884071e+003,1.055338e+000
2.885035e+003,-1.073038e+000
2.885999e+003,4.107819e-001
2.886963e+003,3.484936e+000
2.887927e+003,2.732410e+000
2.888892e+003,4.771698e-001
2.889856e+003,7.428101e-001
2.890820e+003,2.286514e+000
2.891784e+003,2.851898e+000
2.892749e+003,2.761560e+000
2.893713e+003,2.922498e+000
2.894677e+003,3.015210e+000
2.895641e+003,2.171616e+000
2.896606e+003,8.659210e-001
2.897570e+003,3.063568e-001
2.898534e+003,3.497162e-001
2.899498e+003,9.762726e-001
2.900463e+003,1.811304e+000
2.901427e+003,2.794925e+000
2.902391e+003,3.420783e+000
2.903355e+003,3.203046e+000
2.904320e+003,2.226236e+000
2.905284e+003,3.337952e-001
2.906248e+003,-1.501312e+000
2.907212e+003,-1.819901e+000
2.908177e+003,-1.070319e+000
2.909141e+003,8.684753e-001
2.910105e+003,2.362885e+000
2.911069e+003,9.682251e-001
2.912033e+003,-7.334839e-001
2.912998e+003,-5.230805e-001
2.913962e+003,-2.257538e-001
2.914926e+003,-1.199625e+000
2.915890e+003,-1.754883e+000
2.916854e+003,-5.932007e-001
2.917819e+003,8.458832e-001
2.918783e+003,1.154150e+000
2.919747e+003,8.196045e-001
2.920711e+003,-5.419312e-002
2.921676e+003,-7.344971e-001
2.922640e+003,-6.509888e-001
2.923604e+003,-4.226990e-001
2.924568e+003,-3.783539e-001
2.925533e+003,6.920777e-002
2.926497e+003,1.192715e+000
2.927461e+003,1.406338e+000
2.928425e+003,1.911316e-001
2.929390e+003,-3.591400e-001
2.930354e+003,7.935272e-001
2.931318e+003,1.718759e+000
2.932282e+003,1.237338e+000
2.933247e+003,3.197907e-001
2.934211e+003,-6.909240e-001
2.935175e+003,-4.441223e-001
2.936139e+003,1.174618e+000
2.937104e+003,1.786090e+000
2.938068e+003,9.803802e-001
2.939032e+003,-9.064026e-002
2.939996e+003,-8.902649e-001
2.940960e+003,-6.675812e-001
2.941925e+003,8.107300e-001
2.942889e+003,1.128870e+000
2.943853e+003,-1.447366e+000
2.944817e+003,-1.642316e+000
2.945781e+003,1.420035e+000
2.946746e+003,2.369861e+000
2.947710e+003,1.036169e+000
2.948674e+003,-3.699341e-001
2.949638e+003,-1.378690e+000
2.950603e+003,-1.871823e+000
2.951567e+003,-1.873248e+000
2.952531e+003,-1.556723e+000
2.953495e+003,-9.349731e-001
2.954460e+003,4.761597e-001
2.955424e+003,2.680655e+000
2.956388e+003,1.725009e+000
2.957352e+003,-1.838304e+000
2.958317e+003,-2.068506e+000
2.959281e+003,-2.743683e-001
2.960245e+003,-7.098206e-001
2.961209e+003,-2.292207e+000
2.962174e+003,-2.340919e+000
2.963138e+003,-1.123663e+000
2.964102e+003,3.948852e-001
2.965066e+003,1.803000e+000
2.966031e+003,2.280694e+000
2.966995e+003,2.027911e+000
2.967959e+003,1.457507e+000
2.968923e+003,8.119171e-001
2.969887e+003,4.725494e-001
2.970852e+003,5.307099e-001
2.971816e+003,1.640601e+000
2.972780e+003,2.614471e+000
2.973744e+003,2.103662e+000
2.974708e+003,1.006497e+000
2.975673e+003,-1.187561e-001
2.976637e+003,-6.174866e-001
2.977601e+003,4.413849e-001
2.978565e+003,1.637924e+000
2.979530e+003,4.800079e-001
2.980494e+003,-5.230133e-001
2.981458e+003,1.742481e+000
2.982422e+003,3.170834e+000
2.983387e+003,7.005646e-001
2.984351e+003,-1.074228e+000
2.985315e+003,-4.138092e-001
2.986279e+003,-2.146912e-002
2.987244e+003,-1.250249e+000
2.988208e+003,-2.469756e+000
2.989172e+003,-2.703836e+000
2.990136e+003,-1.993927e+000
2.991101e+003,6.178467e-001
2.992065e+003,2.109543e+000
2.993029e+003,1.405899e+000
2.993993e+003,8.484009e-001
2.994958e+003,6.522034e-001
2.995922e+003,9.002411e-001
2.996886e+003,1.488345e+000
2.997850e+003,1.619669e+000
2.998814e+003,1.208859e+000
2.999779e+003,9.428375e-001
3.000743e+003,1.011789e+000
3.001707e+003,1.550851e+000
3.002671e+003,2.781793e+000
3.003635e+003,2.339603e+000
3.004600e+003,3.814362e-001
3.005564e+003,-1.528320e-001
3.006528e+003,3.787750e-001
3.007492e+003,2.265564e-001
3.008457e+003,-1.752258e-001
3.009421e+003,7.380036e-001
3.010385e+003,2.506439e+000
3.011349e+003,3.899017e+000
3.012314e+003,4.449136e+000
3.013278e+003,2.512976e+000
3.014242e+003,-6.083023e-001
3.015206e+003,-2.752228e-001
3.016171e+003,1.568939e+000
3.017135e+003,1.994479e+000
3.018099e+003,1.631128e+000
3.019063e+003,5.447296e-001
3.020028e+003,8.319702e-002
3.020992e+003,1.764441e+000
3.021956e+003,2.829779e+000
3.022920e+003,7.155548e-001
3.023885e+003,-1.493019e+000
3.024849e+003,-7.707214e-002
3.025813e+003,1.602093e+000
3.026777e+003,-4.361297e-001
3.027741e+003,-2.080775e+000
3.028706e+003,-6.875092e-001
3.029670e+003,5.855469e-001
3.030634e+003,1.126385e+000
3.031598e+003,4.058777e-001
3.032563e+003,-1.568938e+000
3.033527e+003,-1.461056e+000
3.034491e+003,1.794470e+000
3.035455e+003,3.126901e+000
3.036420e+003,-2.608307e-001
3.037384e+003,-1.566702e+000
3.038348e+003,1.830576e+000
3.039312e+003,2.503723e+000
3.040277e+003,3.527039e-001
3.041241e+003,-9.911041e-001
3.042205e+003,-1.175235e+000
3.043169e+003,-7.129669e-002
3.044134e+003,1.578076e+000
3.045098e+003,1.930881e+000
3.046062e+003,9.094146e-001
3.047026e+003,-5.306961e-001
3.047990e+003,-2.027153e+000
3.048955e+003,-1.806134e+000
3.049919e+003,-4.522125e-001
3.050883e+003,-6.038696e-001
3.051847e+003,-1.393668e+000
3.052812e+003,-1.489653e+000
3.053776e+003,-1.179413e+000
3.054740e+003,-6.919296e-001
3.055704e+003,-3.935089e-001
3.056668e+003,-6.390473e-001
3.057633e+003,-7.929947e-001
3.058597e+003,-1.136444e-001
3.059561e+003,5.754608e-001
3.060525e+003,1.127579e-001
3.061490e+003,-6.086792e-001
3.062454e+003,-1.013123e+000
3.063418e+003,-1.267941e+000
3.064382e+003,-1.493855e+000
3.065347e+003,-1.471732e+000
3.066311e+003,-1.124953e+000
3.067275e+003,-8.614761e-001
3.068239e+003,-7.498230e-001
3.069204e+003,2.463852e-001
3.070168e+003,2.564322e+000
3.071132e+003,3.310425e+000
3.072096e+003,5.024567e-001
3.073061e+003,-7.038833e-001
3.074025e+003,-1.116013e-001
3.074989e+003,6.347381e-001
3.075953e+003,1.304535e+000
3.076917e+003,1.638348e+000
3.077882e+003,1.522928e+000
3.078846e+003,4.281006e-001
3.079810e+003,-1.051265e+000
3.080774e+003,-1.032616e+000
3.081739e+003,-8.628845e-003
3.082703e+003,5.730774e-001
3.083667e+003,6.598297e-001
3.084631e+003,-3.309067e-001
3.085595e+003,-1.455099e+000
3.086560e+003,-8.844574e-001
3.087524e+003,3.643036e-002
3.088488e+003,-1.838715e-001
3.089452e+003,-5.238785e-001
3.090417e+003,-1.914246e-001
3.091381e+003,-1.708740e-001
3.092345e+003,-1.264911e+000
3.093309e+003,-2.106714e+000
3.094274e+003,-1.298395e+000
3.095238e+003,-4.074097e-001
3.096202e+003,-7.407547e-001
3.097166e+003,-4.137253e-001
3.098131e+003,1.274515e+000
3.099095e+003,1.763376e+000
3.100059e+003,7.091995e-001
3.101023e+003,1.165588e-001
3.101988e+003,3.989990e-001
3.102952e+003,6.476318e-001
3.103916e+003,6.400833e-001
3.104880e+003,1.204674e+000
3.105844e+003,2.473413e+000
3.106809e+003,2.313489e+000
3.107773e+003,8.463699e-001
3.108737e+003,-8.422302e-001
3.109701e+003,-2.380127e+000
3.110666e+003,-2.891530e+000
3.111630e+003,-2.654097e+000
3.112594e+003,-1.664548e+000
3.113558e+003,-9.327301e-001
3.114522e+003,-1.825328e+000
3.115487e+003,-3.024097e+000
3.116451e+003,-2.593298e+000
3.117415e+003,-1.531241e+000
3.118379e+003,-1.075581e+000
3.119344e+003,-9.484070e-001
3.120308e+003,-8.601349e-001
3.121272e+003,-1.367734e+000
3.122236e+003,-3.102179e+000
3.123201e+003,-3.351317e+000
3.124165e+003,-1.309900e+000
3.125129e+003,3.419357e-001
3.126093e+003,5.174438e-001
3.127058e+003,5.659531e-001
3.128022e+003,1.092865e+000
3.128986e+003,1.158086e+000
3.129950e+003,5.196441e-001
3.130915e+003,-7.789765e-002
3.131879e+003,-5.872726e-001
3.132843e+003,-2.920715e-001
3.133807e+003,2.957916e-001
3.134771e+003,-6.406463e-001
3.135736e+003,-2.252446e+000
3.136700e+003,-1.928424e+000
3.137664e+003,-7.706894e-001
3.138628e+003,-1.204869e+000
3.139593e+003,-2.480675e+000
3.140557e+003,-3.332733e+000
3.141521e+003,-3.313489e+000
3.142485e+003,-4.492325e-001
3.143449e+003,1.884270e+000
3.144414e+003,3.885773e-001
3.145378e+003,-1.582722e+000
3.146342e+003,-2.778404e+000
3.147306e+003,-3.302684e+000
3.148271e+003,-3.225456e+000
3.149235e+003,-2.607913e+000
3.150199e+003,-1.453072e+000
3.151163e+003,-5.213852e-001
3.152128e+003,-8.661041e-002
3.153092e+003,-3.316803e-002
3.154056e+003,-3.577789e-001
3.155020e+003,-1.425040e+000
3.155985e+003,-2.848198e+000
3.156949e+003,-2.390968e+000
3.157913e+003,-7.924606e-001
3.158877e+003,-8.239899e-001
3.159842e+003,-2.045296e+000
3.160806e+003,-2.095158e+000
3.161770e+003,-1.342621e+000
3.162734e+003,-7.917007e-001
3.163698e+003,-3.398514e-001
3.164663e+003,5.937637e-001
3.165627e+003,1.059032e+000
3.166591e+003,-9.116684e-001
3.167555e+003,-2.140172e+000
3.168520e+003,-3.912201e-001
3.169484e+003,5.012177e-001
3.170448e+003,-1.254666e+000
3.171412e+003,-2.311553e+000
3.172376e+003,-7.102875e-001
3.173341e+003,8.252929e-001
3.174305e+003,8.608932e-001
3.175269e+003,7.595627e-001
3.176233e+003,6.835572e-001
3.177198e+003,4.970474e-001
3.178162e+003,2.051819e-001
3.179126e+003,4.082489e-002
3.180090e+003,-1.407303e-001
3.181055e+003,-1.235519e+000
3.182019e+003,-2.523389e+000
3.182983e+003,-1.474963e+000
3.183947e+003,3.580750e-001
3.184912e+003,-1.155547e+000
3.185876e+003,-3.858481e+000
3.186840e+003,-2.266997e+000
3.187804e+003,1.845703e-002
3.188769e+003,-1.263641e+000
3.189733e+003,-2.675194e+000
3.190697e+003,-2.277759e+000
3.191661e+003,-1.558432e+000
3.192625e+003,-1.134868e+000
3.193590e+003,-7.154892e-001
3.194554e+003,-1.738480e-001
3.195518e+003,-3.004929e-001
3.196482e+003,-1.857304e+000
3.197447e+003,-2.356168e+000
3.198411e+003,-1.529231e+000
3.199375e+003,-2.493210e-001
3.200339e+003,1.236230e+000
3.201303e+003,1.994807e+000
3.202268e+003,1.995052e+000
3.203232e+003,1.204788e+000
3.204196e+003,-8.280945e-002
3.205160e+003,-1.588174e+000
3.206125e+003,-2.610683e+000
3.207089e+003,-1.704529e+000
3.208053e+003,-5.331726e-002
3.209017e+003,3.833725e-001
3.209982e+003,4.317871e-001
3.210946e+003,7.613266e-001
3.211910e+003,8.918686e-001
3.212874e+003,4.856521e-001
3.213839e+003,9.955155e-001
3.214803e+003,2.703348e+000
3.215767e+003,2.802951e+000
3.216731e+003,3.870026e-001
3.217696e+003,-1.479628e+000
3.218660e+003,-1.712195e+000
3.219624e+003,-1.897105e+000
3.220588e+003,-2.060393e+000
3.221552e+003,-1.002049e+000
3.222517e+003,5.670761e-001
3.223481e+003,2.311737e-001
3.224445e+003,-9.943817e-001
3.225409e+003,-1.168997e+000
3.226374e+003,-7.808228e-001
3.227338e+003,-5.573929e-001
3.228302e+003,-4.952881e-001
3.229266e+003,-6.325439e-001
3.230230e+003,-7.025635e-001
3.231195e+003,-2.619095e-001
3.232159e+003,1.450684e-001
3.233123e+003,3.625259e-001
3.234087e+003,1.405609e-001
3.235052e+003,-5.679947e-001
3.236016e+003,-8.013687e-001
3.236980e+003,-4.635681e-001
3.237944e+003,-3.032730e-001
3.238909e+003,-4.691910e-001
3.239873e+003,-5.765503e-001
3.240837e+003,-5.642441e-001
3.241801e+003,2.114868e-003
3.242766e+003,8.416244e-001
3.243730e+003,7.788239e-001
3.244694e+003,1.985168e-001
3.245658e+003,-6.925705e-001
3.246623e+003,-1.326718e+000
3.247587e+003,-9.542359e-001
3.248551e+003,-1.378696e+000
3.249515e+003,-3.813197e+000
3.250479e+003,-5.099521e+000
3.251444e+003,-2.628757e+000
3.252408e+003,-4.024689e-001
3.253372e+003,-7.574493e-001
3.254336e+003,-1.465753e+000
3.255301e+003,-2.431915e+000
3.256265e+003,-2.771657e+000
3.257229e+003,-2.528076e+000
3.258193e+003,-2.159758e+000
3.259157e+003,-1.808252e+000
3.260122e+003,-1.495139e+000
3.261086e+003,-1.308304e+000
3.262050e+003,-1.489967e+000
3.263014e+003,-1.728049e+000
3.263979e+003,-1.058022e+000
3.264943e+003,-3.454712e-001
3.265907e+003,-9.399002e-001
3.266871e+003,-1.422224e+000
3.267836e+003,-7.790878e-001
3.268800e+003,-7.335922e-001
3.269764e+003,-1.743048e+000
3.270728e+003,-2.622836e+000
3.271693e+003,-2.886928e+000
3.272657e+003,-2.486105e+000
3.273621e+003,-1.369337e+000
3.274585e+003,-5.768936e-001
3.275550e+003,-1.448273e-001
3.276514e+003,-3.683853e-001
3.277478e+003,-8.859360e-001
3.278442e+003,-5.529053e-001
3.279406e+003,8.232880e-002
3.280371e+003,-8.215942e-002
3.281335e+003,-7.511292e-002
3.282299e+003,1.110986e+000
3.283263e+003,2.015573e+000
3.284228e+003,1.188799e+000
3.285192e+003,3.340546e-001
3.286156e+003,1.485130e+000
3.287120e+003,1.535468e+000
3.288084e+003,-1.074142e+000
3.289049e+003,-7.801300e-001
3.290013e+003,2.340097e+000
3.290977e+003,2.339040e+000
3.291941e+003,-3.592194e-001
3.292906e+003,-1.344402e+000
3.293870e+003,-4.369125e-001
3.294834e+003,2.893662e-001
3.295798e+003,6.441162e-001
3.296763e+003,-4.510498e-003
3.297727e+003,-1.078006e+000
3.298691e+003,-1.920151e+000
3.299655e+003,-2.253584e+000
3.300620e+003,-1.692746e+000
3.301584e+003,-7.298721e-001
3.302548e+003,5.432800e-001
3.303512e+003,9.700974e-001
3.304477e+003,3.639649e-001
3.305441e+003,8.753601e-001
3.306405e+003,3.301177e+000
3.307369e+003,4.662802e+000
3.308333e+003,4.755759e+000
3.309298e+003,4.716422e+000
3.310262e+003,4.589154e+000
3.311226e+003,4.766675e+000
3.312190e+003,4.655832e+000
3.313155e+003,2.965114e+000
3.314119e+003,1.023692e+000
3.315083e+003,-2.440109e-001
3.316047e+003,-2.231766e-001
3.317011e+003,1.732204e+000
3.317976e+003,3.159110e+000
3.318940e+003,1.211192e+000
3.319904e+003,1.026794e+000
3.320868e+003,4.120336e+000
3.321833e+003,4.599646e+000
3.322797e+003,2.605916e+000
3.323761e+003,1.271275e+000
3.324725e+003,1.004053e+000
3.325690e+003,1.868512e+000
3.326654e+003,3.074420e+000
3.327618e+003,3.086931e+000
3.328582e+003,2.639014e+000
3.329547e+003,3.435915e+000
3.330511e+003,4.061502e+000
3.331475e+003,1.918744e+000
3.332439e+003,7.262955e-001
3.333404e+003,2.510124e+000
3.334368e+003,3.293944e+000
3.335332e+003,2.356960e+000
3.336296e+003,2.032242e+000
3.337260e+003,2.670297e+000
3.338225e+003,2.144643e+000
3.339189e+003,1.602402e-001
3.340153e+003,-1.103989e+000
3.341117e+003,-1.597205e+000
3.342082e+003,-6.302551e-001
3.343046e+003,8.418442e-001
3.344010e+003,1.775314e+000
3.344974e+003,1.797313e+000
3.345938e+003,3.214294e-001
3.346903e+003,-9.018372e-001
3.347867e+003,-1.054707e+000
3.348831e+003,-3.072479e-001
3.349795e+003,1.283182e+000
3.350760e+003,1.590997e+000
3.351724e+003,-8.826523e-001
3.352688e+003,-1.713535e+000
3.353652e+003,-1.032341e+000
3.354617e+003,2.755188e-001
3.355581e+003,1.383913e+000
3.356545e+003,-3.053589e-002
3.357509e+003,-1.753958e+000
3.358474e+003,-5.546616e-001
3.359438e+003,8.638840e-001
3.360402e+003,-1.722290e-001
3.361366e+003,-9.256317e-001
3.362331e+003,2.079933e+000
3.363295e+003,3.781998e+000
3.364259e+003,1.512761e+000
3.365223e+003,3.544495e-001
3.366188e+003,5.418549e-001
3.367152e+003,1.096634e-001
3.368116e+003,-9.023849e-001
3.369080e+003,-1.547501e+000
3.370044e+003,-1.696787e+000
3.371009e+003,-1.536743e+000
3.371973e+003,-1.127246e+000
3.372937e+003,-5.202072e-001
3.373901e+003,7.436065e-002
3.374865e+003,3.879898e-001
3.375830e+003,6.120621e-001
3.376794e+003,9.189911e-001
3.377758e+003,7.628113e-001
3.378722e+003,9.265289e-002
3.379687e+003,-6.228516e-001
3.380651e+003,-1.062782e+000
3.381615e+003,-2.071671e-001
3.382579e+003,1.622906e+000
3.383544e+003,1.730766e+000
3.384508e+003,6.848343e-001
3.385472e+003,3.106384e-001
3.386436e+003,3.112076e-001
3.387401e+003,3.740036e-001
3.388365e+003,4.935089e-001
3.389329e+003,5.416687e-001
3.390293e+003,1.730443e+000
3.391258e+003,4.306566e+000
3.392222e+003,5.286661e+000
3.393186e+003,3.474577e+000
3.394150e+003,2.413266e+000
3.395115e+003,2.498292e+000
3.396079e+003,3.362721e+000
3.397043e+003,4.650172e+000
3.398007e+003,5.390851e+000
3.398971e+003,5.713181e+000
3.399936e+003,5.366498e+000
3.400900e+003,5.479373e+000
3.401864e+003,6.813672e+000
3.402828e+003,7.809412e+000
3.403792e+003,7.397781e+000
3.404757e+003,7.003842e+000
3.405721e+003,7.237271e+000
3.406685e+003,8.235458e+000
3.407649e+003,9.939148e+000
3.408614e+003,1.063559e+001
3.409578e+003,1.059007e+001
3.410542e+003,1.030688e+001
3.411506e+003,1.031143e+001
3.412471e+003,1.098401e+001
3.413435e+003,1.289016e+001
3.414399e+003,1.684894e+001
3.415363e+003,2.021567e+001
3.416328e+003,1.999328e+001
3.417292e+003,1.936681e+001
3.418256e+003,1.928994e+001
3.419220e+003,1.948523e+001
3.420185e+003,1.983306e+001
3.421149e+003,1.914770e+001
3.422113e+003,1.794887e+001
3.423077e+003,1.820217e+001
3.424042e+003,1.905812e+001
3.425006e+003,1.872213e+001
3.425970e+003,1.785352e+001
3.426934e+003,1.746323e+001
