7.140112e+001,1.739875e+002
7.236536e+001,1.666414e+002
7.332959e+001,1.711037e+002
7.429382e+001,1.789666e+002
7.525806e+001,1.920365e+002
7.622229e+001,1.961982e+002
7.718652e+001,1.804305e+002
7.815076e+001,1.330397e+002
7.911499e+001,1.027024e+002
8.007922e+001,8.727970e+001
8.104346e+001,8.394932e+001
8.200769e+001,9.102183e+001
8.297192e+001,1.133068e+002
8.393616e+001,1.405028e+002
8.490039e+001,1.813417e+002
8.586462e+001,2.247915e+002
8.682886e+001,2.522679e+002
8.779310e+001,2.253573e+002
8.875733e+001,1.813009e+002
8.972157e+001,1.394621e+002
9.068580e+001,1.071712e+002
9.165003e+001,8.402120e+001
9.261427e+001,7.365662e+001
9.357850e+001,7.189311e+001
9.454273e+001,7.200905e+001
9.550697e+001,6.944436e+001
9.647120e+001,6.335664e+001
9.743543e+001,5.883212e+001
9.839967e+001,5.607658e+001
9.936390e+001,5.414739e+001
1.003281e+002,5.187469e+001
1.012924e+002,4.770179e+001
1.022566e+002,4.504937e+001
1.032208e+002,4.481285e+001
1.041851e+002,4.667676e+001
1.051493e+002,4.971938e+001
1.061135e+002,5.698326e+001
1.070778e+002,6.205006e+001
1.080420e+002,6.083435e+001
1.090062e+002,5.266647e+001
1.099705e+002,4.070913e+001
1.109347e+002,3.034687e+001
1.118989e+002,2.228051e+001
1.128632e+002,2.060588e+001
1.138274e+002,2.847006e+001
1.147916e+002,4.811735e+001
1.157559e+002,5.761979e+001
1.167201e+002,5.428833e+001
1.176843e+002,4.624618e+001
1.186486e+002,4.343070e+001
1.196128e+002,5.073242e+001
1.205770e+002,5.710012e+001
1.215413e+002,6.473692e+001
1.225055e+002,7.104100e+001
1.234697e+002,7.077232e+001
1.244340e+002,5.176492e+001
1.253982e+002,3.161821e+001
1.263624e+002,1.139150e+001
1.273267e+002,-6.030188e+000
1.282909e+002,-1.485367e+001
1.292551e+002,1.057487e+001
1.302194e+002,4.643768e+001
1.311836e+002,7.141647e+001
1.321478e+002,7.208176e+001
1.331121e+002,4.837236e+001
1.340763e+002,2.911637e+001
1.350405e+002,1.255195e+001
1.360048e+002,2.369934e+000
1.369690e+002,3.974988e+000
1.379332e+002,3.127405e+001
1.388975e+002,4.730088e+001
1.398617e+002,4.823998e+001
1.408259e+002,3.960960e+001
1.417902e+002,3.000898e+001
1.427544e+002,2.038219e+001
1.437186e+002,1.310465e+001
1.446829e+002,9.378540e+000
1.456471e+002,8.702795e+000
1.466113e+002,9.336950e+000
1.475756e+002,7.421631e+000
1.485398e+002,6.652966e+000
1.495040e+002,1.191509e+001
1.504683e+002,2.422687e+001
1.514325e+002,4.057548e+001
1.523967e+002,4.182855e+001
1.533610e+002,3.156406e+001
1.543252e+002,2.012572e+001
1.552894e+002,1.506652e+001
1.562537e+002,1.936897e+001
1.572179e+002,2.096787e+001
1.581821e+002,1.659158e+001
1.591464e+002,1.208096e+001
1.601106e+002,1.431083e+001
1.610748e+002,3.222854e+001
1.620391e+002,4.373490e+001
1.630033e+002,4.127132e+001
1.639676e+002,3.034862e+001
1.649318e+002,1.979475e+001
1.658960e+002,1.952230e+001
1.668603e+002,2.091648e+001
1.678245e+002,1.663987e+001
1.687887e+002,7.387219e+000
1.697530e+002,-2.273438e+000
1.707172e+002,2.924438e+000
1.716814e+002,1.715479e+001
1.726457e+002,2.628905e+001
1.736099e+002,2.475525e+001
1.745741e+002,1.206002e+001
1.755384e+002,2.673572e+000
1.765026e+002,-4.769055e+000
1.774668e+002,-9.056348e+000
1.784311e+002,-8.250097e+000
1.793953e+002,2.662964e-001
1.803595e+002,6.065161e+000
1.813238e+002,7.006323e+000
1.822880e+002,5.623535e+000
1.832522e+002,3.861145e+000
1.842165e+002,3.055810e+000
1.851807e+002,1.513733e+000
1.861449e+002,-2.862573e+000
1.871092e+002,-8.487635e+000
1.880734e+002,-1.359551e+001
1.890376e+002,-1.606177e+001
1.900019e+002,-1.527090e+001
1.909661e+002,-9.989807e+000
1.919303e+002,-3.253296e-001
1.928946e+002,1.120237e+001
1.938588e+002,1.597611e+001
1.948230e+002,9.346350e+000
1.957873e+002,6.241504e+000
1.967515e+002,1.078666e+001
1.977157e+002,2.274607e+001
1.986800e+002,3.208285e+001
1.996442e+002,3.521128e+001
2.006084e+002,3.788853e+001
2.015727e+002,4.345336e+001
2.025369e+002,5.278319e+001
2.035011e+002,5.796114e+001
2.044654e+002,5.094071e+001
2.054296e+002,3.982051e+001
2.063938e+002,2.840577e+001
2.073581e+002,1.930331e+001
2.083223e+002,1.270903e+001
2.092865e+002,6.622839e+000
2.102508e+002,2.048962e+000
2.112150e+002,2.903650e+000
2.121792e+002,1.345360e+001
2.131435e+002,3.723225e+001
2.141077e+002,5.230326e+001
2.150719e+002,5.659832e+001
2.160362e+002,5.478169e+001
2.170004e+002,5.356582e+001
2.179646e+002,5.407674e+001
2.189289e+002,5.333235e+001
2.198931e+002,4.811682e+001
2.208573e+002,4.161140e+001
2.218216e+002,3.972117e+001
2.227858e+002,4.929989e+001
2.237500e+002,6.221309e+001
2.247143e+002,8.091779e+001
2.256785e+002,1.013354e+002
2.266427e+002,1.152138e+002
2.276070e+002,1.006265e+002
2.285712e+002,7.168227e+001
2.295354e+002,4.531758e+001
2.304997e+002,2.661126e+001
2.314639e+002,1.492520e+001
2.324281e+002,7.260364e+000
2.333924e+002,3.595679e+000
2.343566e+002,2.160400e+000
2.353208e+002,3.242981e+000
2.362851e+002,7.508985e+000
2.372493e+002,9.788318e+000
2.382135e+002,8.638074e+000
2.391778e+002,6.966858e+000
2.401420e+002,6.520398e+000
2.411062e+002,8.191968e+000
2.420705e+002,8.597742e+000
2.430347e+002,4.622559e+000
2.439989e+002,-5.954956e-001
2.449632e+002,-4.754834e+000
2.459274e+002,-6.080530e+000
2.468916e+002,-5.456653e+000
2.478559e+002,-5.093421e+000
2.488201e+002,-4.952588e+000
2.497843e+002,-5.177307e+000
2.507486e+002,-5.976343e+000
2.517128e+002,-7.606665e+000
2.526770e+002,-6.216736e+000
2.536413e+002,3.092041e-002
2.546055e+002,7.630774e+000
2.555697e+002,1.087737e+001
2.565340e+002,4.541138e+000
2.574982e+002,9.686645e-001
2.584625e+002,3.465271e+000
2.594267e+002,9.050013e+000
2.603909e+002,1.236110e+001
2.613552e+002,8.209558e+000
2.623194e+002,2.981665e+000
2.632836e+002,-1.206555e+000
2.642479e+002,-3.919080e+000
2.652121e+002,-5.092114e+000
2.661763e+002,-3.559460e+000
2.671406e+002,-9.992188e-001
2.681048e+002,-3.654175e-001
2.690690e+002,-2.087878e+000
2.700333e+002,-5.178772e+000
2.709975e+002,-5.392310e+000
2.719617e+002,-1.498047e+000
2.729260e+002,1.203809e+000
2.738902e+002,9.071289e-001
2.748544e+002,-2.343579e+000
2.758187e+002,-4.418054e+000
2.767829e+002,-4.335462e+000
2.777471e+002,-4.078882e+000
2.787114e+002,-4.242163e+000
2.796756e+002,-4.857422e+000
2.806398e+002,-5.000574e+000
2.816041e+002,-4.542883e+000
2.825683e+002,-3.232410e+000
2.835325e+002,-1.815796e-001
2.844968e+002,4.726416e+000
2.854610e+002,9.993909e+000
2.864252e+002,1.238307e+001
2.873895e+002,1.265187e+001
2.883537e+002,1.102469e+001
2.893179e+002,7.630725e+000
2.902822e+002,2.367737e+000
2.912464e+002,-1.272803e+000
2.922106e+002,-2.977502e+000
2.931749e+002,-4.354224e+000
2.941391e+002,-6.795007e+000
2.951033e+002,-1.128933e+001
2.960676e+002,-1.375060e+001
2.970318e+002,-1.385116e+001
2.979960e+002,-1.229485e+001
2.989603e+002,-9.221558e+000
2.999245e+002,-4.401929e+000
3.008887e+002,5.463501e-001
3.018530e+002,5.509155e+000
3.028172e+002,9.611255e+000
3.037814e+002,1.163826e+001
3.047457e+002,1.049713e+001
3.057099e+002,7.352112e+000
3.066741e+002,6.375671e+000
3.076384e+002,7.010657e+000
3.086026e+002,7.450269e+000
3.095668e+002,5.618054e+000
3.105311e+002,4.171631e-001
3.114953e+002,-2.733899e+000
3.124595e+002,-3.228333e+000
3.134238e+002,-2.473254e+000
3.143880e+002,-2.121558e+000
3.153522e+002,-2.818604e+000
3.163165e+002,-2.984107e+000
3.172807e+002,-1.705432e+000
3.182449e+002,1.258667e-001
3.192092e+002,1.255200e+000
3.201734e+002,1.820679e-001
3.211376e+002,-5.159424e-001
3.221019e+002,1.530078e+000
3.230661e+002,5.327966e+000
3.240303e+002,9.491321e+000
3.249946e+002,1.248673e+001
3.259588e+002,1.388212e+001
3.269230e+002,1.344849e+001
3.278873e+002,1.109103e+001
3.288515e+002,8.267322e+000
3.298157e+002,7.628870e+000
3.307800e+002,1.205916e+001
3.317442e+002,1.385442e+001
3.327084e+002,1.072270e+001
3.336727e+002,5.465088e+000
3.346369e+002,3.157263e+000
3.356011e+002,7.928186e+000
3.365654e+002,1.161901e+001
3.375296e+002,1.161477e+001
3.384938e+002,9.440967e+000
3.394581e+002,7.680505e+000
3.404223e+002,8.795080e+000
3.413865e+002,1.072721e+001
3.423508e+002,1.123430e+001
3.433150e+002,1.076946e+001
3.442792e+002,1.055471e+001
3.452435e+002,1.256888e+001
3.462077e+002,1.693617e+001
3.471719e+002,2.036564e+001
3.481362e+002,2.200947e+001
3.491004e+002,2.362104e+001
3.500646e+002,2.894944e+001
3.510289e+002,3.362207e+001
3.519931e+002,5.056396e+001
3.529573e+002,8.432123e+001
3.539216e+002,1.294195e+002
3.548858e+002,1.784601e+002
3.558500e+002,2.464718e+002
3.568143e+002,2.906601e+002
3.577785e+002,2.920047e+002
3.587427e+002,2.609396e+002
3.597070e+002,2.145805e+002
3.606712e+002,1.631342e+002
3.616354e+002,1.148282e+002
3.625997e+002,7.883616e+001
3.635639e+002,5.499989e+001
3.645281e+002,4.051062e+001
3.654924e+002,3.051682e+001
3.664566e+002,2.629858e+001
3.674208e+002,2.288124e+001
3.683851e+002,2.095153e+001
3.693493e+002,1.945564e+001
3.703135e+002,1.601101e+001
3.712778e+002,7.200086e+000
3.722420e+002,1.614014e+000
3.732062e+002,1.053809e+000
3.741705e+002,3.660779e+000
3.751347e+002,6.673438e+000
3.760989e+002,9.118213e+000
3.770632e+002,1.103743e+001
3.780274e+002,1.216936e+001
3.789916e+002,1.277651e+001
3.799559e+002,1.345951e+001
3.809201e+002,1.521783e+001
3.818844e+002,1.698002e+001
3.828486e+002,1.573186e+001
3.838128e+002,1.176006e+001
3.847771e+002,7.274854e+000
3.857413e+002,5.623437e+000
3.867055e+002,8.627710e+000
3.876698e+002,9.829541e+000
3.886340e+002,6.325708e+000
3.895982e+002,2.256030e+000
3.905625e+002,4.046655e+000
3.915267e+002,1.801238e+001
3.924909e+002,2.739780e+001
3.934552e+002,2.812934e+001
3.944194e+002,2.407068e+001
3.953836e+002,1.880950e+001
3.963479e+002,1.346770e+001
3.973121e+002,1.019485e+001
3.982763e+002,1.162720e+001
3.992406e+002,1.550775e+001
4.002048e+002,1.864207e+001
4.011690e+002,1.791412e+001
4.021333e+002,1.394336e+001
4.030975e+002,1.263864e+001
4.040617e+002,1.400510e+001
4.050260e+002,1.602599e+001
4.059902e+002,1.650558e+001
4.069544e+002,1.427972e+001
4.079187e+002,1.385532e+001
4.088829e+002,1.657356e+001
4.098471e+002,1.953164e+001
4.108114e+002,2.036154e+001
4.117756e+002,1.806231e+001
4.127398e+002,1.597253e+001
4.137041e+002,1.527427e+001
4.146683e+002,1.537318e+001
4.156325e+002,1.628440e+001
4.165968e+002,1.796663e+001
4.175610e+002,1.923121e+001
4.185252e+002,1.719004e+001
4.194895e+002,1.381868e+001
4.204537e+002,1.146067e+001
4.214179e+002,1.159935e+001
4.223822e+002,1.418422e+001
4.233464e+002,1.882446e+001
4.243106e+002,2.651822e+001
4.252749e+002,3.210307e+001
4.262391e+002,3.183044e+001
4.272033e+002,2.495831e+001
4.281676e+002,2.166102e+001
4.291318e+002,2.363308e+001
4.300960e+002,2.776932e+001
4.310603e+002,3.281847e+001
4.320245e+002,3.865126e+001
4.329887e+002,4.675219e+001
4.339530e+002,5.643044e+001
4.349172e+002,7.066986e+001
4.358814e+002,9.309867e+001
4.368457e+002,1.234271e+002
4.378099e+002,1.589048e+002
4.387741e+002,2.003792e+002
4.397384e+002,2.412259e+002
4.407026e+002,2.587248e+002
4.416668e+002,2.466286e+002
4.426311e+002,2.118905e+002
4.435953e+002,1.774677e+002
4.445595e+002,1.389866e+002
4.455238e+002,1.073571e+002
4.464880e+002,8.432538e+001
4.474522e+002,6.832182e+001
4.484165e+002,5.652771e+001
4.493807e+002,5.087832e+001
4.503449e+002,4.681762e+001
4.513092e+002,4.358614e+001
4.522734e+002,4.064152e+001
4.532376e+002,3.748298e+001
4.542019e+002,3.372507e+001
4.551661e+002,2.960989e+001
4.561303e+002,2.503556e+001
4.570946e+002,2.045985e+001
4.580588e+002,1.688550e+001
4.590230e+002,1.543616e+001
4.599873e+002,1.634796e+001
4.609515e+002,1.639719e+001
4.619157e+002,1.509098e+001
4.628800e+002,1.386139e+001
4.638442e+002,1.410968e+001
4.648084e+002,1.644163e+001
4.657727e+002,1.849198e+001
4.667369e+002,2.049080e+001
4.677011e+002,2.210563e+001
4.686654e+002,2.323129e+001
4.696296e+002,2.382396e+001
4.705938e+002,2.335789e+001
4.715581e+002,2.065461e+001
4.725223e+002,1.733999e+001
4.734865e+002,1.427825e+001
4.744508e+002,1.193094e+001
4.754150e+002,1.027113e+001
4.763792e+002,9.239123e+000
4.773435e+002,8.806354e+000
4.783077e+002,9.563299e+000
4.792719e+002,1.199696e+001
4.802362e+002,1.552080e+001
4.812004e+002,1.665594e+001
4.821646e+002,1.269106e+001
4.831289e+002,9.448675e+000
4.840931e+002,7.121759e+000
4.850573e+002,5.787408e+000
4.860216e+002,5.833368e+000
4.869858e+002,9.427679e+000
4.879500e+002,1.216020e+001
4.889143e+002,1.222789e+001
4.898785e+002,1.055079e+001
4.908427e+002,8.620844e+000
4.918070e+002,7.542291e+000
4.927712e+002,7.032691e+000
4.937354e+002,6.624847e+000
4.946997e+002,6.279138e+000
4.956639e+002,5.853394e+000
4.966281e+002,5.191663e+000
4.975924e+002,4.270001e+000
4.985566e+002,3.514215e+000
4.995208e+002,2.457849e+000
5.004851e+002,2.072473e+000
5.014493e+002,3.685895e+000
5.024135e+002,8.200012e+000
5.033778e+002,1.028459e+001
5.043420e+002,7.261847e+000
5.053063e+002,4.262433e+000
5.062705e+002,4.335608e+000
5.072347e+002,7.710321e+000
5.081990e+002,1.039777e+001
5.091632e+002,6.016095e+000
5.101274e+002,9.073792e-001
5.110917e+002,-4.600769e-001
5.120559e+002,2.366870e+000
5.130201e+002,6.753882e+000
5.139844e+002,7.462085e+000
5.149486e+002,4.633924e+000
5.159128e+002,2.056500e+000
5.168771e+002,8.669434e-002
5.178413e+002,-1.239746e+000
5.188055e+002,-1.843750e+000
5.197698e+002,-1.313855e+000
5.207340e+002,-5.551270e-001
5.216982e+002,7.762573e-001
5.226625e+002,2.102216e+000
5.236267e+002,2.666046e+000
5.245909e+002,1.944440e+000
5.255552e+002,1.273663e+000
5.265194e+002,1.590948e+000
5.274836e+002,2.164832e+000
5.284479e+002,2.341931e+000
5.294121e+002,1.784186e+000
5.303763e+002,8.820190e-001
5.313406e+002,2.495117e-002
5.323048e+002,-6.239563e-001
5.332690e+002,-2.312866e-001
5.342333e+002,1.691949e+000
5.351975e+002,4.839593e+000
5.361617e+002,6.647851e+000
5.371260e+002,6.292657e+000
5.380902e+002,6.012292e+000
5.390544e+002,6.295465e+000
5.400187e+002,6.867279e+000
5.409829e+002,6.933740e+000
5.419471e+002,5.973468e+000
5.429114e+002,5.053216e+000
5.438756e+002,4.552759e+000
5.448398e+002,4.216888e+000
5.458041e+002,3.613782e+000
5.467683e+002,2.379102e+000
5.477325e+002,9.656372e-001
5.486968e+002,-4.608764e-002
5.496610e+002,-7.463623e-001
5.506252e+002,-1.287268e+000
5.515895e+002,-1.794513e+000
5.525537e+002,-2.271216e+000
5.535179e+002,-2.541309e+000
5.544822e+002,-2.715076e+000
5.554464e+002,-2.458551e+000
5.564106e+002,-1.226147e+000
5.573749e+002,9.634216e-001
5.583391e+002,1.962024e+000
5.593033e+002,4.372192e-001
5.602676e+002,-1.082465e+000
5.612318e+002,-1.994788e+000
5.621960e+002,-2.335168e+000
5.631603e+002,-2.517792e+000
5.641245e+002,-2.918396e+000
5.650887e+002,-3.091394e+000
5.660530e+002,-2.499689e+000
5.670172e+002,-1.413196e+000
5.679814e+002,-4.867187e-001
5.689457e+002,-4.583801e-001
5.699099e+002,-1.208679e+000
5.708741e+002,-6.839417e-001
5.718384e+002,1.403760e+000
5.728026e+002,3.263562e+000
5.737668e+002,2.920935e+000
5.747311e+002,-5.405090e-001
5.756953e+002,-1.631976e+000
5.766595e+002,2.743256e+000
5.776238e+002,5.954700e+000
5.785880e+002,4.213269e+000
5.795522e+002,-1.944354e+000
5.805165e+002,-6.891461e+000
5.814807e+002,-5.505750e+000
5.824449e+002,-2.773352e+000
5.834092e+002,-8.331543e-001
5.843734e+002,1.033325e-002
5.853376e+002,7.976075e-002
5.863019e+002,-3.365601e-001
5.872661e+002,-1.112006e+000
5.882303e+002,-1.511938e+000
5.891946e+002,-1.519446e+000
5.901588e+002,-1.360779e+000
5.911230e+002,-1.330536e+000
5.920873e+002,-1.635339e+000
5.930515e+002,-1.254102e+000
5.940157e+002,6.018982e-001
5.949800e+002,2.184473e+000
5.959442e+002,2.436493e+000
5.969084e+002,1.335596e+000
5.978727e+002,2.698364e-001
5.988369e+002,2.011414e-001
5.998011e+002,1.844971e-001
6.007654e+002,-1.888367e-001
6.017296e+002,-8.935486e-001
6.026938e+002,-1.727277e+000
6.036581e+002,-2.607520e+000
6.046223e+002,-3.231049e+000
6.055865e+002,-2.588153e+000
6.065508e+002,-7.821411e-001
6.075150e+002,7.286499e-001
6.084792e+002,2.400146e-001
6.094435e+002,-2.931799e+000
6.104077e+002,-4.469263e+000
6.113719e+002,-3.867767e+000
6.123362e+002,-2.820575e+000
6.133004e+002,-2.018292e+000
6.142646e+002,-1.508221e+000
6.152289e+002,-1.249664e+000
6.161931e+002,-1.166687e+000
6.171573e+002,-1.462970e+000
6.181216e+002,-2.532379e+000
6.190858e+002,-4.029273e+000
6.200500e+002,-5.230084e+000
6.210143e+002,-5.492780e+000
6.219785e+002,-4.975189e+000
6.229427e+002,-4.053302e+000
6.239070e+002,-2.851654e+000
6.248712e+002,-1.851624e+000
6.258354e+002,-1.537347e+000
6.267997e+002,-2.006799e+000
6.277639e+002,-1.338196e+000
6.287281e+002,1.863886e+000
6.296924e+002,4.064477e+000
6.306566e+002,2.857147e+000
6.316208e+002,-1.353131e+000
6.325851e+002,-3.979785e+000
6.335493e+002,-1.857739e+000
6.345135e+002,5.119568e-001
6.354778e+002,2.093628e+000
6.364420e+002,2.887079e+000
6.374063e+002,3.317743e+000
6.383705e+002,3.716254e+000
6.393347e+002,3.841736e+000
6.402990e+002,3.224438e+000
6.412632e+002,2.176758e+000
6.422274e+002,1.474017e+000
6.431917e+002,1.709259e+000
6.441559e+002,2.776660e+000
6.451201e+002,2.379431e+000
6.460844e+002,-6.569641e-001
6.470486e+002,-2.702454e+000
6.480128e+002,-1.709436e+000
6.489771e+002,1.414258e+000
6.499413e+002,2.619470e+000
6.509055e+002,-1.198865e+000
6.518698e+002,-3.911591e+000
6.528340e+002,-3.014587e+000
6.537982e+002,-4.555237e-001
6.547625e+002,1.021997e+000
6.557267e+002,-3.138672e-001
6.566909e+002,-2.410583e+000
6.576552e+002,-2.128033e+000
6.586194e+002,-5.163208e-001
6.595836e+002,1.151581e+000
6.605479e+002,2.241138e+000
6.615121e+002,2.783576e+000
6.624763e+002,2.699561e+000
6.634406e+002,1.563379e+000
6.644048e+002,8.552063e-001
6.653690e+002,1.074615e+000
6.663333e+002,1.641003e+000
6.672975e+002,1.356573e+000
6.682617e+002,-7.161621e-001
6.692260e+002,-1.515576e+000
6.701902e+002,4.035095e-001
6.711544e+002,3.073944e+000
6.721187e+002,5.218244e+000
6.730829e+002,6.288641e+000
6.740471e+002,6.154822e+000
6.750114e+002,3.027917e+000
6.759756e+002,-6.648194e-001
6.769398e+002,-2.139709e+000
6.779041e+002,-9.250427e-001
6.788683e+002,1.664117e+000
6.798325e+002,3.281299e+000
6.807968e+002,3.651904e+000
6.817610e+002,3.694891e+000
6.827252e+002,3.242053e+000
6.836895e+002,2.627338e+000
6.846537e+002,2.089954e+000
6.856179e+002,1.603394e+000
6.865822e+002,1.228394e+000
6.875464e+002,1.189984e+000
6.885106e+002,1.079273e+000
6.894749e+002,5.146179e-001
6.904391e+002,-3.350586e-001
6.914034e+002,-8.033447e-001
6.923676e+002,6.035156e-002
6.933318e+002,1.233246e+000
6.942961e+002,1.048108e+000
6.952603e+002,-1.725037e-001
6.962245e+002,-1.296814e+000
6.971888e+002,-1.290753e+000
6.981530e+002,-1.554504e-001
6.991172e+002,4.746765e-001
7.000815e+002,4.374207e-001
7.010457e+002,3.172669e-001
7.020099e+002,1.627991e-001
7.029742e+002,1.042114e-001
7.039384e+002,6.725403e-001
7.049026e+002,2.729450e+000
7.058669e+002,4.314416e+000
7.068311e+002,4.884851e+000
7.077953e+002,4.694098e+000
7.087596e+002,3.872882e+000
7.097238e+002,2.458637e+000
7.106880e+002,1.212793e+000
7.116523e+002,1.518005e+000
7.126165e+002,2.604626e+000
7.135807e+002,3.649103e+000
7.145450e+002,4.333941e+000
7.155092e+002,4.565863e+000
7.164734e+002,4.007617e+000
7.174377e+002,1.862299e+000
7.184019e+002,7.046387e-001
7.193661e+002,1.063965e+000
7.203304e+002,1.975232e+000
7.212946e+002,2.524554e+000
7.222589e+002,2.654669e+000
7.232231e+002,2.525818e+000
7.241873e+002,1.348853e+000
7.251516e+002,6.663513e-001
7.261158e+002,1.752264e+000
7.270800e+002,4.306451e+000
7.280443e+002,6.834558e+000
7.290085e+002,8.003314e+000
7.299727e+002,7.807288e+000
7.309370e+002,6.213946e+000
7.319012e+002,3.493628e+000
7.328654e+002,1.044556e+000
7.338297e+002,1.756287e-001
7.347939e+002,9.695495e-001
7.357581e+002,1.188403e+000
7.367224e+002,3.630798e-001
7.376866e+002,-3.388733e-001
7.386508e+002,-7.076355e-001
7.396151e+002,-7.317688e-001
7.405793e+002,-2.891785e-001
7.415435e+002,1.193927e+000
7.425078e+002,2.257983e+000
7.434720e+002,2.071399e+000
7.444362e+002,1.260315e+000
7.454005e+002,3.120605e-001
7.463647e+002,-4.844971e-001
7.473289e+002,-9.061890e-001
7.482932e+002,-1.233521e-002
7.492574e+002,1.619122e+000
7.502216e+002,2.353595e+000
7.511859e+002,1.738373e+000
7.521501e+002,3.750183e-001
7.531143e+002,-6.333435e-001
7.540786e+002,-1.157581e+000
7.550428e+002,-1.434973e+000
7.560070e+002,-1.697522e+000
7.569713e+002,-1.587158e+000
7.579355e+002,-5.645508e-001
7.588997e+002,1.256439e+000
7.598640e+002,2.529620e+000
7.608282e+002,1.785620e+000
7.617924e+002,1.072119e+000
7.627567e+002,1.391144e+000
7.637209e+002,2.584991e+000
7.646851e+002,4.094525e+000
7.656494e+002,5.452936e+000
7.666136e+002,6.941327e+000
7.675778e+002,1.064285e+001
7.685421e+002,1.620137e+001
7.695063e+002,1.942192e+001
7.704705e+002,1.795267e+001
7.714348e+002,1.287651e+001
7.723990e+002,8.458051e+000
7.733632e+002,4.533496e+000
7.743275e+002,1.696838e+000
7.752917e+002,3.383484e-001
7.762559e+002,-2.238770e-001
7.772202e+002,-5.083984e-001
7.781844e+002,-6.582581e-001
7.791486e+002,-6.522766e-001
7.801129e+002,-1.694336e-002
7.810771e+002,4.676026e-001
7.820413e+002,1.090454e-001
7.830056e+002,-1.003589e+000
7.839698e+002,-2.356036e+000
7.849340e+002,-3.409204e+000
7.858983e+002,-4.107928e+000
7.868625e+002,-3.917725e+000
7.878267e+002,-2.707025e+000
7.887910e+002,-1.401086e+000
7.897552e+002,-3.580017e-001
7.907194e+002,4.260132e-001
7.916837e+002,8.550171e-001
7.926479e+002,7.284119e-001
7.936121e+002,3.721313e-001
7.945764e+002,-3.280212e-001
7.955406e+002,-1.146948e+000
7.965048e+002,-1.770666e+000
7.974691e+002,-2.038739e+000
7.984333e+002,-2.265668e+000
7.993975e+002,-3.422815e+000
8.003618e+002,-4.657379e+000
8.013260e+002,-4.783691e+000
8.022902e+002,-3.659735e+000
8.032545e+002,-2.052252e+000
8.042187e+002,-1.083899e+000
8.051829e+002,-8.419983e-001
8.061472e+002,-8.087341e-001
8.071114e+002,-1.312555e+000
8.080756e+002,-1.682446e+000
8.090399e+002,-1.371497e+000
8.100041e+002,-4.981872e-001
8.109683e+002,-2.598877e-002
8.119326e+002,-6.009277e-001
8.128968e+002,-1.180273e+000
8.138610e+002,-1.507086e+000
8.148253e+002,-1.570276e+000
8.157895e+002,-1.276062e+000
8.167537e+002,-5.993347e-001
8.177180e+002,1.390137e-001
8.186822e+002,9.573364e-002
8.196464e+002,-2.988220e-001
8.206107e+002,5.202026e-002
8.215749e+002,1.434613e+000
8.225391e+002,3.119562e+000
8.235034e+002,3.938812e+000
8.244676e+002,3.567090e+000
8.254318e+002,3.224969e+000
8.263961e+002,2.936334e+000
8.273603e+002,2.760181e+000
8.283245e+002,2.861737e+000
8.292888e+002,3.086224e+000
8.302530e+002,2.904547e+000
8.312172e+002,1.835193e+000
8.321815e+002,6.727844e-001
8.331457e+002,-1.777527e-001
8.341099e+002,-6.639954e-001
8.350742e+002,-5.993775e-001
8.360384e+002,3.172607e-002
8.370026e+002,8.094605e-001
8.379669e+002,6.465027e-001
8.389311e+002,-5.255859e-001
8.398953e+002,-1.069684e+000
8.408596e+002,-4.427795e-001
8.418238e+002,3.463196e-001
8.427880e+002,-6.109009e-002
8.437523e+002,-2.016516e+000
8.447165e+002,-3.270270e+000
8.456807e+002,-3.232355e+000
8.466450e+002,-2.819342e+000
8.476092e+002,-1.971240e+000
8.485734e+002,-1.069037e+000
8.495377e+002,-8.433472e-001
8.505019e+002,-1.861865e+000
8.514661e+002,-3.081940e+000
8.524304e+002,-2.739362e+000
8.533946e+002,-1.730475e+000
8.543588e+002,-1.686200e+000
8.553231e+002,-3.179413e+000
8.562873e+002,-5.179248e+000
8.572515e+002,-5.372382e+000
8.582158e+002,-2.861029e+000
8.591800e+002,-1.222034e+000
8.601442e+002,-4.712952e-001
8.611085e+002,-5.168701e-001
8.620727e+002,-1.643188e+000
8.630369e+002,-3.694067e+000
8.640012e+002,-5.276404e+000
8.649654e+002,-5.878222e+000
8.659296e+002,-5.947699e+000
8.668939e+002,-5.538001e+000
8.678581e+002,-4.809265e+000
8.688223e+002,-3.792804e+000
8.697866e+002,-2.558704e+000
8.707508e+002,-1.434168e+000
8.717150e+002,-1.230054e+000
8.726793e+002,-1.790863e+000
8.736435e+002,-2.368384e+000
8.746077e+002,-2.807715e+000
8.755720e+002,-3.323578e+000
8.765362e+002,-4.420648e+000
8.775004e+002,-6.505115e+000
8.784647e+002,-7.294538e+000
8.794289e+002,-5.891070e+000
8.803931e+002,-4.339264e+000
8.813574e+002,-2.934680e+000
8.823216e+002,-1.916937e+000
8.832858e+002,-1.727679e+000
8.842501e+002,-2.768134e+000
8.852143e+002,-3.776990e+000
8.861785e+002,-2.950226e+000
8.871428e+002,-1.654089e+000
8.881070e+002,-1.626148e+000
8.890712e+002,-3.256714e+000
8.900355e+002,-5.627423e+000
8.909997e+002,-7.309833e+000
8.919639e+002,-8.273938e+000
8.929282e+002,-8.026941e+000
8.938924e+002,-5.537427e+000
8.948566e+002,-3.383124e+000
8.958209e+002,-3.138592e+000
8.967851e+002,-4.347479e+000
8.977493e+002,-5.026788e+000
8.987136e+002,-4.324713e+000
8.996778e+002,-3.898712e+000
9.006420e+002,-4.743408e+000
9.016063e+002,-5.847083e+000
9.025705e+002,-6.043164e+000
9.035347e+002,-5.136603e+000
9.044990e+002,-4.224762e+000
9.054632e+002,-4.965033e+000
9.064274e+002,-6.828088e+000
9.073917e+002,-7.249573e+000
9.083559e+002,-6.114007e+000
9.093201e+002,-4.676489e+000
9.102844e+002,-3.788574e+000
9.112486e+002,-3.456769e+000
9.122128e+002,-3.639771e+000
9.131771e+002,-5.369922e+000
9.141413e+002,-6.219214e+000
9.151055e+002,-4.973706e+000
9.160698e+002,-3.373981e+000
9.170340e+002,-3.520966e+000
9.179982e+002,-5.807055e+000
9.189625e+002,-7.775018e+000
9.199267e+002,-6.834064e+000
9.208909e+002,-4.977661e+000
9.218552e+002,-3.982507e+000
9.228194e+002,-3.841919e+000
9.237836e+002,-4.099353e+000
9.247479e+002,-4.408179e+000
9.257121e+002,-4.693231e+000
9.266763e+002,-4.468103e+000
9.276406e+002,-3.346381e+000
9.286048e+002,-2.621320e+000
9.295690e+002,-2.747046e+000
9.305333e+002,-3.101056e+000
9.314975e+002,-2.806464e+000
9.324617e+002,-1.689630e+000
9.334260e+002,-1.149310e+000
9.343902e+002,-2.932220e+000
9.353545e+002,-4.397400e+000
9.363187e+002,-3.974121e+000
9.372830e+002,-2.435077e+000
9.382472e+002,-1.378448e+000
9.392114e+002,-1.768433e+000
9.401757e+002,-2.824567e+000
9.411399e+002,-2.762665e+000
9.421041e+002,-1.773370e+000
9.430684e+002,-6.879578e-001
9.440326e+002,4.669983e-001
9.449968e+002,1.327978e+000
9.459611e+002,1.248334e+000
9.469253e+002,9.002686e-003
9.478895e+002,-2.982605e-001
9.488538e+002,1.747302e+000
9.498180e+002,3.217719e+000
9.507822e+002,3.158374e+000
9.517465e+002,2.036810e+000
9.527107e+002,3.409668e-001
9.536749e+002,-1.753455e+000
9.546392e+002,-3.301532e+000
9.556034e+002,-2.625757e+000
9.565676e+002,-9.366089e-001
9.575319e+002,5.145447e-001
9.584961e+002,1.532990e+000
9.594603e+002,2.103565e+000
9.604246e+002,2.113287e+000
9.613888e+002,1.529181e+000
9.623530e+002,1.586273e+000
9.633173e+002,2.892029e+000
9.642815e+002,3.964526e+000
9.652457e+002,4.408423e+000
9.662100e+002,4.748932e+000
9.671742e+002,5.258057e+000
9.681384e+002,5.892505e+000
9.691027e+002,7.731201e+000
9.700669e+002,7.748559e+000
9.710311e+002,1.281698e+001
9.719954e+002,3.181934e+001
9.729596e+002,5.978368e+001
9.739238e+002,8.721609e+001
9.748881e+002,1.073071e+002
9.758523e+002,1.176554e+002
9.768165e+002,1.075840e+002
9.777808e+002,7.173824e+001
9.787450e+002,4.398735e+001
9.797092e+002,3.005568e+001
9.806735e+002,2.340592e+001
9.816377e+002,1.875605e+001
9.826019e+002,1.614639e+001
9.835662e+002,1.454650e+001
9.845304e+002,1.487242e+001
9.854946e+002,1.489331e+001
9.864589e+002,1.309600e+001
9.874231e+002,1.091898e+001
9.883873e+002,1.023020e+001
9.893516e+002,1.163632e+001
9.903158e+002,1.405828e+001
9.912800e+002,1.632827e+001
9.922443e+002,1.839988e+001
9.932085e+002,1.961364e+001
9.941727e+002,1.981789e+001
9.951370e+002,2.079751e+001
9.961012e+002,2.327473e+001
9.970654e+002,2.731193e+001
9.980297e+002,3.360140e+001
9.989939e+002,3.404008e+001
9.999581e+002,5.250979e+001
1.000922e+003,8.691793e+001
1.001887e+003,1.418344e+002
1.002851e+003,2.486143e+002
1.003815e+003,3.883942e+002
1.004779e+003,4.777978e+002
1.005744e+003,4.489407e+002
1.006708e+003,3.532326e+002
1.007672e+003,2.591598e+002
1.008636e+003,1.715768e+002
1.009600e+003,1.064293e+002
1.010565e+003,7.087742e+001
1.011529e+003,5.582920e+001
1.012493e+003,4.429984e+001
1.013457e+003,3.707100e+001
1.014422e+003,3.171149e+001
1.015386e+003,2.872699e+001
1.016350e+003,2.650150e+001
1.017314e+003,2.474189e+001
1.018279e+003,2.311115e+001
1.019243e+003,2.090083e+001
1.020207e+003,1.764726e+001
1.021171e+003,1.505181e+001
1.022135e+003,1.525348e+001
1.023100e+003,1.638298e+001
1.024064e+003,1.703313e+001
1.025028e+003,1.696163e+001
1.025992e+003,1.636602e+001
1.026957e+003,1.543405e+001
1.027921e+003,1.435012e+001
1.028885e+003,1.412022e+001
1.029849e+003,1.519776e+001
1.030814e+003,1.611425e+001
1.031778e+003,1.682104e+001
1.032742e+003,1.707023e+001
1.033706e+003,1.633226e+001
1.034671e+003,1.471118e+001
1.035635e+003,1.396383e+001
1.036599e+003,1.565273e+001
1.037563e+003,1.722489e+001
1.038527e+003,1.715195e+001
1.039492e+003,1.617878e+001
1.040456e+003,1.516288e+001
1.041420e+003,1.453546e+001
1.042384e+003,1.435458e+001
1.043349e+003,1.474459e+001
1.044313e+003,1.569302e+001
1.045277e+003,1.645207e+001
1.046241e+003,1.695193e+001
1.047206e+003,1.745305e+001
1.048170e+003,1.826425e+001
1.049134e+003,1.913997e+001
1.050098e+003,1.935844e+001
1.051063e+003,1.857577e+001
1.052027e+003,1.825117e+001
1.052991e+003,1.925341e+001
1.053955e+003,2.023953e+001
1.054919e+003,2.038903e+001
1.055884e+003,1.991253e+001
1.056848e+003,1.947936e+001
1.057812e+003,1.953466e+001
1.058776e+003,1.992350e+001
1.059741e+003,2.023522e+001
1.060705e+003,2.041480e+001
1.061669e+003,2.054111e+001
1.062633e+003,2.065840e+001
1.063598e+003,2.049534e+001
1.064562e+003,1.964570e+001
1.065526e+003,1.824481e+001
1.066490e+003,1.751833e+001
1.067454e+003,1.818557e+001
1.068419e+003,1.846736e+001
1.069383e+003,1.673719e+001
1.070347e+003,1.532739e+001
1.071311e+003,1.699711e+001
1.072276e+003,2.123029e+001
1.073240e+003,2.453729e+001
1.074204e+003,2.408450e+001
1.075168e+003,2.156444e+001
1.076133e+003,2.078832e+001
1.077097e+003,2.133093e+001
1.078061e+003,2.191430e+001
1.079025e+003,2.217202e+001
1.079990e+003,2.224797e+001
1.080954e+003,2.231204e+001
1.081918e+003,2.234368e+001
1.082882e+003,2.253318e+001
1.083846e+003,2.294702e+001
1.084811e+003,2.340597e+001
1.085775e+003,2.417606e+001
1.086739e+003,2.478525e+001
1.087703e+003,2.434362e+001
1.088668e+003,2.296152e+001
1.089632e+003,2.251127e+001
1.090596e+003,2.506922e+001
1.091560e+003,2.881703e+001
1.092525e+003,3.009000e+001
1.093489e+003,2.933678e+001
1.094453e+003,2.842873e+001
1.095417e+003,2.823579e+001
1.096381e+003,2.835407e+001
1.097346e+003,2.783249e+001
1.098310e+003,2.626719e+001
1.099274e+003,2.549730e+001
1.100238e+003,2.628456e+001
1.101203e+003,2.696412e+001
1.102167e+003,2.659902e+001
1.103131e+003,2.599969e+001
1.104095e+003,2.663774e+001
1.105060e+003,2.878430e+001
1.106024e+003,3.037375e+001
1.106988e+003,2.894598e+001
1.107952e+003,2.666080e+001
1.108917e+003,2.722516e+001
1.109881e+003,2.998013e+001
1.110845e+003,3.205280e+001
1.111809e+003,3.183795e+001
1.112773e+003,3.025348e+001
1.113738e+003,2.950580e+001
1.114702e+003,3.000434e+001
1.115666e+003,3.046194e+001
1.116630e+003,3.116071e+001
1.117595e+003,3.135954e+001
1.118559e+003,3.015964e+001
1.119523e+003,2.858271e+001
1.120487e+003,2.817433e+001
1.121452e+003,2.937882e+001
1.122416e+003,3.133829e+001
1.123380e+003,3.397950e+001
1.124344e+003,3.619498e+001
1.125308e+003,3.619434e+001
1.126273e+003,3.453796e+001
1.127237e+003,3.331689e+001
1.128201e+003,3.369242e+001
1.129165e+003,3.489182e+001
1.130130e+003,3.498940e+001
1.131094e+003,3.319019e+001
1.132058e+003,3.256358e+001
1.133022e+003,3.370512e+001
1.133987e+003,3.510522e+001
1.134951e+003,3.708021e+001
1.135915e+003,3.875451e+001
1.136879e+003,3.861269e+001
1.137844e+003,3.633836e+001
1.138808e+003,3.382272e+001
1.139772e+003,3.203809e+001
1.140736e+003,3.131769e+001
1.141700e+003,3.272004e+001
1.142665e+003,3.557561e+001
1.143629e+003,3.769209e+001
1.144593e+003,3.799783e+001
1.145557e+003,3.726791e+001
1.146522e+003,3.684097e+001
1.147486e+003,3.650604e+001
1.148450e+003,3.684081e+001
1.149414e+003,3.846761e+001
1.150379e+003,4.014099e+001
1.151343e+003,4.217092e+001
1.152307e+003,4.376952e+001
1.153271e+003,4.368126e+001
1.154235e+003,4.175312e+001
1.155200e+003,3.941824e+001
1.156164e+003,3.736576e+001
1.157128e+003,3.625129e+001
1.158092e+003,3.735595e+001
1.159057e+003,3.978707e+001
1.160021e+003,4.103737e+001
1.160985e+003,4.010088e+001
1.161949e+003,3.884679e+001
1.162914e+003,4.054658e+001
1.163878e+003,4.587870e+001
1.164842e+003,4.798615e+001
1.165806e+003,4.266766e+001
1.166771e+003,3.928111e+001
1.167735e+003,4.003503e+001
1.168699e+003,4.238300e+001
1.169663e+003,4.428339e+001
1.170627e+003,4.541351e+001
1.171592e+003,4.635447e+001
1.172556e+003,4.756553e+001
1.173520e+003,4.851239e+001
1.174484e+003,4.801096e+001
1.175449e+003,4.668479e+001
1.176413e+003,4.563127e+001
1.177377e+003,4.508821e+001
1.178341e+003,4.498999e+001
1.179306e+003,4.531952e+001
1.180270e+003,4.610938e+001
1.181234e+003,4.737202e+001
1.182198e+003,5.010870e+001
1.183162e+003,5.133617e+001
1.184127e+003,4.914141e+001
1.185091e+003,4.713163e+001
1.186055e+003,4.840363e+001
1.187019e+003,5.165486e+001
1.187984e+003,5.310934e+001
1.188948e+003,5.096467e+001
1.189912e+003,4.790840e+001
1.190876e+003,4.729479e+001
1.191841e+003,4.846595e+001
1.192805e+003,4.988768e+001
1.193769e+003,5.148500e+001
1.194733e+003,5.250765e+001
1.195698e+003,5.218626e+001
1.196662e+003,5.118134e+001
1.197626e+003,5.133550e+001
1.198590e+003,5.299755e+001
1.199554e+003,5.446902e+001
1.200519e+003,5.578788e+001
1.201483e+003,5.677441e+001
1.202447e+003,5.701838e+001
1.203411e+003,5.706638e+001
1.204376e+003,5.787031e+001
1.205340e+003,5.934330e+001
1.206304e+003,5.987254e+001
1.207268e+003,5.784069e+001
1.208233e+003,5.465656e+001
1.209197e+003,5.435891e+001
1.210161e+003,5.647556e+001
1.211125e+003,5.853271e+001
1.212089e+003,6.004222e+001
1.213054e+003,6.071085e+001
1.214018e+003,5.993608e+001
1.214982e+003,5.798855e+001
1.215946e+003,5.692338e+001
1.216911e+003,5.694614e+001
1.217875e+003,5.770870e+001
1.218839e+003,5.942812e+001
1.219803e+003,6.123882e+001
1.220768e+003,6.284904e+001
1.221732e+003,6.412700e+001
1.222696e+003,6.475433e+001
1.223660e+003,6.455813e+001
1.224625e+003,6.406647e+001
1.225589e+003,6.420320e+001
1.226553e+003,6.493941e+001
1.227517e+003,6.591003e+001
1.228481e+003,6.746490e+001
1.229446e+003,6.858568e+001
1.230410e+003,6.860522e+001
1.231374e+003,6.796989e+001
1.232338e+003,6.731462e+001
1.233303e+003,6.670946e+001
1.234267e+003,6.664905e+001
1.235231e+003,6.760872e+001
1.236195e+003,6.867705e+001
1.237160e+003,6.941179e+001
1.238124e+003,6.982399e+001
1.239088e+003,7.002266e+001
1.240052e+003,7.004508e+001
1.241016e+003,6.971796e+001
1.241981e+003,6.882790e+001
1.242945e+003,6.765471e+001
1.243909e+003,6.757472e+001
1.244873e+003,6.941264e+001
1.245838e+003,7.051501e+001
1.246802e+003,7.026559e+001
1.247766e+003,6.988596e+001
1.248730e+003,7.010551e+001
1.249695e+003,7.067765e+001
1.250659e+003,7.105365e+001
1.251623e+003,7.111737e+001
1.252587e+003,7.095874e+001
1.253552e+003,7.015389e+001
1.254516e+003,6.959761e+001
1.255480e+003,7.064945e+001
1.256444e+003,7.258488e+001
1.257408e+003,7.338591e+001
1.258373e+003,7.235057e+001
1.259337e+003,7.145290e+001
1.260301e+003,7.382530e+001
1.261265e+003,7.957688e+001
1.262230e+003,8.181183e+001
1.263194e+003,7.620058e+001
1.264158e+003,7.270902e+001
1.265122e+003,7.364911e+001
1.266087e+003,7.525700e+001
1.267051e+003,7.454440e+001
1.268015e+003,7.250883e+001
1.268979e+003,7.238076e+001
1.269943e+003,7.547633e+001
1.270908e+003,7.900050e+001
1.271872e+003,7.986000e+001
1.272836e+003,7.907796e+001
1.273800e+003,7.950069e+001
1.274765e+003,8.101088e+001
1.275729e+003,8.137052e+001
1.276693e+003,7.901286e+001
1.277657e+003,7.597563e+001
1.278622e+003,7.576141e+001
1.279586e+003,7.854167e+001
1.280550e+003,7.990847e+001
1.281514e+003,7.842340e+001
1.282479e+003,7.759959e+001
1.283443e+003,7.855477e+001
1.284407e+003,8.010465e+001
1.285371e+003,8.137971e+001
1.286335e+003,8.229381e+001
1.287300e+003,8.330910e+001
1.288264e+003,8.471336e+001
1.289228e+003,8.597606e+001
1.290192e+003,8.606425e+001
1.291157e+003,8.504027e+001
1.292121e+003,8.478838e+001
1.293085e+003,8.521529e+001
1.294049e+003,8.600106e+001
1.295014e+003,8.771942e+001
1.295978e+003,8.948763e+001
1.296942e+003,8.988094e+001
1.297906e+003,8.910238e+001
1.298870e+003,8.929099e+001
1.299835e+003,9.143195e+001
1.300799e+003,9.337447e+001
1.301763e+003,9.378554e+001
1.302727e+003,9.331404e+001
1.303692e+003,9.237730e+001
1.304656e+003,9.129282e+001
1.305620e+003,9.012866e+001
1.306584e+003,8.890471e+001
1.307549e+003,8.848381e+001
1.308513e+003,9.084511e+001
1.309477e+003,9.665804e+001
1.310441e+003,9.955466e+001
1.311406e+003,9.794893e+001
1.312370e+003,9.595976e+001
1.313334e+003,9.390771e+001
1.314298e+003,9.191864e+001
1.315263e+003,8.949226e+001
1.316227e+003,8.721420e+001
1.317191e+003,8.695905e+001
1.318155e+003,8.960814e+001
1.319120e+003,9.331785e+001
1.320084e+003,9.676031e+001
1.321048e+003,9.940476e+001
1.322012e+003,9.984877e+001
1.322976e+003,9.827473e+001
1.323941e+003,9.735860e+001
1.324905e+003,9.880414e+001
1.325869e+003,1.007125e+002
1.326833e+003,9.968388e+001
1.327798e+003,9.571935e+001
1.328762e+003,9.361117e+001
1.329726e+003,9.454594e+001
1.330690e+003,9.578581e+001
1.331655e+003,9.657694e+001
1.332619e+003,9.738275e+001
1.333583e+003,9.848055e+001
1.334547e+003,9.983211e+001
1.335511e+003,1.015985e+002
1.336476e+003,1.036645e+002
1.337440e+003,1.050642e+002
1.338404e+003,1.045334e+002
1.339368e+003,1.024085e+002
1.340333e+003,1.010804e+002
1.341297e+003,1.003602e+002
1.342261e+003,1.006062e+002
1.343225e+003,1.029194e+002
1.344190e+003,1.051749e+002
1.345154e+003,1.059600e+002
1.346118e+003,1.055757e+002
1.347082e+003,1.045217e+002
1.348047e+003,1.027963e+002
1.349011e+003,1.016721e+002
1.349975e+003,1.020353e+002
1.350939e+003,1.033860e+002
1.351903e+003,1.055750e+002
1.352868e+003,1.080069e+002
1.353832e+003,1.092656e+002
1.354796e+003,1.090458e+002
1.355760e+003,1.087859e+002
1.356725e+003,1.100460e+002
1.357689e+003,1.122739e+002
1.358653e+003,1.128356e+002
1.359617e+003,1.111541e+002
1.360582e+003,1.094305e+002
1.361546e+003,1.066236e+002
1.362510e+003,1.051998e+002
1.363474e+003,1.069623e+002
1.364438e+003,1.100900e+002
1.365403e+003,1.125858e+002
1.366367e+003,1.141089e+002
1.367331e+003,1.156271e+002
1.368295e+003,1.178043e+002
1.369260e+003,1.198145e+002
1.370224e+003,1.201880e+002
1.371188e+003,1.190903e+002
1.372152e+003,1.183063e+002
1.373117e+003,1.177329e+002
1.374081e+003,1.170119e+002
1.375045e+003,1.155617e+002
1.376009e+003,1.143286e+002
1.376974e+003,1.147457e+002
1.377938e+003,1.165681e+002
1.378902e+003,1.178502e+002
1.379866e+003,1.178535e+002
1.380830e+003,1.176692e+002
1.381795e+003,1.179432e+002
1.382759e+003,1.185065e+002
1.383723e+003,1.195111e+002
1.384687e+003,1.207783e+002
1.385652e+003,1.217050e+002
1.386616e+003,1.220516e+002
1.387580e+003,1.221920e+002
1.388544e+003,1.225171e+002
1.389509e+003,1.229568e+002
1.390473e+003,1.235331e+002
1.391437e+003,1.247457e+002
1.392401e+003,1.253582e+002
1.393365e+003,1.245397e+002
1.394330e+003,1.238274e+002
1.395294e+003,1.239594e+002
1.396258e+003,1.243455e+002
1.397222e+003,1.243034e+002
1.398187e+003,1.239472e+002
1.399151e+003,1.239827e+002
1.400115e+003,1.247878e+002
1.401079e+003,1.257220e+002
1.402044e+003,1.256593e+002
1.403008e+003,1.246071e+002
1.403972e+003,1.243229e+002
1.404936e+003,1.251155e+002
1.405901e+003,1.261421e+002
1.406865e+003,1.269533e+002
1.407829e+003,1.279121e+002
1.408793e+003,1.296958e+002
1.409757e+003,1.321107e+002
1.410722e+003,1.341570e+002
1.411686e+003,1.355673e+002
1.412650e+003,1.357218e+002
1.413614e+003,1.332094e+002
1.414579e+003,1.304412e+002
1.415543e+003,1.303599e+002
1.416507e+003,1.321857e+002
1.417471e+003,1.336181e+002
1.418436e+003,1.338691e+002
1.419400e+003,1.337567e+002
1.420364e+003,1.339712e+002
1.421328e+003,1.347893e+002
1.422292e+003,1.375105e+002
1.423257e+003,1.434132e+002
1.424221e+003,1.459572e+002
1.425185e+003,1.405542e+002
1.426149e+003,1.357681e+002
1.427114e+003,1.342594e+002
1.428078e+003,1.347033e+002
1.429042e+003,1.359337e+002
1.430006e+003,1.374883e+002
1.430971e+003,1.393630e+002
1.431935e+003,1.415169e+002
1.432899e+003,1.433962e+002
1.433863e+003,1.442447e+002
1.434828e+003,1.441839e+002
1.435792e+003,1.434594e+002
1.436756e+003,1.401691e+002
1.437720e+003,1.395927e+002
1.438684e+003,1.450379e+002
1.439649e+003,1.502923e+002
1.440613e+003,1.517473e+002
1.441577e+003,1.507241e+002
1.442541e+003,1.489223e+002
1.443506e+003,1.468518e+002
1.444470e+003,1.461095e+002
1.445434e+003,1.480585e+002
1.446398e+003,1.507909e+002
1.447363e+003,1.508739e+002
1.448327e+003,1.496906e+002
1.449291e+003,1.518021e+002
1.450255e+003,1.577100e+002
1.451219e+003,1.616904e+002
1.452184e+003,1.602291e+002
1.453148e+003,1.562944e+002
1.454112e+003,1.528256e+002
1.455076e+003,1.500418e+002
1.456041e+003,1.499483e+002
1.457005e+003,1.539060e+002
1.457969e+003,1.568426e+002
1.458933e+003,1.555796e+002
1.459898e+003,1.536389e+002
1.460862e+003,1.528351e+002
1.461826e+003,1.528534e+002
1.462790e+003,1.530678e+002
1.463755e+003,1.534181e+002
1.464719e+003,1.544906e+002
1.465683e+003,1.567972e+002
1.466647e+003,1.596661e+002
1.467611e+003,1.615900e+002
1.468576e+003,1.625590e+002
1.469540e+003,1.620541e+002
1.470504e+003,1.575581e+002
1.471468e+003,1.557759e+002
1.472433e+003,1.600637e+002
1.473397e+003,1.645743e+002
1.474361e+003,1.656715e+002
1.475325e+003,1.645616e+002
1.476290e+003,1.630626e+002
1.477254e+003,1.620222e+002
1.478218e+003,1.623894e+002
1.479182e+003,1.650551e+002
1.480146e+003,1.686207e+002
1.481111e+003,1.696686e+002
1.482075e+003,1.678118e+002
1.483039e+003,1.664359e+002
1.484003e+003,1.653209e+002
1.484968e+003,1.649220e+002
1.485932e+003,1.664016e+002
1.486896e+003,1.679564e+002
1.487860e+003,1.674117e+002
1.488825e+003,1.656177e+002
1.489789e+003,1.651786e+002
1.490753e+003,1.667381e+002
1.491717e+003,1.684977e+002
1.492682e+003,1.694155e+002
1.493646e+003,1.694725e+002
1.494610e+003,1.680051e+002
1.495574e+003,1.656281e+002
1.496538e+003,1.644854e+002
1.497503e+003,1.649485e+002
1.498467e+003,1.657772e+002
1.499431e+003,1.662313e+002
1.500395e+003,1.666537e+002
1.501360e+003,1.676728e+002
1.502324e+003,1.692866e+002
1.503288e+003,1.711847e+002
1.504252e+003,1.734340e+002
1.505217e+003,1.744476e+002
1.506181e+003,1.729024e+002
1.507145e+003,1.706096e+002
1.508109e+003,1.684676e+002
1.509073e+003,1.669375e+002
1.510038e+003,1.671452e+002
1.511002e+003,1.689395e+002
1.511966e+003,1.703001e+002
1.512930e+003,1.699502e+002
1.513895e+003,1.689033e+002
1.514859e+003,1.690805e+002
1.515823e+003,1.703021e+002
1.516787e+003,1.693361e+002
1.517752e+003,1.649913e+002
1.518716e+003,1.619193e+002
1.519680e+003,1.610170e+002
1.520644e+003,1.615710e+002
1.521609e+003,1.649685e+002
1.522573e+003,1.686287e+002
1.523537e+003,1.696551e+002
1.524501e+003,1.680792e+002
1.525465e+003,1.653717e+002
1.526430e+003,1.623978e+002
1.527394e+003,1.599740e+002
1.528358e+003,1.595936e+002
1.529322e+003,1.611799e+002
1.530287e+003,1.627654e+002
1.531251e+003,1.657346e+002
1.532215e+003,1.661147e+002
1.533179e+003,1.607853e+002
1.534144e+003,1.567697e+002
1.535108e+003,1.576228e+002
1.536072e+003,1.604258e+002
1.537036e+003,1.625350e+002
1.538000e+003,1.635042e+002
1.538965e+003,1.636455e+002
1.539929e+003,1.631048e+002
1.540893e+003,1.621020e+002
1.541857e+003,1.610148e+002
1.542822e+003,1.598016e+002
1.543786e+003,1.574802e+002
1.544750e+003,1.528876e+002
1.545714e+003,1.509221e+002
1.546679e+003,1.545172e+002
1.547643e+003,1.565006e+002
1.548607e+003,1.530290e+002
1.549571e+003,1.484838e+002
1.550536e+003,1.470234e+002
1.551500e+003,1.479428e+002
1.552464e+003,1.486886e+002
1.553428e+003,1.485938e+002
1.554392e+003,1.485630e+002
1.555357e+003,1.492389e+002
1.556321e+003,1.500172e+002
1.557285e+003,1.496768e+002
1.558249e+003,1.484159e+002
1.559214e+003,1.484265e+002
1.560178e+003,1.505347e+002
1.561142e+003,1.517609e+002
1.562106e+003,1.502720e+002
1.563071e+003,1.480297e+002
1.564035e+003,1.470674e+002
1.564999e+003,1.468880e+002
1.565963e+003,1.459486e+002
1.566927e+003,1.439570e+002
1.567892e+003,1.413723e+002
1.568856e+003,1.380086e+002
1.569820e+003,1.355148e+002
1.570784e+003,1.368603e+002
1.571749e+003,1.400236e+002
1.572713e+003,1.399317e+002
1.573677e+003,1.366813e+002
1.574641e+003,1.335880e+002
1.575606e+003,1.313669e+002
1.576570e+003,1.298662e+002
1.577534e+003,1.291568e+002
1.578498e+003,1.291731e+002
1.579463e+003,1.302875e+002
1.580427e+003,1.322303e+002
1.581391e+003,1.320543e+002
1.582355e+003,1.284957e+002
1.583319e+003,1.246025e+002
1.584284e+003,1.219646e+002
1.585248e+003,1.207060e+002
1.586212e+003,1.209537e+002
1.587176e+003,1.221598e+002
1.588141e+003,1.237819e+002
1.589105e+003,1.258848e+002
1.590069e+003,1.264297e+002
1.591033e+003,1.233009e+002
1.591998e+003,1.187576e+002
1.592962e+003,1.161729e+002
1.593926e+003,1.151601e+002
1.594890e+003,1.135270e+002
1.595854e+003,1.109445e+002
1.596819e+003,1.090833e+002
1.597783e+003,1.090393e+002
1.598747e+003,1.088723e+002
1.599711e+003,1.065535e+002
1.600676e+003,1.036560e+002
1.601640e+003,1.021260e+002
1.602604e+003,1.020266e+002
1.603568e+003,1.027355e+002
1.604533e+003,1.040521e+002
1.605497e+003,1.047408e+002
1.606461e+003,1.034782e+002
1.607425e+003,1.007793e+002
1.608390e+003,9.759325e+001
1.609354e+003,9.396257e+001
1.610318e+003,9.230748e+001
1.611282e+003,9.341367e+001
1.612246e+003,9.493510e+001
1.613211e+003,9.735469e+001
1.614175e+003,9.826448e+001
1.615139e+003,9.462000e+001
1.616103e+003,8.911851e+001
1.617068e+003,8.623348e+001
1.618032e+003,8.637794e+001
1.618996e+003,8.672408e+001
1.619960e+003,8.564520e+001
1.620925e+003,8.380941e+001
1.621889e+003,8.196617e+001
1.622853e+003,8.026054e+001
1.623817e+003,7.945290e+001
1.624781e+003,7.980199e+001
1.625746e+003,8.010960e+001
1.626710e+003,8.071806e+001
1.627674e+003,7.999925e+001
1.628638e+003,7.494015e+001
1.629603e+003,7.007810e+001
1.630567e+003,7.054708e+001
1.631531e+003,7.394137e+001
1.632495e+003,7.437367e+001
1.633460e+003,7.074502e+001
1.634424e+003,6.725444e+001
1.635388e+003,6.704716e+001
1.636352e+003,6.808793e+001
1.637317e+003,6.634605e+001
1.638281e+003,6.209021e+001
1.639245e+003,6.007562e+001
1.640209e+003,6.114367e+001
1.641173e+003,6.147247e+001
1.642138e+003,5.960629e+001
1.643102e+003,5.769724e+001
1.644066e+003,5.686582e+001
1.645030e+003,5.641210e+001
1.645995e+003,5.566949e+001
1.646959e+003,5.468854e+001
1.647923e+003,5.386108e+001
1.648887e+003,5.329515e+001
1.649852e+003,5.254411e+001
1.650816e+003,5.106014e+001
1.651780e+003,4.951546e+001
1.652744e+003,4.964317e+001
1.653708e+003,5.135038e+001
1.654673e+003,5.197651e+001
1.655637e+003,5.115841e+001
1.656601e+003,5.007490e+001
1.657565e+003,4.918644e+001
1.658530e+003,4.798330e+001
1.659494e+003,4.581802e+001
1.660458e+003,4.344852e+001
1.661422e+003,4.169711e+001
1.662387e+003,4.049877e+001
1.663351e+003,3.934818e+001
1.664315e+003,3.809443e+001
1.665279e+003,3.711346e+001
1.666244e+003,3.686967e+001
1.667208e+003,3.693915e+001
1.668172e+003,3.638929e+001
1.669136e+003,3.522072e+001
1.670100e+003,3.376922e+001
1.671065e+003,3.178048e+001
1.672029e+003,3.072638e+001
1.672993e+003,3.193415e+001
1.673957e+003,3.312938e+001
1.674922e+003,3.279688e+001
1.675886e+003,3.163270e+001
1.676850e+003,3.031954e+001
1.677814e+003,2.889948e+001
1.678779e+003,2.701370e+001
1.679743e+003,2.453959e+001
1.680707e+003,2.282292e+001
1.681671e+003,2.319346e+001
1.682635e+003,2.460140e+001
1.683600e+003,2.532714e+001
1.684564e+003,2.548300e+001
1.685528e+003,2.563488e+001
1.686492e+003,2.581196e+001
1.687457e+003,2.553965e+001
1.688421e+003,2.455408e+001
1.689385e+003,2.341162e+001
1.690349e+003,2.210806e+001
1.691314e+003,2.126310e+001
1.692278e+003,2.212964e+001
1.693242e+003,2.406139e+001
1.694206e+003,2.458146e+001
1.695171e+003,2.299574e+001
1.696135e+003,2.122434e+001
1.697099e+003,2.045114e+001
1.698063e+003,2.014050e+001
1.699027e+003,1.986940e+001
1.699992e+003,1.949533e+001
1.700956e+003,1.824385e+001
1.701920e+003,1.606208e+001
1.702884e+003,1.448065e+001
1.703849e+003,1.409058e+001
1.704813e+003,1.417643e+001
1.705777e+003,1.445521e+001
1.706741e+003,1.466157e+001
1.707706e+003,1.432327e+001
1.708670e+003,1.357467e+001
1.709634e+003,1.276929e+001
1.710598e+003,1.189620e+001
1.711563e+003,1.118220e+001
1.712527e+003,1.078544e+001
1.713491e+003,1.050552e+001
1.714455e+003,1.013871e+001
1.715419e+003,9.831098e+000
1.716384e+003,1.006159e+001
1.717348e+003,1.062648e+001
1.718312e+003,1.020894e+001
1.719276e+003,8.386175e+000
1.720241e+003,7.027063e+000
1.721205e+003,7.603064e+000
1.722169e+003,8.996124e+000
1.723133e+003,9.528259e+000
1.724098e+003,9.291754e+000
1.725062e+003,8.725568e+000
1.726026e+003,7.696222e+000
1.726990e+003,6.687250e+000
1.727954e+003,5.398669e+000
1.728919e+003,4.638354e+000
1.729883e+003,5.032593e+000
1.730847e+003,5.925550e+000
1.731811e+003,7.135755e+000
1.732776e+003,8.137464e+000
1.733740e+003,7.606097e+000
1.734704e+003,5.622247e+000
1.735668e+003,4.221527e+000
1.736633e+003,4.574890e+000
1.737597e+003,5.623670e+000
1.738561e+003,6.059924e+000
1.739525e+003,5.966620e+000
1.740490e+003,5.570294e+000
1.741454e+003,4.736786e+000
1.742418e+003,3.961999e+000
1.743382e+003,2.931207e+000
1.744346e+003,2.410641e+000
1.745311e+003,2.813925e+000
1.746275e+003,3.427985e+000
1.747239e+003,4.235504e+000
1.748203e+003,4.788196e+000
1.749168e+003,4.139270e+000
1.750132e+003,2.789313e+000
1.751096e+003,2.414560e+000
1.752060e+003,3.536420e+000
1.753025e+003,4.958948e+000
1.753989e+003,5.629028e+000
1.754953e+003,5.540527e+000
1.755917e+003,4.477722e+000
1.756881e+003,2.402991e+000
1.757846e+003,1.228998e+000
1.758810e+003,1.249033e+000
1.759774e+003,1.463898e+000
1.760738e+003,1.630438e+000
1.761703e+003,2.009692e+000
1.762667e+003,3.343286e+000
1.763631e+003,4.321515e+000
1.764595e+003,3.541837e+000
1.765560e+003,1.852682e+000
1.766524e+003,8.632630e-001
1.767488e+003,7.230927e-001
1.768452e+003,3.126953e-001
1.769417e+003,-9.970123e-001
1.770381e+003,-2.102591e+000
1.771345e+003,-1.412579e+000
1.772309e+003,2.000488e-001
1.773273e+003,3.282440e-001
1.774238e+003,-8.773712e-001
1.775202e+003,-1.327832e+000
1.776166e+003,-6.073273e-001
1.777130e+003,-4.255066e-002
1.778095e+003,-2.942291e-001
1.779059e+003,-4.672455e-001
1.780023e+003,3.982239e-001
1.780987e+003,1.646857e+000
1.781952e+003,2.391150e+000
1.782916e+003,2.527982e+000
1.783880e+003,1.569290e+000
1.784844e+003,-8.248535e-001
1.785808e+003,-2.749829e+000
1.786773e+003,-3.447736e+000
1.787737e+003,-3.386932e+000
1.788701e+003,-2.533777e+000
1.789665e+003,-1.432166e+000
1.790630e+003,-6.258453e-001
1.791594e+003,-3.060883e-001
1.792558e+003,-1.147034e+000
1.793522e+003,-3.149127e+000
1.794487e+003,-4.519775e+000
1.795451e+003,-4.093390e+000
1.796415e+003,-2.895636e+000
1.797379e+003,-2.297116e+000
1.798344e+003,-2.251755e+000
1.799308e+003,-2.434265e+000
1.800272e+003,-3.098630e+000
1.801236e+003,-3.111505e+000
1.802201e+003,-1.569016e+000
1.803165e+003,-6.953858e-001
1.804129e+003,-1.556607e+000
1.805093e+003,-2.276758e+000
1.806057e+003,-1.593228e+000
1.807022e+003,-4.514923e-001
1.807986e+003,3.896179e-002
1.808950e+003,7.510376e-003
1.809914e+003,2.653412e-001
1.810879e+003,9.387634e-001
1.811843e+003,1.191904e+000
1.812807e+003,3.848785e-001
1.813771e+003,-9.047089e-001
1.814736e+003,-1.793579e+000
1.815700e+003,-2.287625e+000
1.816664e+003,-2.518875e+000
1.817628e+003,-2.500397e+000
1.818593e+003,-2.196719e+000
1.819557e+003,-1.374399e+000
1.820521e+003,-7.932159e-001
1.821485e+003,-5.809692e-001
1.822449e+003,-9.270264e-001
1.823414e+003,-2.883774e+000
1.824378e+003,-4.950162e+000
1.825342e+003,-4.616470e+000
1.826306e+003,-2.515533e+000
1.827271e+003,-1.678632e+000
1.828235e+003,-2.888031e+000
1.829199e+003,-4.048352e+000
1.830163e+003,-4.045114e+000
1.831128e+003,-3.617792e+000
1.832092e+003,-3.267673e+000
1.833056e+003,-3.006076e+000
1.834020e+003,-2.906030e+000
1.834984e+003,-2.926138e+000
1.835949e+003,-2.900119e+000
1.836913e+003,-2.751022e+000
1.837877e+003,-2.339365e+000
1.838841e+003,-1.584433e+000
1.839806e+003,-1.089294e+000
1.840770e+003,-1.573166e+000
1.841734e+003,-2.739816e+000
1.842698e+003,-3.668115e+000
1.843663e+003,-4.316571e+000
1.844627e+003,-4.677548e+000
1.845591e+003,-5.292337e+000
1.846555e+003,-4.765429e+000
1.847520e+003,-1.214505e+000
1.848484e+003,9.973999e-001
1.849448e+003,-1.006152e+000
1.850412e+003,-3.708609e+000
1.851376e+003,-4.121558e+000
1.852341e+003,-3.135742e+000
1.853305e+003,-2.696216e+000
1.854269e+003,-3.025876e+000
1.855233e+003,-2.999512e+000
1.856198e+003,-2.090576e+000
1.857162e+003,-1.152072e+000
1.858126e+003,-1.128369e+000
1.859090e+003,-1.461026e+000
1.860055e+003,-7.435425e-001
1.861019e+003,6.458191e-001
1.861983e+003,3.140900e-001
1.862947e+003,-1.912472e+000
1.863911e+003,-3.077628e+000
1.864876e+003,-2.175430e+000
1.865840e+003,-1.432516e+000
1.866804e+003,-2.328510e+000
1.867768e+003,-3.552991e+000
1.868733e+003,-3.721603e+000
1.869697e+003,-3.043256e+000
1.870661e+003,-1.866135e+000
1.871625e+003,-1.788757e-001
1.872590e+003,7.190949e-001
1.873554e+003,3.905212e-001
1.874518e+003,-6.791077e-002
1.875482e+003,-1.556671e-001
1.876447e+003,-4.993561e-001
1.877411e+003,-1.963068e+000
1.878375e+003,-3.471048e+000
1.879339e+003,-3.766931e+000
1.880303e+003,-3.175436e+000
1.881268e+003,-2.401150e+000
1.882232e+003,-1.749274e+000
1.883196e+003,-1.515372e+000
1.884160e+003,-1.819046e+000
1.885125e+003,-2.260349e+000
1.886089e+003,-2.433701e+000
1.887053e+003,-2.369714e+000
1.888017e+003,-1.991016e+000
1.888982e+003,-1.274966e+000
1.889946e+003,-1.049442e+000
1.890910e+003,-1.493497e+000
1.891874e+003,-1.420865e+000
1.892839e+003,-2.229401e-001
1.893803e+003,4.987854e-001
1.894767e+003,-4.962097e-001
1.895731e+003,-1.594577e+000
1.896695e+003,-1.053705e+000
1.897660e+003,1.877808e-001
1.898624e+003,5.095337e-001
1.899588e+003,-3.081055e-002
1.900552e+003,-2.766296e-001
1.901517e+003,1.682220e-001
1.902481e+003,1.028870e-001
1.903445e+003,-1.955551e+000
1.904409e+003,-3.383142e+000
1.905374e+003,-1.698694e+000
1.906338e+003,9.783783e-001
1.907302e+003,2.428369e+000
1.908266e+003,2.616983e+000
1.909230e+003,1.569073e+000
1.910195e+003,-1.975433e-001
1.911159e+003,-1.105591e+000
1.912123e+003,-4.663391e-001
1.913087e+003,9.126648e-001
1.914052e+003,2.303381e+000
1.915016e+003,3.259326e+000
1.915980e+003,2.750046e+000
1.916944e+003,9.161377e-001
1.917909e+003,-4.484344e-001
1.918873e+003,-1.326303e+000
1.919837e+003,-1.642862e+000
1.920801e+003,-1.116467e+000
1.921766e+003,-8.680176e-001
1.922730e+003,-1.688501e+000
1.923694e+003,-2.361047e+000
1.924658e+003,-1.851215e+000
1.925622e+003,-7.721893e-001
1.926587e+003,6.073059e-001
1.927551e+003,1.932214e+000
1.928515e+003,1.734314e+000
1.929479e+003,-3.125488e-001
1.930444e+003,-1.675403e+000
1.931408e+003,-1.250006e+000
1.932372e+003,-6.615478e-001
1.933336e+003,-7.223541e-001
1.934301e+003,-8.385803e-001
1.935265e+003,-4.931854e-001
1.936229e+003,1.148346e-001
1.937193e+003,7.890320e-001
1.938157e+003,1.355084e+000
1.939122e+003,1.448001e+000
1.940086e+003,1.104651e+000
1.941050e+003,9.952210e-001
1.942014e+003,1.494180e+000
1.942979e+003,1.957013e+000
1.943943e+003,1.576459e+000
1.944907e+003,7.051392e-001
1.945871e+003,2.932922e-001
1.946836e+003,3.473236e-001
1.947800e+003,5.225159e-001
1.948764e+003,8.063324e-001
1.949728e+003,7.197632e-001
1.950693e+003,-5.176391e-002
1.951657e+003,-3.744324e-001
1.952621e+003,6.262268e-001
1.953585e+003,1.751291e+000
1.954549e+003,1.877048e+000
1.955514e+003,1.287704e+000
1.956478e+003,1.972656e-001
1.957442e+003,-1.278961e+000
1.958406e+003,-1.048471e+000
1.959371e+003,1.992960e+000
1.960335e+003,3.708954e+000
1.961299e+003,2.560437e+000
1.962263e+003,1.431515e+000
1.963228e+003,1.186618e+000
1.964192e+003,1.394665e+000
1.965156e+003,2.022027e+000
1.966120e+003,2.690375e+000
1.967084e+003,2.959872e+000
1.968049e+003,2.950095e+000
1.969013e+003,3.007404e+000
1.969977e+003,3.206448e+000
1.970941e+003,3.534921e+000
1.971906e+003,4.042722e+000
1.972870e+003,4.113907e+000
1.973834e+003,2.625534e+000
1.974798e+003,7.500946e-001
1.975763e+003,9.404052e-001
1.976727e+003,2.293725e+000
1.977691e+003,1.686307e+000
1.978655e+003,-6.273773e-001
1.979620e+003,-1.172711e+000
1.980584e+003,8.101379e-001
1.981548e+003,2.678571e+000
1.982512e+003,3.025156e+000
1.983476e+003,2.532635e+000
1.984441e+003,1.839609e+000
1.985405e+003,1.152188e+000
1.986369e+003,9.914551e-001
1.987333e+003,1.374207e+000
1.988298e+003,1.660114e+000
1.989262e+003,1.754010e+000
1.990226e+003,1.837408e+000
1.991190e+003,1.603165e+000
1.992155e+003,1.997342e+000
1.993119e+003,4.393365e+000
1.994083e+003,6.097662e+000
1.995047e+003,5.240714e+000
1.996011e+003,3.376575e+000
1.996976e+003,1.598172e+000
1.997940e+003,2.805572e-001
1.998904e+003,4.232574e-001
1.999868e+003,2.013236e+000
2.000833e+003,2.823486e+000
2.001797e+003,1.949677e+000
2.002761e+003,1.074088e+000
2.003725e+003,5.663208e-001
2.004690e+003,6.532928e-001
2.005654e+003,2.051663e+000
2.006618e+003,3.599555e+000
2.007582e+003,4.110580e+000
2.008547e+003,3.892224e+000
2.009511e+003,3.425149e+000
2.010475e+003,2.987604e+000
2.011439e+003,2.970306e+000
2.012403e+003,3.450470e+000
2.013368e+003,4.060684e+000
2.014332e+003,4.577536e+000
2.015296e+003,4.798816e+000
2.016260e+003,4.205005e+000
2.017225e+003,3.301062e+000
2.018189e+003,3.316467e+000
2.019153e+003,4.033615e+000
2.020117e+003,4.650610e+000
2.021082e+003,5.093436e+000
2.022046e+003,5.675583e+000
2.023010e+003,6.480609e+000
2.023974e+003,6.326898e+000
2.024938e+003,4.411780e+000
2.025903e+003,3.020947e+000
2.026867e+003,4.783539e+000
2.027831e+003,7.892340e+000
2.028795e+003,7.974219e+000
2.029760e+003,5.206708e+000
2.030724e+003,3.568051e+000
2.031688e+003,3.206677e+000
2.032652e+003,3.237576e+000
2.033617e+003,3.893353e+000
2.034581e+003,4.368216e+000
2.035545e+003,4.220325e+000
2.036509e+003,4.374795e+000
2.037474e+003,5.854383e+000
2.038438e+003,7.237311e+000
2.039402e+003,6.457214e+000
2.040366e+003,4.729886e+000
2.041330e+003,5.134064e+000
2.042295e+003,7.644598e+000
2.043259e+003,8.667987e+000
2.044223e+003,6.960370e+000
2.045187e+003,5.993262e+000
2.046152e+003,7.259552e+000
2.047116e+003,8.200439e+000
2.048080e+003,7.402875e+000
2.049044e+003,6.388086e+000
2.050009e+003,6.292951e+000
2.050973e+003,6.634076e+000
2.051937e+003,6.836401e+000
2.052901e+003,6.883417e+000
2.053865e+003,6.836963e+000
2.054830e+003,6.741534e+000
2.055794e+003,6.927734e+000
2.056758e+003,7.626099e+000
2.057722e+003,7.842902e+000
2.058687e+003,6.293881e+000
2.059651e+003,4.640298e+000
2.060615e+003,4.615234e+000
2.061579e+003,5.312048e+000
2.062544e+003,5.576560e+000
2.063508e+003,5.638208e+000
2.064472e+003,6.211212e+000
2.065436e+003,7.169525e+000
2.066401e+003,7.731055e+000
2.067365e+003,7.681818e+000
2.068329e+003,7.632623e+000
2.069293e+003,7.968482e+000
2.070258e+003,7.812616e+000
2.071222e+003,5.831210e+000
2.072186e+003,3.399271e+000
2.073150e+003,3.813046e+000
2.074115e+003,6.367816e+000
2.075079e+003,8.169428e+000
2.076043e+003,9.111786e+000
2.077007e+003,9.249811e+000
2.077971e+003,8.668963e+000
2.078936e+003,8.105621e+000
2.079900e+003,7.806885e+000
2.080864e+003,7.791510e+000
2.081828e+003,8.128100e+000
2.082792e+003,8.302295e+000
2.083757e+003,7.513867e+000
2.084721e+003,6.176569e+000
2.085685e+003,5.814505e+000
2.086649e+003,6.487948e+000
2.087614e+003,7.148798e+000
2.088578e+003,7.862805e+000
2.089542e+003,8.326422e+000
2.090506e+003,8.681165e+000
2.091471e+003,7.828070e+000
2.092435e+003,4.552005e+000
2.093399e+003,2.151312e+000
2.094363e+003,3.252618e+000
2.095328e+003,5.688141e+000
2.096292e+003,6.774872e+000
2.097256e+003,6.790057e+000
2.098220e+003,6.743466e+000
2.099185e+003,6.675980e+000
2.100149e+003,6.691052e+000
2.101113e+003,6.652442e+000
2.102077e+003,6.852460e+000
2.103042e+003,8.064191e+000
2.104006e+003,8.398145e+000
2.104970e+003,6.501459e+000
2.105934e+003,4.772195e+000
2.106898e+003,4.657754e+000
2.107863e+003,5.159717e+000
2.108827e+003,5.254608e+000
2.109791e+003,5.193780e+000
2.110755e+003,5.614844e+000
2.111719e+003,6.508746e+000
2.112684e+003,7.411682e+000
2.113648e+003,8.536493e+000
2.114612e+003,8.925323e+000
2.115576e+003,7.508392e+000
2.116541e+003,6.489169e+000
2.117505e+003,7.444818e+000
2.118469e+003,8.141363e+000
2.119433e+003,6.412018e+000
2.120398e+003,4.398562e+000
2.121362e+003,4.760755e+000
2.122326e+003,6.332315e+000
2.123290e+003,6.433221e+000
2.124255e+003,5.160623e+000
2.125219e+003,4.936783e+000
2.126183e+003,6.528284e+000
2.127147e+003,7.809381e+000
2.128112e+003,7.602081e+000
2.129076e+003,7.236139e+000
2.130040e+003,7.258856e+000
2.131004e+003,7.555609e+000
2.131969e+003,8.535162e+000
2.132933e+003,9.267804e+000
2.133897e+003,8.326960e+000
2.134861e+003,6.628623e+000
2.135825e+003,6.005728e+000
2.136790e+003,6.371561e+000
2.137754e+003,6.239581e+000
2.138718e+003,5.213858e+000
2.139682e+003,4.496192e+000
2.140646e+003,4.919739e+000
2.141611e+003,5.316141e+000
2.142575e+003,4.021118e+000
2.143539e+003,2.918558e+000
2.144503e+003,5.133005e+000
2.145468e+003,7.848437e+000
2.146432e+003,6.365680e+000
2.147396e+003,2.666309e+000
2.148360e+003,1.231043e+000
2.149325e+003,2.085217e+000
2.150289e+003,2.592560e+000
2.151253e+003,2.042578e+000
2.152217e+003,1.976947e+000
2.153182e+003,3.304367e+000
2.154146e+003,4.838031e+000
2.155110e+003,5.648685e+000
2.156074e+003,5.776370e+000
2.157039e+003,4.922998e+000
2.158003e+003,3.588324e+000
2.158967e+003,2.221332e+000
2.159931e+003,1.299368e+000
2.160896e+003,2.111798e+000
2.161860e+003,4.156842e+000
2.162824e+003,5.651526e+000
2.163788e+003,6.100037e+000
2.164752e+003,5.726260e+000
2.165717e+003,4.734549e+000
2.166681e+003,4.021454e+000
2.167645e+003,4.467404e+000
2.168609e+003,5.100705e+000
2.169573e+003,4.447067e+000
2.170538e+003,3.161499e+000
2.171502e+003,2.572473e+000
2.172466e+003,2.263748e+000
2.173430e+003,9.323212e-001
2.174395e+003,-9.619141e-001
2.175359e+003,-1.524713e+000
2.176323e+003,-6.209381e-001
2.177287e+003,5.225983e-001
2.178252e+003,1.312430e+000
2.179216e+003,1.586670e+000
2.180180e+003,1.235819e+000
2.181144e+003,6.859039e-001
2.182109e+003,4.301910e-001
2.183073e+003,2.739502e-001
2.184037e+003,-1.075867e-001
2.185001e+003,-6.623474e-001
2.185966e+003,-1.387421e+000
2.186930e+003,-2.085373e+000
2.187894e+003,-2.171692e+000
2.188858e+003,-1.693365e+000
2.189823e+003,-1.276959e+000
2.190787e+003,-1.101874e+000
2.191751e+003,-5.926697e-001
2.192715e+003,5.288696e-001
2.193679e+003,9.183319e-001
2.194644e+003,-9.254822e-001
2.195608e+003,-3.138568e+000
2.196572e+003,-2.291489e+000
2.197536e+003,2.542267e-001
2.198500e+003,1.449612e+000
2.199465e+003,1.460638e+000
2.200429e+003,3.182007e-001
2.201393e+003,-1.534161e+000
2.202357e+003,-2.531131e+000
2.203322e+003,-2.515216e+000
2.204286e+003,-2.561636e+000
2.205250e+003,-3.032068e+000
2.206214e+003,-3.151733e+000
2.207179e+003,-2.387427e+000
2.208143e+003,-1.395856e+000
2.209107e+003,-9.262635e-001
2.210071e+003,-8.008911e-001
2.211036e+003,-6.949890e-001
2.212000e+003,-6.774628e-001
2.212964e+003,-8.992645e-001
2.213928e+003,-1.380240e+000
2.214893e+003,-2.442038e+000
2.215857e+003,-3.713913e+000
2.216821e+003,-3.725348e+000
2.217785e+003,-2.369605e+000
2.218750e+003,-1.100150e+000
2.219714e+003,-6.212646e-001
2.220678e+003,-5.978180e-001
2.221642e+003,-7.559143e-001
2.222606e+003,-1.070224e+000
2.223571e+003,-1.598120e+000
2.224535e+003,-2.234158e+000
2.225499e+003,-2.821667e+000
2.226463e+003,-3.329483e+000
2.227427e+003,-3.672528e+000
2.228392e+003,-3.885217e+000
2.229356e+003,-4.130618e+000
2.230320e+003,-4.344943e+000
2.231284e+003,-4.172797e+000
2.232249e+003,-3.608127e+000
2.233213e+003,-3.234994e+000
2.234177e+003,-3.316580e+000
2.235141e+003,-3.014401e+000
2.236106e+003,-1.347171e+000
2.237070e+003,2.345032e-001
2.238034e+003,-4.804810e-001
2.238998e+003,-2.017929e+000
2.239963e+003,-2.269409e+000
2.240927e+003,-1.836914e+000
2.241891e+003,-1.773468e+000
2.242855e+003,-1.990561e+000
2.243820e+003,-2.080084e+000
2.244784e+003,-2.003232e+000
2.245748e+003,-1.854636e+000
2.246712e+003,-1.719452e+000
2.247677e+003,-1.886737e+000
2.248641e+003,-2.518790e+000
2.249605e+003,-2.883420e+000
2.250569e+003,-2.245679e+000
2.251533e+003,-1.379898e+000
2.252498e+003,-7.841034e-001
2.253462e+003,-5.521485e-001
2.254426e+003,-1.032809e+000
2.255390e+003,-1.720966e+000
2.256354e+003,-2.149866e+000
2.257319e+003,-2.169296e+000
2.258283e+003,-1.135580e+000
2.259247e+003,3.729614e-001
2.260211e+003,1.848297e-001
2.261176e+003,-2.019489e+000
2.262140e+003,-3.323944e+000
2.263104e+003,-2.121524e+000
2.264068e+003,-1.304193e+000
2.265033e+003,-3.433755e+000
2.265997e+003,-5.161108e+000
2.266961e+003,-3.883496e+000
2.267925e+003,-2.119315e+000
2.268890e+003,-1.716684e+000
2.269854e+003,-2.014368e+000
2.270818e+003,-2.274100e+000
2.271782e+003,-2.505103e+000
2.272747e+003,-2.856656e+000
2.273711e+003,-3.359680e+000
2.274675e+003,-4.180398e+000
2.275639e+003,-5.360690e+000
2.276604e+003,-5.905643e+000
2.277568e+003,-5.158130e+000
2.278532e+003,-4.600076e+000
2.279496e+003,-4.640714e+000
2.280460e+003,-4.961969e+000
2.281425e+003,-5.930060e+000
2.282389e+003,-6.560492e+000
2.283353e+003,-6.029349e+000
2.284317e+003,-5.079123e+000
2.285281e+003,-3.849985e+000
2.286246e+003,-3.024384e+000
2.287210e+003,-4.332681e+000
2.288174e+003,-7.235718e+000
2.289138e+003,-8.246191e+000
2.290103e+003,-6.843622e+000
2.291067e+003,-5.750497e+000
2.292031e+003,-5.002280e+000
2.292995e+003,-4.457105e+000
2.293960e+003,-4.034567e+000
2.294924e+003,-4.047071e+000
2.295888e+003,-4.856662e+000
2.296852e+003,-5.567508e+000
2.297817e+003,-5.712656e+000
2.298781e+003,-5.602402e+000
2.299745e+003,-5.414435e+000
2.300709e+003,-5.263330e+000
2.301674e+003,-5.421313e+000
2.302638e+003,-5.817090e+000
2.303602e+003,-6.021133e+000
2.304566e+003,-6.049796e+000
2.305531e+003,-6.036240e+000
2.306495e+003,-6.009421e+000
2.307459e+003,-5.170377e+000
2.308423e+003,-3.276831e+000
2.309387e+003,-2.566464e+000
2.310352e+003,-3.718716e+000
2.311316e+003,-4.732034e+000
2.312280e+003,-4.591064e+000
2.313244e+003,-4.459851e+000
2.314208e+003,-5.384152e+000
2.315173e+003,-6.434207e+000
2.316137e+003,-6.073743e+000
2.317101e+003,-5.158103e+000
2.318065e+003,-6.646613e+000
2.319030e+003,-9.457550e+000
2.319994e+003,-8.561841e+000
2.320958e+003,-5.071994e+000
2.321922e+003,-3.918536e+000
2.322887e+003,-5.008783e+000
2.323851e+003,-5.515658e+000
2.324815e+003,-4.916650e+000
2.325779e+003,-4.100626e+000
2.326744e+003,-3.505856e+000
2.327708e+003,-3.482709e+000
2.328672e+003,-4.291162e+000
2.329636e+003,-5.073044e+000
2.330601e+003,-4.826349e+000
2.331565e+003,-4.449933e+000
2.332529e+003,-5.215506e+000
2.333493e+003,-6.155716e+000
2.334458e+003,-5.850082e+000
2.335422e+003,-5.219974e+000
2.336386e+003,-6.094150e+000
2.337350e+003,-7.317956e+000
2.338314e+003,-6.000757e+000
2.339279e+003,-3.106342e+000
2.340243e+003,-2.598090e+000
2.341207e+003,-4.970490e+000
2.342171e+003,-6.661328e+000
2.343135e+003,-6.398496e+000
2.344100e+003,-6.076712e+000
2.345064e+003,-6.786539e+000
2.346028e+003,-6.981970e+000
2.346992e+003,-5.465487e+000
2.347957e+003,-4.152255e+000
2.348921e+003,-3.966480e+000
2.349885e+003,-4.352524e+000
2.350849e+003,-5.330795e+000
2.351814e+003,-6.334765e+000
2.352778e+003,-6.596200e+000
2.353742e+003,-6.378088e+000
2.354706e+003,-6.267294e+000
2.355671e+003,-6.252042e+000
2.356635e+003,-6.581870e+000
2.357599e+003,-7.514178e+000
2.358563e+003,-7.756210e+000
2.359528e+003,-7.188025e+000
2.360492e+003,-6.279681e+000
2.361456e+003,-4.832840e+000
2.362420e+003,-4.012451e+000
2.363385e+003,-4.306082e+000
2.364349e+003,-4.585763e+000
2.365313e+003,-4.236151e+000
2.366277e+003,-3.696313e+000
2.367241e+003,-3.330957e+000
2.368206e+003,-3.397543e+000
2.369170e+003,-4.446411e+000
2.370134e+003,-5.919065e+000
2.371098e+003,-5.917493e+000
2.372063e+003,-4.941037e+000
2.373027e+003,-5.321036e+000
2.373991e+003,-6.514688e+000
2.374955e+003,-6.060806e+000
2.375919e+003,-4.412332e+000
2.376884e+003,-4.409583e+000
2.377848e+003,-6.103882e+000
2.378812e+003,-6.809622e+000
2.379776e+003,-5.761572e+000
2.380741e+003,-4.861740e+000
2.381705e+003,-5.156003e+000
2.382669e+003,-5.736972e+000
2.383633e+003,-6.211774e+000
2.384598e+003,-6.187720e+000
2.385562e+003,-4.729605e+000
2.386526e+003,-3.462344e+000
2.387490e+003,-4.140076e+000
2.388455e+003,-5.138379e+000
2.389419e+003,-4.518350e+000
2.390383e+003,-3.475974e+000
2.391347e+003,-3.990463e+000
2.392312e+003,-5.425616e+000
2.393276e+003,-5.840515e+000
2.394240e+003,-5.264319e+000
2.395204e+003,-5.582892e+000
2.396168e+003,-7.407529e+000
2.397133e+003,-8.068759e+000
2.398097e+003,-6.886728e+000
2.399061e+003,-5.587448e+000
2.400025e+003,-3.767566e+000
2.400990e+003,-2.949994e+000
2.401954e+003,-3.972571e+000
2.402918e+003,-4.776697e+000
2.403882e+003,-4.302164e+000
2.404846e+003,-3.673874e+000
2.405811e+003,-3.814349e+000
2.406775e+003,-4.149076e+000
2.407739e+003,-3.838660e+000
2.408703e+003,-3.296851e+000
2.409668e+003,-3.646762e+000
2.410632e+003,-4.703345e+000
2.411596e+003,-5.975699e+000
2.412560e+003,-7.121033e+000
2.413525e+003,-5.812192e+000
2.414489e+003,-2.873260e+000
2.415453e+003,-2.365192e+000
2.416417e+003,-4.204629e+000
2.417382e+003,-5.325015e+000
2.418346e+003,-5.011893e+000
2.419310e+003,-4.850537e+000
2.420274e+003,-5.507617e+000
2.421239e+003,-5.776413e+000
2.422203e+003,-4.673868e+000
2.423167e+003,-3.723544e+000
2.424131e+003,-4.260520e+000
2.425095e+003,-4.972076e+000
2.426060e+003,-5.245700e+000
2.427024e+003,-5.081296e+000
2.427988e+003,-3.958395e+000
2.428952e+003,-2.928012e+000
2.429917e+003,-3.266550e+000
2.430881e+003,-4.163147e+000
2.431845e+003,-4.348727e+000
2.432809e+003,-3.978217e+000
2.433773e+003,-3.635733e+000
2.434738e+003,-3.325903e+000
2.435702e+003,-3.925977e+000
2.436666e+003,-5.974576e+000
2.437630e+003,-6.935831e+000
2.438595e+003,-6.618829e+000
2.439559e+003,-6.099893e+000
2.440523e+003,-5.456628e+000
2.441487e+003,-4.784073e+000
2.442452e+003,-4.129327e+000
2.443416e+003,-3.590695e+000
2.444380e+003,-3.208832e+000
2.445344e+003,-3.417566e+000
2.446309e+003,-4.630539e+000
2.447273e+003,-5.454556e+000
2.448237e+003,-3.927057e+000
2.449201e+003,-1.291934e+000
2.450166e+003,1.441916e+000
2.451130e+003,3.072629e+000
2.452094e+003,4.628021e-001
2.453058e+003,-3.752371e+000
2.454022e+003,-5.849066e+000
2.454987e+003,-6.093661e+000
2.455951e+003,-4.953088e+000
2.456915e+003,-3.362033e+000
2.457879e+003,-3.304013e+000
2.458844e+003,-4.676651e+000
2.459808e+003,-4.916406e+000
2.460772e+003,-3.254330e+000
2.461736e+003,-2.333749e+000
2.462700e+003,-3.394568e+000
2.463665e+003,-4.128387e+000
2.464629e+003,-3.763409e+000
2.465593e+003,-3.872433e+000
2.466557e+003,-5.361499e+000
2.467522e+003,-6.127393e+000
2.468486e+003,-5.051559e+000
2.469450e+003,-3.716424e+000
2.470414e+003,-3.181970e+000
2.471379e+003,-3.106479e+000
2.472343e+003,-3.147022e+000
2.473307e+003,-3.214886e+000
2.474271e+003,-3.007269e+000
2.475236e+003,-2.763657e+000
2.476200e+003,-3.637851e+000
2.477164e+003,-4.983862e+000
2.478128e+003,-4.425415e+000
2.479093e+003,-2.841916e+000
2.480057e+003,-2.920224e+000
2.481021e+003,-4.279196e+000
2.481985e+003,-5.125760e+000
2.482949e+003,-5.182645e+000
2.483914e+003,-5.080112e+000
2.484878e+003,-4.984155e+000
2.485842e+003,-4.447623e+000
2.486806e+003,-3.103903e+000
2.487771e+003,-2.426160e+000
2.488735e+003,-3.830136e+000
2.489699e+003,-4.542532e+000
2.490663e+003,-3.245090e+000
2.491627e+003,-2.073218e+000
2.492592e+003,-1.391907e+000
2.493556e+003,-1.503619e+000
2.494520e+003,-2.936661e+000
2.495484e+003,-4.544019e+000
2.496449e+003,-5.612915e+000
2.497413e+003,-5.787070e+000
2.498377e+003,-4.390018e+000
2.499341e+003,-2.095984e+000
2.500306e+003,-4.538116e-001
2.501270e+003,4.061737e-001
2.502234e+003,-7.829620e-001
2.503198e+003,-3.219842e+000
2.504163e+003,-3.946558e+000
2.505127e+003,-3.363681e+000
2.506091e+003,-3.135782e+000
2.507055e+003,-3.219891e+000
2.508020e+003,-2.568738e+000
2.508984e+003,-1.219959e+000
2.509948e+003,-6.246033e-002
2.510912e+003,5.372620e-001
2.511876e+003,6.013489e-002
2.512841e+003,-2.054086e+000
2.513805e+003,-3.736160e+000
2.514769e+003,-4.178024e+000
2.515733e+003,-4.340442e+000
2.516698e+003,-4.485248e+000
2.517662e+003,-4.387863e+000
2.518626e+003,-3.893527e+000
2.519590e+003,-3.152835e+000
2.520554e+003,-2.142587e+000
2.521519e+003,-1.195990e+000
2.522483e+003,-5.156860e-001
2.523447e+003,-4.565765e-001
2.524411e+003,-1.632132e+000
2.525376e+003,-3.333765e+000
2.526340e+003,-4.049341e+000
2.527304e+003,-3.816901e+000
2.528268e+003,-2.055634e+000
2.529233e+003,2.926453e-001
2.530197e+003,6.938111e-001
2.531161e+003,-1.155060e-001
2.532125e+003,-3.511291e-001
2.533090e+003,1.616821e-002
2.534054e+003,5.251557e-001
2.535018e+003,1.010669e+000
2.535982e+003,1.472507e+000
2.536947e+003,1.849350e+000
2.537911e+003,1.036917e+000
2.538875e+003,-2.315210e+000
2.539839e+003,-3.609827e+000
2.540803e+003,-1.896484e-001
2.541768e+003,1.689923e+000
2.542732e+003,1.014960e+000
2.543696e+003,-2.076721e-001
2.544660e+003,-1.752698e+000
2.545625e+003,-2.204907e+000
2.546589e+003,-7.635711e-001
2.547553e+003,3.818268e-001
2.548517e+003,-5.065765e-001
2.549482e+003,-1.655496e+000
2.550446e+003,-9.234344e-001
2.551410e+003,5.509461e-001
2.552374e+003,1.244900e+000
2.553339e+003,1.269131e+000
2.554303e+003,2.943603e-001
2.555267e+003,-7.257355e-001
2.556231e+003,-2.482666e-001
2.557196e+003,6.671600e-001
2.558160e+003,4.480438e-001
2.559124e+003,-4.048401e-001
2.560088e+003,-6.638123e-001
2.561052e+003,-5.170959e-001
2.562017e+003,-1.383688e+000
2.562981e+003,-3.238205e+000
2.563945e+003,-3.237582e+000
2.564909e+003,-8.876251e-001
2.565874e+003,6.013916e-001
2.566838e+003,1.189218e+000
2.567802e+003,1.188452e+000
2.568766e+003,6.382599e-001
2.569730e+003,6.566955e-001
2.570695e+003,1.335043e+000
2.571659e+003,9.655457e-001
2.572623e+003,-8.178161e-001
2.573587e+003,-1.960956e+000
2.574552e+003,-1.399866e+000
2.575516e+003,-6.502655e-001
2.576480e+003,-7.694702e-001
2.577444e+003,-8.899475e-001
2.578409e+003,-3.245636e-001
2.579373e+003,1.011871e-001
2.580337e+003,9.021302e-002
2.581301e+003,-2.707520e-001
2.582266e+003,-1.259094e+000
2.583230e+003,-2.162814e+000
2.584194e+003,-2.854837e+000
2.585158e+003,-2.778336e+000
2.586123e+003,-1.027866e+000
2.587087e+003,1.119116e+000
2.588051e+003,1.422897e+000
2.589015e+003,5.779663e-001
2.589979e+003,7.319549e-001
2.590944e+003,1.605566e+000
2.591908e+003,2.640375e+000
2.592872e+003,3.239578e+000
2.593836e+003,1.085873e+000
2.594801e+003,-2.303653e+000
2.595765e+003,-3.469174e+000
2.596729e+003,-2.872327e+000
2.597693e+003,-2.612131e+000
2.598657e+003,-2.890698e+000
2.599622e+003,-2.749905e+000
2.600586e+003,-2.034344e+000
2.601550e+003,-1.704794e+000
2.602514e+003,-2.196408e+000
2.603479e+003,-2.218881e+000
2.604443e+003,-1.594669e+000
2.605407e+003,-9.904510e-001
2.606371e+003,-3.322174e-001
2.607336e+003,-4.226807e-001
2.608300e+003,-1.460410e+000
2.609264e+003,-2.064911e+000
2.610228e+003,-1.766254e+000
2.611193e+003,-1.537006e+000
2.612157e+003,-1.903360e+000
2.613121e+003,-1.933456e+000
2.614085e+003,-8.369446e-001
2.615050e+003,5.135681e-001
2.616014e+003,1.745474e+000
2.616978e+003,2.429950e+000
2.617942e+003,2.121094e+000
2.618906e+003,1.484677e+000
2.619871e+003,5.069855e-001
2.620835e+003,-1.479614e-001
2.621799e+003,2.029785e-001
2.622763e+003,7.120636e-001
2.623728e+003,6.423950e-001
2.624692e+003,2.268128e-001
2.625656e+003,-2.623566e-001
2.626620e+003,-6.291260e-001
2.627584e+003,-2.399719e-001
2.628549e+003,6.679260e-001
2.629513e+003,1.423431e+000
2.630477e+003,2.008328e+000
2.631441e+003,2.291556e+000
2.632406e+003,2.403949e+000
2.633370e+003,2.898734e+000
2.634334e+003,3.314105e+000
2.635298e+003,2.200439e+000
2.636263e+003,1.269409e-001
2.637227e+003,-5.118591e-001
2.638191e+003,4.846649e-001
2.639155e+003,5.988922e-001
2.640120e+003,-6.634644e-001
2.641084e+003,1.727997e-001
2.642048e+003,3.783981e+000
2.643012e+003,4.425748e+000
2.643977e+003,1.811923e+000
2.644941e+003,6.441803e-001
2.645905e+003,1.480948e+000
2.646869e+003,1.859055e+000
2.647833e+003,1.167572e+000
2.648798e+003,5.523895e-001
2.649762e+003,5.278443e-001
2.650726e+003,1.088474e+000
2.651690e+003,2.450409e+000
2.652655e+003,3.109760e+000
2.653619e+003,1.859299e+000
2.654583e+003,6.995880e-001
2.655547e+003,3.739105e-001
2.656511e+003,-1.099579e-001
2.657476e+003,-1.337088e+000
2.658440e+003,-2.053799e+000
2.659404e+003,-1.695572e+000
2.660368e+003,-7.261475e-001
2.661333e+003,6.251404e-001
2.662297e+003,1.348990e+000
2.663261e+003,3.005096e-001
2.664225e+003,-8.036804e-001
2.665190e+003,9.973145e-001
2.666154e+003,2.905502e+000
2.667118e+003,4.957184e-001
2.668082e+003,-1.883731e+000
2.669047e+003,9.167938e-001
2.670011e+003,4.238946e+000
2.670975e+003,3.087482e+000
2.671939e+003,7.282410e-001
2.672904e+003,1.226105e+000
2.673868e+003,2.745816e+000
2.674832e+003,2.713803e+000
2.675796e+003,1.531601e+000
2.676760e+003,4.864807e-002
2.677725e+003,-1.448193e+000
2.678689e+003,-1.616794e+000
2.679653e+003,-8.014954e-001
2.680617e+003,1.589508e-001
2.681582e+003,1.086093e+000
2.682546e+003,1.906375e+000
2.683510e+003,2.474182e+000
2.684474e+003,2.241409e+000
2.685438e+003,1.593204e+000
2.686403e+003,1.690439e+000
2.687367e+003,2.477466e+000
2.688331e+003,2.697174e+000
2.689295e+003,2.338510e+000
2.690260e+003,2.505133e+000
2.691224e+003,3.333121e+000
2.692188e+003,3.119742e+000
2.693152e+003,1.881570e+000
2.694117e+003,1.235294e+000
2.695081e+003,1.284650e+000
2.696045e+003,1.628122e+000
2.697009e+003,1.957639e+000
2.697974e+003,1.078827e+000
2.698938e+003,-7.853729e-001
2.699902e+003,-2.918701e-001
2.700866e+003,3.877472e+000
2.701831e+003,6.171301e+000
2.702795e+003,3.764966e+000
2.703759e+003,2.116809e+000
2.704723e+003,1.667099e+000
2.705688e+003,1.736026e+000
2.706652e+003,2.293436e+000
2.707616e+003,2.896353e+000
2.708580e+003,3.422507e+000
2.709544e+003,2.752264e+000
2.710509e+003,6.320770e-001
2.711473e+003,-7.795624e-001
2.712437e+003,-3.032562e-001
2.713401e+003,8.196411e-001
2.714365e+003,2.147430e+000
2.715330e+003,2.975214e+000
2.716294e+003,2.424487e+000
2.717258e+003,2.093777e+000
2.718222e+003,3.292252e+000
2.719187e+003,3.527740e+000
2.720151e+003,1.519043e+000
2.721115e+003,7.452087e-002
2.722079e+003,6.840943e-001
2.723044e+003,1.022070e+000
2.724008e+003,-6.744720e-001
2.724972e+003,-2.235971e+000
2.725936e+003,-1.370340e+000
2.726901e+003,3.786591e-001
2.727865e+003,1.631226e+000
2.728829e+003,2.590143e+000
2.729793e+003,3.912235e+000
2.730758e+003,4.353677e+000
2.731722e+003,1.939648e+000
2.732686e+003,-3.677856e-001
2.733650e+003,-4.438873e-001
2.734615e+003,4.743958e-001
2.735579e+003,1.597800e+000
2.736543e+003,2.142584e+000
2.737507e+003,8.829437e-001
2.738471e+003,-8.419006e-001
2.739436e+003,-3.034790e-001
2.740400e+003,1.215286e+000
2.741364e+003,1.765625e+000
2.742328e+003,1.812549e+000
2.743292e+003,1.592496e+000
2.744257e+003,1.491125e+000
2.745221e+003,2.051413e+000
2.746185e+003,2.807288e+000
2.747149e+003,3.044812e+000
2.748114e+003,3.213382e+000
2.749078e+003,4.184433e+000
2.750042e+003,5.274878e+000
2.751006e+003,4.433029e+000
2.751971e+003,2.364996e+000
2.752935e+003,1.488312e+000
2.753899e+003,1.360172e+000
2.754863e+003,1.124261e+000
2.755828e+003,9.130799e-001
2.756792e+003,9.559662e-001
2.757756e+003,1.233011e+000
2.758720e+003,1.771234e+000
2.759685e+003,2.442862e+000
2.760649e+003,3.227405e+000
2.761613e+003,3.842246e+000
2.762577e+003,3.156152e+000
2.763542e+003,1.478665e+000
2.764506e+003,1.645871e+000
2.765470e+003,3.181098e+000
2.766434e+003,3.518543e+000
2.767398e+003,3.040799e+000
2.768363e+003,2.587653e+000
2.769327e+003,2.379910e+000
2.770291e+003,2.991302e+000
2.771255e+003,3.964172e+000
2.772219e+003,4.151071e+000
2.773184e+003,3.482965e+000
2.774148e+003,2.326270e+000
2.775112e+003,7.977448e-001
2.776076e+003,4.174194e-001
2.777041e+003,1.215631e+000
2.778005e+003,2.398917e+000
2.778969e+003,3.760581e+000
2.779933e+003,4.316297e+000
2.780898e+003,4.053131e+000
2.781862e+003,2.734311e+000
2.782826e+003,1.008212e+000
2.783790e+003,3.599518e-001
2.784755e+003,8.796204e-001
2.785719e+003,1.964438e+000
2.786683e+003,3.511642e+000
2.787647e+003,4.367475e+000
2.788612e+003,4.503287e+000
2.789576e+003,3.499207e+000
2.790540e+003,1.470862e+000
2.791504e+003,1.788217e+000
2.792469e+003,3.931134e+000
2.793433e+003,4.251480e+000
2.794397e+003,2.955627e+000
2.795361e+003,2.477866e+000
2.796325e+003,3.101901e+000
2.797290e+003,4.055896e+000
2.798254e+003,5.089734e+000
2.799218e+003,4.588745e+000
2.800182e+003,1.915094e+000
2.801146e+003,1.547351e+000
2.802111e+003,3.799033e+000
2.803075e+003,5.709833e+000
2.804039e+003,7.001404e+000
2.805003e+003,7.065485e+000
2.805968e+003,6.009637e+000
2.806932e+003,4.299759e+000
2.807896e+003,2.646732e+000
2.808860e+003,2.871136e+000
2.809825e+003,4.943381e+000
2.810789e+003,5.529047e+000
2.811753e+003,3.611706e+000
2.812717e+003,2.553021e+000
2.813682e+003,2.534528e+000
2.814646e+003,2.572232e+000
2.815610e+003,2.668072e+000
2.816574e+003,3.069928e+000
2.817539e+003,3.673874e+000
2.818503e+003,3.976089e+000
2.819467e+003,3.815402e+000
2.820431e+003,2.799774e+000
2.821396e+003,1.286777e+000
2.822360e+003,1.361847e+000
2.823324e+003,3.639850e+000
2.824288e+003,5.252136e+000
2.825252e+003,5.960650e+000
2.826217e+003,6.135980e+000
2.827181e+003,5.783698e+000
2.828145e+003,6.024610e+000
2.829109e+003,6.717187e+000
2.830073e+003,6.601855e+000
2.831038e+003,5.696930e+000
2.832002e+003,4.803653e+000
2.832966e+003,4.120410e+000
2.833930e+003,3.315036e+000
2.834895e+003,2.313309e+000
2.835859e+003,2.579211e+000
2.836823e+003,4.586853e+000
2.837787e+003,5.830060e+000
2.838752e+003,6.326373e+000
2.839716e+003,5.723364e+000
2.840680e+003,4.204846e+000
2.841644e+003,2.699707e+000
2.842609e+003,1.611053e+000
2.843573e+003,2.036911e+000
2.844537e+003,3.626682e+000
2.845501e+003,4.488312e+000
2.846466e+003,4.214490e+000
2.847430e+003,3.297568e+000
2.848394e+003,1.575995e+000
2.849358e+003,1.812607e+000
2.850323e+003,4.202435e+000
2.851287e+003,4.960068e+000
2.852251e+003,4.225696e+000
2.853215e+003,3.806888e+000
2.854179e+003,3.930588e+000
2.855144e+003,4.827918e+000
2.856108e+003,5.876142e+000
2.857072e+003,4.910672e+000
2.858036e+003,2.143982e+000
2.859000e+003,1.698090e+000
2.859965e+003,3.828931e+000
2.860929e+003,4.163318e+000
2.861893e+003,2.585599e+000
2.862857e+003,3.173154e+000
2.863822e+003,5.259216e+000
2.864786e+003,4.376218e+000
2.865750e+003,1.752142e+000
2.866714e+003,1.934000e+000
2.867679e+003,4.194223e+000
2.868643e+003,5.470465e+000
2.869607e+003,5.385486e+000
2.870571e+003,4.120816e+000
2.871536e+003,2.070990e+000
2.872500e+003,2.527185e+000
2.873464e+003,5.236835e+000
2.874428e+003,4.454959e+000
2.875393e+003,1.504526e+000
2.876357e+003,8.151062e-001
2.877321e+003,1.844946e+000
2.878285e+003,3.027545e+000
2.879250e+003,4.095566e+000
2.880214e+003,5.360895e+000
2.881178e+003,6.418067e+000
2.882142e+003,6.249170e+000
2.883106e+003,5.018064e+000
2.884071e+003,2.871631e+000
2.885035e+003,4.080628e-001
2.885999e+003,1.597082e+000
2.886963e+003,4.634128e+000
2.887927e+003,5.199079e+000
2.888892e+003,4.494254e+000
2.889856e+003,4.336087e+000
2.890820e+003,4.746631e+000
2.891784e+003,6.184350e+000
2.892749e+003,7.232367e+000
2.893713e+003,5.398657e+000
2.894677e+003,2.336627e+000
2.895641e+003,1.876370e+000
2.896606e+003,2.938861e+000
2.897570e+003,2.361154e+000
2.898534e+003,1.455557e+000
2.899498e+003,2.834497e+000
2.900463e+003,4.597595e+000
2.901427e+003,4.576523e+000
2.902391e+003,3.658563e+000
2.903355e+003,2.459067e+000
2.904320e+003,1.607736e+000
2.905284e+003,1.753497e+000
2.906248e+003,2.496533e+000
2.907212e+003,3.438321e+000
2.908177e+003,4.137647e+000
2.909141e+003,3.327597e+000
2.910105e+003,2.442975e+000
2.911069e+003,3.423608e+000
2.912033e+003,4.461334e+000
2.912998e+003,4.142407e+000
2.913962e+003,3.413165e+000
2.914926e+003,2.653683e+000
2.915890e+003,2.335309e+000
2.916854e+003,2.876446e+000
2.917819e+003,3.140668e+000
2.918783e+003,1.811304e+000
2.919747e+003,7.314484e-001
2.920711e+003,2.745248e+000
2.921676e+003,4.412689e+000
2.922640e+003,2.763852e+000
2.923604e+003,1.466885e+000
2.924568e+003,2.230267e+000
2.925533e+003,2.897046e+000
2.926497e+003,2.618399e+000
2.927461e+003,2.230380e+000
2.928425e+003,2.524347e+000
2.929390e+003,3.747833e+000
2.930354e+003,5.454767e+000
2.931318e+003,6.100268e+000
2.932282e+003,4.453778e+000
2.933247e+003,2.473068e+000
2.934211e+003,1.706451e+000
2.935175e+003,1.377560e+000
2.936139e+003,7.546661e-001
2.937104e+003,8.006226e-001
2.938068e+003,1.734277e+000
2.939032e+003,2.044132e+000
2.939996e+003,1.418427e+000
2.940960e+003,1.589267e+000
2.941925e+003,3.179630e+000
2.942889e+003,4.099030e+000
2.943853e+003,3.512985e+000
2.944817e+003,2.928769e+000
2.945781e+003,2.467490e+000
2.946746e+003,1.337851e+000
2.947710e+003,-3.542877e-001
2.948674e+003,-7.681274e-002
2.949638e+003,1.760419e+000
2.950603e+003,1.897842e+000
2.951567e+003,5.180420e-001
2.952531e+003,8.450562e-001
2.953495e+003,3.274411e+000
2.954460e+003,5.319888e+000
2.955424e+003,6.896136e+000
2.956388e+003,6.054975e+000
2.957352e+003,3.198361e+000
2.958317e+003,2.605289e+000
2.959281e+003,3.551614e+000
2.960245e+003,3.820508e+000
2.961209e+003,3.602206e+000
2.962174e+003,3.827298e+000
2.963138e+003,4.146179e+000
2.964102e+003,3.048682e+000
2.965066e+003,1.896893e+000
2.966031e+003,4.230218e+000
2.966995e+003,8.198273e+000
2.967959e+003,7.469354e+000
2.968923e+003,4.141580e+000
2.969887e+003,1.779752e+000
2.970852e+003,4.676514e-001
2.971816e+003,4.740295e-001
2.972780e+003,1.297617e+000
2.973744e+003,3.249103e+000
2.974708e+003,4.532190e+000
2.975673e+003,3.493927e+000
2.976637e+003,1.761127e+000
2.977601e+003,1.165875e+000
2.978565e+003,1.308832e+000
2.979530e+003,2.013083e+000
2.980494e+003,2.771521e+000
2.981458e+003,3.750137e+000
2.982422e+003,3.763495e+000
2.983387e+003,8.570801e-001
2.984351e+003,-2.479095e-001
2.985315e+003,2.462274e+000
2.986279e+003,4.248080e+000
2.987244e+003,2.751477e+000
2.988208e+003,1.378497e+000
2.989172e+003,2.299350e+000
2.990136e+003,3.113223e+000
2.991101e+003,2.337152e+000
2.992065e+003,1.489822e+000
2.993029e+003,3.704498e-001
2.993993e+003,8.873841e-001
2.994958e+003,3.357938e+000
2.995922e+003,3.725183e+000
2.996886e+003,1.660382e+000
2.997850e+003,3.571900e-001
2.998814e+003,5.589569e-001
2.999779e+003,1.130212e+000
3.000743e+003,1.710370e+000
3.001707e+003,1.393558e+000
3.002671e+003,-1.051636e-002
3.003635e+003,-8.026062e-001
3.004600e+003,-9.601593e-001
3.005564e+003,1.006152e+000
3.006528e+003,3.846530e+000
3.007492e+003,2.786200e+000
3.008457e+003,-1.683411e-001
3.009421e+003,5.890961e-001
3.010385e+003,3.867239e+000
3.011349e+003,5.192880e+000
3.012314e+003,4.788886e+000
3.013278e+003,3.250601e+000
3.014242e+003,1.104108e+000
3.015206e+003,-9.436341e-002
3.016171e+003,-4.726929e-001
3.017135e+003,4.827759e-001
3.018099e+003,1.379337e+000
3.019063e+003,1.561615e-001
3.020028e+003,-1.065109e+000
3.020992e+003,-3.688049e-001
3.021956e+003,6.744507e-001
3.022920e+003,7.018219e-001
3.023885e+003,2.745148e-001
3.024849e+003,-3.806763e-002
3.025813e+003,-1.927765e-001
3.026777e+003,-5.307312e-001
3.027741e+003,-1.144257e-001
3.028706e+003,2.824228e+000
3.029670e+003,4.195819e+000
3.030634e+003,2.792810e+000
3.031598e+003,1.192664e+000
3.032563e+003,2.852142e-001
3.033527e+003,7.195069e-001
3.034491e+003,2.542731e+000
3.035455e+003,2.977652e+000
3.036420e+003,4.409515e-001
3.037384e+003,-9.267426e-001
3.038348e+003,6.806030e-002
3.039312e+003,6.982361e-001
3.040277e+003,9.353882e-001
3.041241e+003,1.402390e+000
3.042205e+003,1.927444e+000
3.043169e+003,1.344534e+000
3.044134e+003,6.938782e-002
3.045098e+003,-2.629212e-001
3.046062e+003,3.108063e-001
3.047026e+003,5.859253e-001
3.047990e+003,5.765076e-001
3.048955e+003,3.550598e-001
3.049919e+003,-5.371704e-002
3.050883e+003,-6.213531e-001
3.051847e+003,-1.214294e+000
3.052812e+003,-1.694662e+000
3.053776e+003,-1.949063e+000
3.054740e+003,-2.034173e+000
3.055704e+003,-1.623129e+000
3.056668e+003,-1.943512e-001
3.057633e+003,1.249249e+000
3.058597e+003,1.604712e+000
3.059561e+003,1.208591e+000
3.060525e+003,7.504578e-002
3.061490e+003,-9.330475e-001
3.062454e+003,-1.320279e+000
3.063418e+003,-9.795960e-001
3.064382e+003,6.545135e-001
3.065347e+003,1.230524e+000
3.066311e+003,9.911194e-002
3.067275e+003,-7.102539e-001
3.068239e+003,-4.475647e-001
3.069204e+003,-1.837860e-001
3.070168e+003,-4.421234e-001
3.071132e+003,-7.021087e-001
3.072096e+003,-7.214996e-001
3.073061e+003,-9.188812e-001
3.074025e+003,-1.351047e+000
3.074989e+003,-6.293182e-001
3.075953e+003,9.209992e-001
3.076917e+003,1.921551e+000
3.077882e+003,1.920959e+000
3.078846e+003,-3.181366e-001
3.079810e+003,-3.570108e+000
3.080774e+003,-4.067627e+000
3.081739e+003,-2.489972e+000
3.082703e+003,-8.059937e-001
3.083667e+003,6.355743e-001
3.084631e+003,4.449219e-001
3.085595e+003,-4.683960e-001
3.086560e+003,-9.258850e-001
3.087524e+003,-9.483215e-001
3.088488e+003,-9.014282e-002
3.089452e+003,3.079071e-001
3.090417e+003,-7.689575e-001
3.091381e+003,-1.770163e+000
3.092345e+003,-1.485022e+000
3.093309e+003,-9.095276e-001
3.094274e+003,-1.112601e+000
3.095238e+003,-7.865418e-001
3.096202e+003,2.103110e+000
3.097166e+003,3.464407e+000
3.098131e+003,2.424609e+000
3.099095e+003,4.707825e-001
3.100059e+003,-2.005249e+000
3.101023e+003,-2.941797e+000
3.101988e+003,-2.157498e+000
3.102952e+003,-1.453403e+000
3.103916e+003,-1.353043e+000
3.104880e+003,-1.184927e+000
3.105844e+003,-8.147370e-001
3.106809e+003,-1.340686e+000
3.107773e+003,-2.717737e+000
3.108737e+003,-5.379931e+000
3.109701e+003,-7.821237e+000
3.110666e+003,-5.134546e+000
3.111630e+003,-6.503631e-001
3.112594e+003,1.794739e-002
3.113558e+003,-1.482169e+000
3.114522e+003,-2.590674e+000
3.115487e+003,-3.108200e+000
3.116451e+003,-2.485214e+000
3.117415e+003,-2.034369e+000
3.118379e+003,-4.609296e+000
3.119344e+003,-6.840967e+000
3.120308e+003,-5.685327e+000
3.121272e+003,-4.139365e+000
3.122236e+003,-3.129016e+000
3.123201e+003,-2.617020e+000
3.124165e+003,-2.576288e+000
3.125129e+003,-2.329282e+000
3.126093e+003,-1.724735e+000
3.127058e+003,-2.329742e+000
3.128022e+003,-5.167755e+000
3.128986e+003,-5.287149e+000
3.129950e+003,-7.550995e-001
3.130915e+003,4.308167e-001
3.131879e+003,-1.368460e+000
3.132843e+003,-2.600806e+000
3.133807e+003,-2.981787e+000
3.134771e+003,-2.006424e+000
3.135736e+003,-8.114654e-001
3.136700e+003,-2.276330e+000
3.137664e+003,-4.948117e+000
3.138628e+003,-5.961286e+000
3.139593e+003,-5.769974e+000
3.140557e+003,-5.229928e+000
3.141521e+003,-4.366776e+000
3.142485e+003,-2.839505e+000
3.143449e+003,-1.472717e+000
3.144414e+003,-8.457947e-001
3.145378e+003,-7.663544e-001
3.146342e+003,-1.196356e+000
3.147306e+003,-1.820447e+000
3.148271e+003,-2.463199e+000
3.149235e+003,-2.437054e+000
3.150199e+003,-1.296765e+000
3.151163e+003,-9.147034e-001
3.152128e+003,-2.498441e+000
3.153092e+003,-3.909805e+000
3.154056e+003,-5.167358e+000
3.155020e+003,-5.193057e+000
3.155985e+003,-4.230426e+000
3.156949e+003,-3.404755e+000
3.157913e+003,-2.912174e+000
3.158877e+003,-2.703830e+000
3.159842e+003,-2.965088e+000
3.160806e+003,-4.227033e+000
3.161770e+003,-5.811197e+000
3.162734e+003,-5.864722e+000
3.163698e+003,-5.008691e+000
3.164663e+003,-4.429746e+000
3.165627e+003,-3.946780e+000
3.166591e+003,-3.222391e+000
3.167555e+003,-2.682364e+000
3.168520e+003,-2.436688e+000
3.169484e+003,-2.988748e+000
3.170448e+003,-4.566922e+000
3.171412e+003,-5.573138e+000
3.172376e+003,-5.078448e+000
3.173341e+003,-4.121701e+000
3.174305e+003,-2.869031e+000
3.175269e+003,-2.462735e+000
3.176233e+003,-3.148383e+000
3.177198e+003,-3.379266e+000
3.178162e+003,-3.223633e+000
3.179126e+003,-3.958841e+000
3.180090e+003,-5.096265e+000
3.181055e+003,-4.774209e+000
3.182019e+003,-3.495596e+000
3.182983e+003,-3.243463e+000
3.183947e+003,-3.651840e+000
3.184912e+003,-3.756122e+000
3.185876e+003,-3.708225e+000
3.186840e+003,-3.935327e+000
3.187804e+003,-4.115671e+000
3.188769e+003,-3.573849e+000
3.189733e+003,-3.345111e+000
3.190697e+003,-4.327207e+000
3.191661e+003,-4.629770e+000
3.192625e+003,-3.463699e+000
3.193590e+003,-2.607657e+000
3.194554e+003,-2.988654e+000
3.195518e+003,-3.984024e+000
3.196482e+003,-5.647311e+000
3.197447e+003,-6.284637e+000
3.198411e+003,-5.713407e+000
3.199375e+003,-4.886975e+000
3.200339e+003,-3.843307e+000
3.201303e+003,-2.098395e+000
3.202268e+003,-3.505341e-001
3.203232e+003,-9.822083e-002
3.204196e+003,-1.352579e+000
3.205160e+003,-4.177045e+000
3.206125e+003,-6.663046e+000
3.207089e+003,-4.956439e+000
3.208053e+003,-2.005722e+000
3.209017e+003,-3.406232e+000
3.209982e+003,-5.355881e+000
3.210946e+003,-4.379922e+000
3.211910e+003,-3.464966e+000
3.212874e+003,-3.775918e+000
3.213839e+003,-3.905225e+000
3.214803e+003,-3.460629e+000
3.215767e+003,-3.795254e+000
3.216731e+003,-5.291391e+000
3.217696e+003,-6.009152e+000
3.218660e+003,-5.169409e+000
3.219624e+003,-4.679791e+000
3.220588e+003,-4.551373e+000
3.221552e+003,-4.247751e+000
3.222517e+003,-3.951031e+000
3.223481e+003,-4.583197e+000
3.224445e+003,-5.445108e+000
3.225409e+003,-4.894495e+000
3.226374e+003,-4.134473e+000
3.227338e+003,-4.776608e+000
3.228302e+003,-5.564914e+000
3.229266e+003,-4.924704e+000
3.230230e+003,-3.775821e+000
3.231195e+003,-2.755600e+000
3.232159e+003,-2.096060e+000
3.233123e+003,-1.897702e+000
3.234087e+003,-2.310126e+000
3.235052e+003,-3.369266e+000
3.236016e+003,-4.406772e+000
3.236980e+003,-5.098297e+000
3.237944e+003,-4.593536e+000
3.238909e+003,-2.988968e+000
3.239873e+003,-2.303760e+000
3.240837e+003,-2.611688e+000
3.241801e+003,-3.365967e+000
3.242766e+003,-4.408218e+000
3.243730e+003,-5.036380e+000
3.244694e+003,-5.613040e+000
3.245658e+003,-7.343005e+000
3.246623e+003,-8.356259e+000
3.247587e+003,-6.713898e+000
3.248551e+003,-5.259024e+000
3.249515e+003,-5.829328e+000
3.250479e+003,-5.773309e+000
3.251444e+003,-2.867950e+000
3.252408e+003,-7.975922e-001
3.253372e+003,-1.949255e+000
3.254336e+003,-3.774167e+000
3.255301e+003,-6.250003e+000
3.256265e+003,-6.410980e+000
3.257229e+003,-4.690048e+000
3.258193e+003,-3.805075e+000
3.259157e+003,-3.906561e+000
3.260122e+003,-4.286148e+000
3.261086e+003,-4.601382e+000
3.262050e+003,-4.318927e+000
3.263014e+003,-3.928973e+000
3.263979e+003,-5.085971e+000
3.264943e+003,-6.063605e+000
3.265907e+003,-4.049014e+000
3.266871e+003,-2.104855e+000
3.267836e+003,-1.995538e+000
3.268800e+003,-2.099731e+000
3.269764e+003,-1.931244e+000
3.270728e+003,-2.375827e+000
3.271693e+003,-3.608456e+000
3.272657e+003,-4.189414e+000
3.273621e+003,-3.591836e+000
3.274585e+003,-3.109756e+000
3.275550e+003,-2.792835e+000
3.276514e+003,-3.271426e+000
3.277478e+003,-4.009818e+000
3.278442e+003,-3.319824e+000
3.279406e+003,-1.993784e+000
3.280371e+003,-1.159778e+000
3.281335e+003,-5.994141e-001
3.282299e+003,3.099670e-002
3.283263e+003,1.855804e-001
3.284228e+003,-7.412384e-001
3.285192e+003,-1.584488e+000
3.286156e+003,-1.330371e+000
3.287120e+003,-7.287811e-001
3.288084e+003,4.429840e-001
3.289049e+003,-1.714844e-001
3.290013e+003,-2.402466e+000
3.290977e+003,-2.518585e+000
3.291941e+003,-8.561615e-001
3.292906e+003,-4.982422e-001
3.293870e+003,-1.318536e+000
3.294834e+003,-1.084613e+000
3.295798e+003,-2.607056e-001
3.296763e+003,-6.930542e-002
3.297727e+003,-3.757812e-001
3.298691e+003,-1.177939e+000
3.299655e+003,-1.985715e+000
3.300620e+003,-2.623743e+000
3.301584e+003,-2.919232e+000
3.302548e+003,-2.832236e+000
3.303512e+003,-1.559842e+000
3.304477e+003,8.839264e-001
3.305441e+003,1.695883e+000
3.306405e+003,-1.893311e-001
3.307369e+003,-6.943085e-001
3.308333e+003,4.624023e-001
3.309298e+003,1.760968e+000
3.310262e+003,2.812768e+000
3.311226e+003,1.959372e+000
3.312190e+003,4.462067e-001
3.313155e+003,-1.292175e-001
3.314119e+003,-3.010254e-002
3.315083e+003,4.841400e-001
3.316047e+003,1.292905e+000
3.317011e+003,2.382764e+000
3.317976e+003,2.469070e+000
3.318940e+003,-2.943939e-001
3.319904e+003,-2.126375e+000
3.320868e+003,-2.384950e+000
3.321833e+003,-1.726224e+000
3.322797e+003,-4.394165e-001
3.323761e+003,1.403839e-001
3.324725e+003,2.133057e-001
3.325690e+003,8.835022e-001
3.326654e+003,1.885696e+000
3.327618e+003,2.429233e+000
3.328582e+003,2.526791e+000
3.329547e+003,2.118417e+000
3.330511e+003,1.519238e+000
3.331475e+003,6.367737e-001
3.332439e+003,4.783386e-001
3.333404e+003,1.743597e+000
3.334368e+003,2.603348e+000
3.335332e+003,2.706433e+000
3.336296e+003,2.827762e+000
3.337260e+003,3.014004e+000
3.338225e+003,2.158777e+000
3.339189e+003,1.997559e-001
3.340153e+003,-8.570343e-001
3.341117e+003,-1.104594e+000
3.342082e+003,-1.155728e+000
3.343046e+003,-7.137222e-001
3.344010e+003,1.635812e+000
3.344974e+003,3.373712e+000
3.345938e+003,2.101401e+000
3.346903e+003,1.412689e+000
3.347867e+003,2.976923e+000
3.348831e+003,4.394534e+000
3.349795e+003,4.350906e+000
3.350760e+003,3.717700e+000
3.351724e+003,2.441190e+000
3.352688e+003,1.981281e+000
3.353652e+003,2.335519e+000
3.354617e+003,3.828186e+000
3.355581e+003,5.532431e+000
3.356545e+003,5.469263e+000
3.357509e+003,4.295255e+000
3.358474e+003,2.795160e+000
3.359438e+003,2.195093e+000
3.360402e+003,3.758954e+000
3.361366e+003,5.402283e+000
3.362331e+003,5.171731e+000
3.363295e+003,4.090530e+000
3.364259e+003,1.624248e+000
3.365223e+003,1.685355e+000
3.366188e+003,4.217862e+000
3.367152e+003,5.229007e+000
3.368116e+003,4.704715e+000
3.369080e+003,4.447610e+000
3.370044e+003,4.419907e+000
3.371009e+003,3.738429e+000
3.371973e+003,3.058147e+000
3.372937e+003,3.974324e+000
3.373901e+003,4.867081e+000
3.374865e+003,2.764832e+000
3.375830e+003,1.773003e+000
3.376794e+003,4.019479e+000
3.377758e+003,5.454679e+000
3.378722e+003,5.308334e+000
3.379687e+003,4.501199e+000
3.380651e+003,3.643558e+000
3.381615e+003,4.173575e+000
3.382579e+003,6.006991e+000
3.383544e+003,7.397702e+000
3.384508e+003,8.242340e+000
3.385472e+003,7.821597e+000
3.386436e+003,7.086270e+000
3.387401e+003,6.981112e+000
3.388365e+003,7.465589e+000
3.389329e+003,8.741748e+000
3.390293e+003,8.330661e+000
3.391258e+003,5.560201e+000
3.392222e+003,4.744072e+000
3.393186e+003,7.651575e+000
3.394150e+003,8.837766e+000
3.395115e+003,7.619327e+000
3.396079e+003,7.567587e+000
3.397043e+003,8.327558e+000
3.398007e+003,9.007297e+000
3.398971e+003,9.580670e+000
3.399936e+003,1.018103e+001
3.400900e+003,1.034520e+001
3.401864e+003,9.749557e+000
3.402828e+003,9.358561e+000
3.403792e+003,9.867270e+000
3.404757e+003,1.007397e+001
3.405721e+003,8.945246e+000
3.406685e+003,8.742594e+000
3.407649e+003,9.514270e+000
3.408614e+003,9.689514e+000
3.409578e+003,9.608859e+000
3.410542e+003,1.097370e+001
3.411506e+003,1.214461e+001
3.412471e+003,1.001055e+001
3.413435e+003,7.996956e+000
3.414399e+003,9.551504e+000
3.415363e+003,1.188478e+001
3.416328e+003,1.258343e+001
3.417292e+003,1.240854e+001
3.418256e+003,1.125293e+001
3.419220e+003,1.069341e+001
3.420185e+003,1.077660e+001
3.421149e+003,1.078478e+001
3.422113e+003,1.074601e+001
3.423077e+003,1.102468e+001
3.424042e+003,1.161345e+001
3.425006e+003,1.251745e+001
3.425970e+003,1.324211e+001
3.426934e+003,1.280750e+001
