7.140112e+001,2.084508e+002
7.236536e+001,2.004325e+002
7.332959e+001,2.025430e+002
7.429382e+001,2.116300e+002
7.525806e+001,2.294940e+002
7.622229e+001,2.378479e+002
7.718652e+001,2.237496e+002
7.815076e+001,1.752152e+002
7.911499e+001,1.411986e+002
8.007922e+001,1.157062e+002
8.104346e+001,1.026676e+002
8.200769e+001,1.071204e+002
8.297192e+001,1.417582e+002
8.393616e+001,1.798992e+002
8.490039e+001,2.265091e+002
8.586462e+001,2.710708e+002
8.682886e+001,2.967117e+002
8.779310e+001,2.646752e+002
8.875733e+001,2.148501e+002
8.972157e+001,1.679898e+002
9.068580e+001,1.319814e+002
9.165003e+001,1.064106e+002
9.261427e+001,9.552895e+001
9.357850e+001,9.456488e+001
9.454273e+001,9.627184e+001
9.550697e+001,9.595010e+001
9.647120e+001,9.357883e+001
9.743543e+001,8.967268e+001
9.839967e+001,8.295872e+001
9.936390e+001,7.537351e+001
1.003281e+002,6.911910e+001
1.012924e+002,6.419237e+001
1.022566e+002,6.114756e+001
1.032208e+002,6.026931e+001
1.041851e+002,6.146179e+001
1.051493e+002,6.445309e+001
1.061135e+002,7.484432e+001
1.070778e+002,8.239101e+001
1.080420e+002,8.075543e+001
1.090062e+002,6.887083e+001
1.099705e+002,5.157073e+001
1.109347e+002,3.844890e+001
1.118989e+002,2.925261e+001
1.128632e+002,2.748550e+001
1.138274e+002,3.586759e+001
1.147916e+002,5.680016e+001
1.157559e+002,6.653185e+001
1.167201e+002,6.179263e+001
1.176843e+002,5.206465e+001
1.186486e+002,4.895753e+001
1.196128e+002,5.841158e+001
1.205770e+002,6.719309e+001
1.215413e+002,7.871021e+001
1.225055e+002,8.908372e+001
1.234697e+002,9.039256e+001
1.244340e+002,6.449876e+001
1.253982e+002,3.787056e+001
1.263624e+002,1.475031e+001
1.273267e+002,-1.532556e+000
1.282909e+002,-7.435510e+000
1.292551e+002,1.885748e+001
1.302194e+002,5.471880e+001
1.311836e+002,7.987585e+001
1.321478e+002,8.151914e+001
1.331121e+002,5.942290e+001
1.340763e+002,3.952139e+001
1.350405e+002,1.996271e+001
1.360048e+002,6.388965e+000
1.369690e+002,6.183753e+000
1.379332e+002,3.410557e+001
1.388975e+002,5.143697e+001
1.398617e+002,5.468037e+001
1.408259e+002,4.884272e+001
1.417902e+002,4.185051e+001
1.427544e+002,3.581328e+001
1.437186e+002,2.996006e+001
1.446829e+002,2.325494e+001
1.456471e+002,1.625502e+001
1.466113e+002,1.051417e+001
1.475756e+002,7.105188e+000
1.485398e+002,6.959998e+000
1.495040e+002,1.418352e+001
1.504683e+002,2.919886e+001
1.514325e+002,4.852790e+001
1.523967e+002,5.046458e+001
1.533610e+002,3.912837e+001
1.543252e+002,2.514243e+001
1.552894e+002,1.579734e+001
1.562537e+002,1.243125e+001
1.572179e+002,1.113976e+001
1.581821e+002,1.116261e+001
1.591464e+002,1.316677e+001
1.601106e+002,1.891100e+001
1.610748e+002,3.486430e+001
1.620391e+002,4.344389e+001
1.630033e+002,3.601847e+001
1.639676e+002,2.018760e+001
1.649318e+002,7.954175e+000
1.658960e+002,1.547352e+001
1.668603e+002,2.585624e+001
1.678245e+002,2.639783e+001
1.687887e+002,1.751997e+001
1.697530e+002,5.606336e+000
1.707172e+002,1.016257e+001
1.716814e+002,2.480591e+001
1.726457e+002,3.412333e+001
1.736099e+002,3.204379e+001
1.745741e+002,1.802372e+001
1.755384e+002,8.118921e+000
1.765026e+002,2.123694e+000
1.774668e+002,-1.348206e+000
1.784311e+002,-2.108569e+000
1.793953e+002,1.245178e+000
1.803595e+002,3.351794e+000
1.813238e+002,2.918603e+000
1.822880e+002,1.308337e+000
1.832522e+002,-3.063477e-001
1.842165e+002,-8.933471e-001
1.851807e+002,-2.167944e+000
1.861449e+002,-6.481787e+000
1.871092e+002,-1.200425e+001
1.880734e+002,-1.655911e+001
1.890376e+002,-1.726046e+001
1.900019e+002,-1.411730e+001
1.909661e+002,-7.450159e+000
1.919303e+002,2.508887e+000
1.928946e+002,1.333135e+001
1.938588e+002,1.658282e+001
1.948230e+002,6.774219e+000
1.957873e+002,1.570239e+000
1.967515e+002,5.709619e+000
1.977157e+002,1.892042e+001
1.986800e+002,2.998505e+001
1.996442e+002,3.649858e+001
2.006084e+002,4.176455e+001
2.015727e+002,4.799756e+001
2.025369e+002,5.576363e+001
2.035011e+002,5.917736e+001
2.044654e+002,5.182744e+001
2.054296e+002,4.070861e+001
2.063938e+002,2.877040e+001
2.073581e+002,1.807942e+001
2.083223e+002,9.677210e+000
2.092865e+002,3.546594e+000
2.102508e+002,2.446899e-001
2.112150e+002,3.303430e+000
2.121792e+002,1.665176e+001
2.131435e+002,4.419711e+001
2.141077e+002,6.030581e+001
2.150719e+002,6.171459e+001
2.160362e+002,5.534827e+001
2.170004e+002,5.127001e+001
2.179646e+002,5.185534e+001
2.189289e+002,5.152084e+001
2.198931e+002,4.704569e+001
2.208573e+002,4.139504e+001
2.218216e+002,4.019701e+001
2.227858e+002,5.040894e+001
2.237500e+002,6.333532e+001
2.247143e+002,8.094814e+001
2.256785e+002,9.937331e+001
2.266427e+002,1.108951e+002
2.276070e+002,9.397532e+001
2.285712e+002,6.324553e+001
2.295354e+002,3.679227e+001
2.304997e+002,1.996335e+001
2.314639e+002,1.168224e+001
2.324281e+002,5.718237e+000
2.333924e+002,1.971655e+000
2.343566e+002,-8.625488e-002
2.353208e+002,6.699219e-002
2.362851e+002,2.986377e+000
2.372493e+002,4.365222e+000
2.382135e+002,3.166516e+000
2.391778e+002,1.462744e+000
2.401420e+002,1.864136e-001
2.411062e+002,-3.137207e-001
2.420705e+002,-7.276856e-001
2.430347e+002,-1.451160e+000
2.439989e+002,-2.387061e+000
2.449632e+002,-3.535303e+000
2.459274e+002,-4.904687e+000
2.468916e+002,-6.139539e+000
2.478559e+002,-6.885974e+000
2.488201e+002,-7.141858e+000
2.497843e+002,-6.812268e+000
2.507486e+002,-5.781958e+000
2.517128e+002,-3.809521e+000
2.526770e+002,-7.594727e-001
2.536413e+002,4.378296e+000
2.546055e+002,9.644068e+000
2.555697e+002,1.185483e+001
2.565340e+002,7.612659e+000
2.574982e+002,4.875012e+000
2.584625e+002,5.680652e+000
2.594267e+002,8.307141e+000
2.603909e+002,9.568457e+000
2.613552e+002,6.042578e+000
2.623194e+002,2.166772e+000
2.632836e+002,-3.963135e-001
2.642479e+002,-1.508777e+000
2.652121e+002,-1.441772e+000
2.661763e+002,1.759155e-001
2.671406e+002,2.265637e+000
2.681048e+002,2.820019e+000
2.690690e+002,1.565576e+000
2.700333e+002,-6.668946e-001
2.709975e+002,-2.299683e-001
2.719617e+002,4.364453e+000
2.729260e+002,6.808887e+000
2.738902e+002,4.615344e+000
2.748544e+002,-2.138049e+000
2.758187e+002,-7.163074e+000
2.767829e+002,-9.974133e+000
2.777471e+002,-1.149786e+001
2.787114e+002,-1.147633e+001
2.796756e+002,-9.926038e+000
2.806398e+002,-7.862402e+000
2.816041e+002,-5.962354e+000
2.825683e+002,-4.032031e+000
2.835325e+002,-1.994788e+000
2.844968e+002,2.034790e-001
2.854610e+002,2.604944e+000
2.864252e+002,6.447937e+000
2.873895e+002,1.052450e+001
2.883537e+002,1.246338e+001
2.893179e+002,1.077428e+001
2.902822e+002,5.248034e+000
2.912464e+002,8.026245e-001
2.922106e+002,-2.602246e+000
2.931749e+002,-5.527185e+000
2.941391e+002,-8.605774e+000
2.951033e+002,-1.248600e+001
2.960676e+002,-1.448109e+001
2.970318e+002,-1.430311e+001
2.979960e+002,-1.266758e+001
2.989603e+002,-9.787720e+000
2.999245e+002,-5.532117e+000
3.008887e+002,-1.169983e+000
3.018530e+002,2.811487e+000
3.028172e+002,6.260132e+000
3.037814e+002,9.062866e+000
3.047457e+002,1.114800e+001
3.057099e+002,1.230897e+001
3.066741e+002,1.249514e+001
3.076384e+002,1.169699e+001
3.086026e+002,9.587146e+000
3.095668e+002,5.696765e+000
3.105311e+002,-9.516113e-001
3.114953e+002,-5.088977e+000
3.124595e+002,-6.190576e+000
3.134238e+002,-5.637634e+000
3.143880e+002,-4.934631e+000
3.153522e+002,-4.076282e+000
3.163165e+002,-3.345386e+000
3.172807e+002,-2.757178e+000
3.182449e+002,-2.077869e+000
3.192092e+002,-1.145142e+000
3.201734e+002,-5.688476e-003
3.211376e+002,1.545642e+000
3.221019e+002,3.750671e+000
3.230661e+002,6.440051e+000
3.240303e+002,9.632764e+000
3.249946e+002,1.361733e+001
3.259588e+002,1.738730e+001
3.269230e+002,1.699067e+001
3.278873e+002,1.224382e+001
3.288515e+002,5.975965e+000
3.298157e+002,3.223218e+000
3.307800e+002,7.250061e+000
3.317442e+002,9.902234e+000
3.327084e+002,1.028236e+001
3.336727e+002,9.423487e+000
3.346369e+002,9.226721e+000
3.356011e+002,1.097054e+001
3.365654e+002,1.222881e+001
3.375296e+002,1.232498e+001
3.384938e+002,1.165455e+001
3.394581e+002,1.080101e+001
3.404223e+002,9.974024e+000
3.413865e+002,9.442541e+000
3.423508e+002,9.529333e+000
3.433150e+002,1.017656e+001
3.442792e+002,1.117522e+001
3.452435e+002,1.217729e+001
3.462077e+002,1.321725e+001
3.471719e+002,1.403433e+001
3.481362e+002,1.370415e+001
3.491004e+002,1.439371e+001
3.500646e+002,2.091458e+001
3.510289e+002,3.412767e+001
3.519931e+002,5.465222e+001
3.529573e+002,8.397473e+001
3.539216e+002,1.200624e+002
3.548858e+002,1.618250e+002
3.558500e+002,2.275072e+002
3.568143e+002,2.705245e+002
3.577785e+002,2.704034e+002
3.587427e+002,2.379551e+002
3.597070e+002,1.911868e+002
3.606712e+002,1.414571e+002
3.616354e+002,9.630878e+001
3.625997e+002,6.404149e+001
3.635639e+002,4.429307e+001
3.645281e+002,3.398684e+001
3.654924e+002,2.791102e+001
3.664566e+002,2.738082e+001
3.674208e+002,2.565490e+001
3.683851e+002,2.240321e+001
3.693493e+002,1.798533e+001
3.703135e+002,1.304891e+001
3.712778e+002,5.214587e+000
3.722420e+002,9.346802e-001
3.732062e+002,2.258411e+000
3.741705e+002,6.855994e+000
3.751347e+002,1.127412e+001
3.760989e+002,1.392784e+001
3.770632e+002,1.565889e+001
3.780274e+002,1.698452e+001
3.789916e+002,1.772323e+001
3.799559e+002,1.758057e+001
3.809201e+002,1.619687e+001
3.818844e+002,1.375364e+001
3.828486e+002,1.063593e+001
3.838128e+002,7.022034e+000
3.847771e+002,4.082446e+000
3.857413e+002,3.612476e+000
3.867055e+002,7.269446e+000
3.876698e+002,9.126928e+000
3.886340e+002,6.360132e+000
3.895982e+002,2.991907e+000
3.905625e+002,5.282166e+000
3.915267e+002,1.940443e+001
3.924909e+002,2.895825e+001
3.934552e+002,2.972548e+001
3.944194e+002,2.582751e+001
3.953836e+002,2.135552e+001
3.963479e+002,1.816851e+001
3.973121e+002,1.648310e+001
3.982763e+002,1.707615e+001
3.992406e+002,1.866715e+001
4.002048e+002,1.913966e+001
4.011690e+002,1.636013e+001
4.021333e+002,1.123423e+001
4.030975e+002,1.077454e+001
4.040617e+002,1.498192e+001
4.050260e+002,2.001114e+001
4.059902e+002,2.182465e+001
4.069544e+002,1.870715e+001
4.079187e+002,1.688482e+001
4.088829e+002,1.736477e+001
4.098471e+002,1.796342e+001
4.108114e+002,1.657610e+001
4.117756e+002,1.195361e+001
4.127398e+002,9.071912e+000
4.137041e+002,1.056411e+001
4.146683e+002,1.362886e+001
4.156325e+002,1.669019e+001
4.165968e+002,1.887552e+001
4.175610e+002,2.002802e+001
4.185252e+002,1.934514e+001
4.194895e+002,1.787291e+001
4.204537e+002,1.677153e+001
4.214179e+002,1.678689e+001
4.223822e+002,1.793774e+001
4.233464e+002,2.079377e+001
4.243106e+002,2.619791e+001
4.252749e+002,2.972114e+001
4.262391e+002,2.756910e+001
4.272033e+002,1.883094e+001
4.281676e+002,1.582169e+001
4.291318e+002,2.350504e+001
4.300960e+002,3.219567e+001
4.310603e+002,3.740656e+001
4.320245e+002,3.905211e+001
4.329887e+002,4.309743e+001
4.339530e+002,5.284282e+001
4.349172e+002,6.856754e+001
4.358814e+002,9.410254e+001
4.368457e+002,1.282285e+002
4.378099e+002,1.660291e+002
4.387741e+002,2.023556e+002
4.397384e+002,2.330921e+002
4.407026e+002,2.432962e+002
4.416668e+002,2.283452e+002
4.426311e+002,1.945720e+002
4.435953e+002,1.629648e+002
4.445595e+002,1.323950e+002
4.455238e+002,1.062865e+002
4.464880e+002,8.518581e+001
4.474522e+002,6.861617e+001
4.484165e+002,5.601469e+001
4.493807e+002,4.934479e+001
4.503449e+002,4.482786e+001
4.513092e+002,4.194819e+001
4.522734e+002,3.999912e+001
4.532376e+002,3.847937e+001
4.542019e+002,3.749681e+001
4.551661e+002,3.564800e+001
4.561303e+002,3.054447e+001
4.570946e+002,2.342836e+001
4.580588e+002,1.689092e+001
4.590230e+002,1.377408e+001
4.599873e+002,1.448203e+001
4.609515e+002,1.503702e+001
4.619157e+002,1.515662e+001
4.628800e+002,1.551210e+001
4.638442e+002,1.679845e+001
4.648084e+002,1.937910e+001
4.657727e+002,2.184623e+001
4.667369e+002,2.523544e+001
4.677011e+002,2.782002e+001
4.686654e+002,2.819768e+001
4.696296e+002,2.586337e+001
4.705938e+002,2.288449e+001
4.715581e+002,2.039405e+001
4.725223e+002,1.824149e+001
4.734865e+002,1.634789e+001
4.744508e+002,1.473197e+001
4.754150e+002,1.352201e+001
4.763792e+002,1.336649e+001
4.773435e+002,1.386768e+001
4.783077e+002,1.397500e+001
4.792719e+002,1.334690e+001
4.802362e+002,1.212288e+001
4.812004e+002,1.096060e+001
4.821646e+002,9.835424e+000
4.831289e+002,8.680102e+000
4.840931e+002,6.601916e+000
4.850573e+002,4.349329e+000
4.860216e+002,4.237494e+000
4.869858e+002,1.028190e+001
4.879500e+002,1.459480e+001
4.889143e+002,1.360301e+001
4.898785e+002,9.406543e+000
4.908427e+002,5.342359e+000
4.918070e+002,3.984143e+000
4.927712e+002,4.633130e+000
4.937354e+002,6.384155e+000
4.946997e+002,8.624341e+000
4.956639e+002,9.657641e+000
4.966281e+002,7.685681e+000
4.975924e+002,2.334405e+000
4.985566e+002,-1.392212e-001
4.995208e+002,8.990113e-001
5.004851e+002,2.875934e+000
5.014493e+002,4.098114e+000
5.024135e+002,4.452423e+000
5.033778e+002,4.622766e+000
5.043420e+002,4.209192e+000
5.053063e+002,4.299731e+000
5.062705e+002,6.106482e+000
5.072347e+002,9.509363e+000
5.081990e+002,1.180941e+001
5.091632e+002,8.346448e+000
5.101274e+002,3.925342e+000
5.110917e+002,1.257941e+000
5.120559e+002,9.851257e-001
5.130201e+002,2.344525e+000
5.139844e+002,4.163037e+000
5.149486e+002,6.261157e+000
5.159128e+002,7.519300e+000
5.168771e+002,7.799506e+000
5.178413e+002,7.263263e+000
5.188055e+002,6.163764e+000
5.197698e+002,3.679663e+000
5.207340e+002,1.878876e+000
5.216982e+002,1.123810e+000
5.226625e+002,8.366150e-001
5.236267e+002,1.825745e-001
5.245909e+002,-1.548798e+000
5.255552e+002,-2.187744e+000
5.265194e+002,2.710571e-001
5.274836e+002,3.510138e+000
5.284479e+002,5.664148e+000
5.294121e+002,5.691516e+000
5.303763e+002,4.165240e+000
5.313406e+002,1.003815e+000
5.323048e+002,-2.772925e+000
5.332690e+002,-4.530805e+000
5.342333e+002,-2.868201e+000
5.351975e+002,1.631683e+000
5.361617e+002,4.138452e+000
5.371260e+002,3.349762e+000
5.380902e+002,2.738855e+000
5.390544e+002,2.957477e+000
5.400187e+002,3.713275e+000
5.409829e+002,4.198493e+000
5.419471e+002,4.378821e+000
5.429114e+002,4.190137e+000
5.438756e+002,3.412994e+000
5.448398e+002,2.274756e+000
5.458041e+002,1.034851e+000
5.467683e+002,-2.070984e-001
5.477325e+002,-1.120197e+000
5.486968e+002,-1.428448e+000
5.496610e+002,-1.229559e+000
5.506252e+002,-4.747742e-001
5.515895e+002,8.847351e-001
5.525537e+002,2.787476e+000
5.535179e+002,2.358484e+000
5.544822e+002,-1.045673e+000
5.554464e+002,-3.934998e+000
5.564106e+002,-4.321033e+000
5.573749e+002,-2.208642e+000
5.583391e+002,-5.983032e-001
5.593033e+002,5.813659e-001
5.602676e+002,8.898315e-001
5.612318e+002,-8.338073e-001
5.621960e+002,-3.723395e+000
5.631603e+002,-5.235834e+000
5.641245e+002,-2.082678e+000
5.650887e+002,1.447784e+000
5.660530e+002,1.250012e+000
5.670172e+002,-1.600952e+000
5.679814e+002,-4.393170e+000
5.689457e+002,-4.191583e+000
5.699099e+002,-1.156122e+000
5.708741e+002,1.031488e+000
5.718384e+002,2.522473e+000
5.728026e+002,3.228668e+000
5.737668e+002,2.737518e+000
5.747311e+002,5.909790e-001
5.756953e+002,-5.669800e-001
5.766595e+002,-4.534302e-002
5.776238e+002,6.047851e-001
5.785880e+002,1.025024e+000
5.795522e+002,1.092572e+000
5.805165e+002,5.824097e-001
5.814807e+002,-1.406415e+000
5.824449e+002,-3.322754e+000
5.834092e+002,-4.436627e+000
5.843734e+002,-4.752606e+000
5.853376e+002,-4.553430e+000
5.863019e+002,-4.114892e+000
5.872661e+002,-3.419427e+000
5.882303e+002,-2.538153e+000
5.891946e+002,-1.449585e+000
5.901588e+002,-3.919128e-001
5.911230e+002,3.812683e-001
5.920873e+002,8.062744e-001
5.930515e+002,1.063702e+000
5.940157e+002,1.567725e+000
5.949800e+002,1.628479e+000
5.959442e+002,3.835510e-001
5.969084e+002,-2.105481e+000
5.978727e+002,-3.700488e+000
5.988369e+002,-1.451447e+000
5.998011e+002,5.678467e-001
6.007654e+002,4.231262e-001
6.017296e+002,-1.624426e+000
6.026938e+002,-4.249585e+000
6.036581e+002,-6.296759e+000
6.046223e+002,-7.324213e+000
6.055865e+002,-6.287866e+000
6.065508e+002,-3.340863e+000
6.075150e+002,-4.374878e-001
6.084792e+002,2.171753e-001
6.094435e+002,-2.040619e+000
6.104077e+002,-3.090582e+000
6.113719e+002,-2.173834e+000
6.123362e+002,-1.334759e+000
6.133004e+002,-1.997772e+000
6.142646e+002,-4.163922e+000
6.152289e+002,-5.417822e+000
6.161931e+002,-3.419263e+000
6.171573e+002,-1.524976e+000
6.181216e+002,-1.066479e+000
6.190858e+002,-1.736487e+000
6.200500e+002,-2.406213e+000
6.210143e+002,-2.068347e+000
6.219785e+002,-1.027802e+000
6.229427e+002,2.087280e-001
6.239070e+002,1.485944e+000
6.248712e+002,2.240350e+000
6.258354e+002,1.918079e+000
6.267997e+002,4.370361e-001
6.277639e+002,-4.807373e-001
6.287281e+002,-5.464905e-001
6.296924e+002,-7.984253e-001
6.306566e+002,-2.278229e+000
6.316208e+002,-4.751343e+000
6.325851e+002,-5.613855e+000
6.335493e+002,-2.087646e+000
6.345135e+002,1.459143e+000
6.354778e+002,4.252417e+000
6.364420e+002,6.024176e+000
6.374063e+002,6.556750e+000
6.383705e+002,5.369989e+000
6.393347e+002,3.503052e+000
6.402990e+002,2.991327e+000
6.412632e+002,3.366681e+000
6.422274e+002,3.321301e+000
6.431917e+002,1.819159e+000
6.441559e+002,-1.032812e+000
6.451201e+002,-1.698529e+000
6.460844e+002,1.028326e+000
6.470486e+002,3.159271e+000
6.480128e+002,3.149304e+000
6.489771e+002,1.510345e+000
6.499413e+002,3.954163e-001
6.509055e+002,5.008972e-001
6.518698e+002,7.449768e-001
6.528340e+002,7.771423e-001
6.537982e+002,8.479309e-001
6.547625e+002,1.424567e+000
6.557267e+002,2.848578e+000
6.566909e+002,4.286542e+000
6.576552e+002,4.254028e+000
6.586194e+002,3.471930e+000
6.595836e+002,3.148157e+000
6.605479e+002,3.882379e+000
6.615121e+002,5.258722e+000
6.624763e+002,5.314178e+000
6.634406e+002,3.294354e+000
6.644048e+002,1.838287e+000
6.653690e+002,1.372516e+000
6.663333e+002,1.516693e+000
6.672975e+002,1.700122e+000
6.682617e+002,2.112903e+000
6.692260e+002,2.306067e+000
6.701902e+002,1.788318e+000
6.711544e+002,1.306873e+000
6.721187e+002,1.759045e+000
6.730829e+002,3.332172e+000
6.740471e+002,4.646564e+000
6.750114e+002,2.718256e+000
6.759756e+002,7.061767e-003
6.769398e+002,-6.959229e-001
6.779041e+002,1.066333e+000
6.788683e+002,3.910083e+000
6.798325e+002,5.362762e+000
6.807968e+002,5.058246e+000
6.817610e+002,4.109265e+000
6.827252e+002,1.745526e+000
6.836895e+002,-6.074158e-001
6.846537e+002,-1.611072e+000
6.856179e+002,-1.046899e+000
6.865822e+002,-4.540466e-001
6.875464e+002,3.692627e-002
6.885106e+002,2.823609e-001
6.894749e+002,-1.106934e-001
6.904391e+002,-8.804199e-001
6.914034e+002,-1.160492e+000
6.923676e+002,1.802734e-001
6.933318e+002,2.064233e+000
6.942961e+002,3.004864e+000
6.952603e+002,3.089429e+000
6.962245e+002,2.686304e+000
6.971888e+002,2.098480e+000
6.981530e+002,1.290259e+000
6.991172e+002,8.716614e-001
7.000815e+002,9.573120e-001
7.010457e+002,1.036273e+000
7.020099e+002,1.051764e+000
7.029742e+002,1.010126e+000
7.039384e+002,7.298462e-001
7.049026e+002,-4.556213e-001
7.058669e+002,-1.068329e+000
7.068311e+002,-3.020996e-001
7.077953e+002,1.034485e+000
7.087596e+002,1.937085e+000
7.097238e+002,1.885016e+000
7.106880e+002,1.559070e+000
7.116523e+002,2.207727e+000
7.126165e+002,3.165118e+000
7.135807e+002,3.419055e+000
7.145450e+002,2.624390e+000
7.155092e+002,1.245917e+000
7.164734e+002,4.722900e-001
7.174377e+002,5.937500e-001
7.184019e+002,8.280212e-001
7.193661e+002,1.559906e+000
7.203304e+002,2.083612e+000
7.212946e+002,1.388782e+000
7.222589e+002,-9.956115e-001
7.232231e+002,-2.496240e+000
7.241873e+002,-1.896100e+000
7.251516e+002,-6.378845e-001
7.261158e+002,7.198669e-001
7.270800e+002,1.964899e+000
7.280443e+002,3.142432e+000
7.290085e+002,4.401038e+000
7.299727e+002,5.545514e+000
7.309370e+002,6.256085e+000
7.319012e+002,6.546557e+000
7.328654e+002,6.516486e+000
7.338297e+002,6.259918e+000
7.347939e+002,5.778687e+000
7.357581e+002,4.684485e+000
7.367224e+002,1.662012e+000
7.376866e+002,-2.471497e-001
7.386508e+002,6.789795e-001
7.396151e+002,3.335706e+000
7.405793e+002,4.583594e+000
7.415435e+002,2.856818e+000
7.425078e+002,8.752747e-001
7.434720e+002,-5.999328e-001
7.444362e+002,-1.537665e+000
7.454005e+002,-1.877722e+000
7.463647e+002,-1.609747e+000
7.473289e+002,-8.477905e-001
7.482932e+002,7.015015e-001
7.492574e+002,2.605957e+000
7.502216e+002,3.627472e+000
7.511859e+002,3.449799e+000
7.521501e+002,2.188037e+000
7.531143e+002,-1.252869e-001
7.540786e+002,-4.770606e+000
7.550428e+002,-6.972436e+000
7.560070e+002,-5.751196e+000
7.569713e+002,-3.638153e+000
7.579355e+002,-1.776062e+000
7.588997e+002,-3.701294e-001
7.598640e+002,3.738526e-001
7.608282e+002,-5.055298e-001
7.617924e+002,-1.195587e+000
7.627567e+002,-7.959900e-001
7.637209e+002,5.325012e-001
7.646851e+002,2.301135e+000
7.656494e+002,4.107196e+000
7.666136e+002,6.105487e+000
7.675778e+002,9.800677e+000
7.685421e+002,1.492168e+001
7.695063e+002,1.777216e+001
7.704705e+002,1.633760e+001
7.714348e+002,1.149857e+001
7.723990e+002,6.648364e+000
7.733632e+002,7.055176e-001
7.743275e+002,-3.385040e+000
7.752917e+002,-5.029639e+000
7.762559e+002,-5.148859e+000
7.772202e+002,-3.999420e+000
7.781844e+002,-1.664185e+000
7.791486e+002,1.133301e-001
7.801129e+002,-9.634339e-001
7.810771e+002,-2.822101e+000
7.820413e+002,-4.464887e+000
7.830056e+002,-5.546557e+000
7.839698e+002,-5.867047e+000
7.849340e+002,-5.163275e+000
7.858983e+002,-3.485541e+000
7.868625e+002,-2.291595e+000
7.878267e+002,-1.525476e+000
7.887910e+002,-1.258606e+000
7.897552e+002,-1.972223e+000
7.907194e+002,-3.424335e+000
7.916837e+002,-3.678027e+000
7.926479e+002,-8.621582e-001
7.936121e+002,8.391724e-001
7.945764e+002,-3.024292e-002
7.955406e+002,-2.064679e+000
7.965048e+002,-3.918146e+000
7.974691e+002,-5.015149e+000
7.984333e+002,-5.191913e+000
7.993975e+002,-3.016370e+000
8.003618e+002,-3.510437e-001
8.013260e+002,4.497498e-001
8.022902e+002,-9.060364e-001
8.032545e+002,-2.843689e+000
8.042187e+002,-2.967822e+000
8.051829e+002,-7.838684e-001
8.061472e+002,6.483825e-001
8.071114e+002,1.177252e+000
8.080756e+002,1.241949e+000
8.090399e+002,8.328857e-001
8.100041e+002,7.876587e-002
8.109683e+002,-2.568115e-001
8.119326e+002,4.924316e-001
8.128968e+002,1.027234e+000
8.138610e+002,4.917786e-001
8.148253e+002,-3.594849e-001
8.157895e+002,-4.950134e-001
8.167537e+002,5.718139e-001
8.177180e+002,2.148968e+000
8.186822e+002,3.050897e+000
8.196464e+002,3.482318e+000
8.206107e+002,3.655859e+000
8.215749e+002,3.543414e+000
8.225391e+002,3.589801e+000
8.235034e+002,4.641144e+000
8.244676e+002,7.319293e+000
8.254318e+002,8.946759e+000
8.263961e+002,9.387726e+000
8.273603e+002,9.439038e+000
8.283245e+002,9.421832e+000
8.292888e+002,9.279963e+000
8.302530e+002,8.686340e+000
8.312172e+002,7.111352e+000
8.321815e+002,5.679053e+000
8.331457e+002,5.271991e+000
8.341099e+002,5.463348e+000
8.350742e+002,5.666754e+000
8.360384e+002,5.580041e+000
8.370026e+002,5.399676e+000
8.379669e+002,5.729761e+000
8.389311e+002,6.566058e+000
8.398953e+002,6.235498e+000
8.408596e+002,4.084790e+000
8.418238e+002,1.367822e+000
8.427880e+002,-4.859497e-001
8.437523e+002,-1.367035e+000
8.447165e+002,-1.861163e+000
8.456807e+002,-1.831683e+000
8.466450e+002,-1.659125e+000
8.476092e+002,-1.308563e+000
8.485734e+002,-9.801453e-001
8.495377e+002,-1.096722e+000
8.505019e+002,-2.022839e+000
8.514661e+002,-2.925806e+000
8.524304e+002,-2.340668e+000
8.533946e+002,-1.091034e+000
8.543588e+002,-5.110718e-001
8.553231e+002,-1.101141e+000
8.562873e+002,-2.387707e+000
8.572515e+002,-3.354926e+000
8.582158e+002,-4.099359e+000
8.591800e+002,-3.978748e+000
8.601442e+002,-2.180804e+000
8.611085e+002,-4.699707e-001
8.620727e+002,5.738525e-002
8.630369e+002,-5.494751e-001
8.640012e+002,-1.608209e+000
8.649654e+002,-3.762598e+000
8.659296e+002,-5.301355e+000
8.668939e+002,-5.242822e+000
8.678581e+002,-4.223236e+000
8.688223e+002,-2.999994e+000
8.697866e+002,-2.011682e+000
8.707508e+002,-1.288684e+000
8.717150e+002,-1.014606e+000
8.726793e+002,-1.115320e+000
8.736435e+002,-1.192657e+000
8.746077e+002,-1.137494e+000
8.755720e+002,-1.152789e+000
8.765362e+002,-1.532147e+000
8.775004e+002,-2.353668e+000
8.784647e+002,-3.184308e+000
8.794289e+002,-4.567163e+000
8.803931e+002,-5.375745e+000
8.813574e+002,-4.802386e+000
8.823216e+002,-3.477521e+000
8.832858e+002,-2.642273e+000
8.842501e+002,-2.880566e+000
8.852143e+002,-3.473938e+000
8.861785e+002,-3.522772e+000
8.871428e+002,-3.609418e+000
8.881070e+002,-4.844629e+000
8.890712e+002,-7.292456e+000
8.900355e+002,-9.570386e+000
8.909997e+002,-9.376215e+000
8.919639e+002,-6.178369e+000
8.929282e+002,-4.271246e+000
8.938924e+002,-4.073730e+000
8.948566e+002,-4.357147e+000
8.958209e+002,-4.591205e+000
8.967851e+002,-4.814209e+000
8.977493e+002,-5.314087e+000
8.987136e+002,-6.832452e+000
8.996778e+002,-7.460077e+000
9.006420e+002,-5.674536e+000
9.016063e+002,-3.317542e+000
9.025705e+002,-1.983771e+000
9.035347e+002,-2.159943e+000
9.044990e+002,-3.351538e+000
9.054632e+002,-5.386426e+000
9.064274e+002,-7.755591e+000
9.073917e+002,-8.285975e+000
9.083559e+002,-6.841748e+000
9.093201e+002,-5.163379e+000
9.102844e+002,-4.654694e+000
9.112486e+002,-5.246405e+000
9.122128e+002,-5.416473e+000
9.131771e+002,-4.738074e+000
9.141413e+002,-4.150671e+000
9.151055e+002,-3.404425e+000
9.160698e+002,-2.968268e+000
9.170340e+002,-3.622967e+000
9.179982e+002,-5.484046e+000
9.189625e+002,-7.118799e+000
9.199267e+002,-7.207312e+000
9.208909e+002,-6.499243e+000
9.218552e+002,-5.504596e+000
9.228194e+002,-4.362128e+000
9.237836e+002,-3.209827e+000
9.247479e+002,-2.160565e+000
9.257121e+002,-1.261621e+000
9.266763e+002,-7.964478e-001
9.276406e+002,-6.676391e-001
9.286048e+002,-1.293365e+000
9.295690e+002,-3.557886e+000
9.305333e+002,-6.058783e+000
9.314975e+002,-7.179083e+000
9.324617e+002,-6.709283e+000
9.334260e+002,-5.866034e+000
9.343902e+002,-4.761969e+000
9.353545e+002,-3.740021e+000
9.363187e+002,-3.013672e+000
9.372830e+002,-2.476556e+000
9.382472e+002,-1.801074e+000
9.392114e+002,-7.755249e-001
9.401757e+002,2.529236e-001
9.411399e+002,5.243530e-002
9.421041e+002,-1.177740e+000
9.430684e+002,-1.658807e+000
9.440326e+002,-8.987915e-001
9.449968e+002,2.317566e-001
9.459611e+002,7.109680e-001
9.469253e+002,5.240906e-001
9.478895e+002,2.594727e-001
9.488538e+002,-1.673889e-001
9.498180e+002,-6.035034e-001
9.507822e+002,-1.215137e+000
9.517465e+002,-1.776483e+000
9.527107e+002,-1.860596e+000
9.536749e+002,-1.262366e+000
9.546392e+002,-5.442078e-001
9.556034e+002,-7.744080e-001
9.565676e+002,-1.208063e+000
9.575319e+002,-5.853943e-001
9.584961e+002,1.145306e+000
9.594603e+002,2.940411e+000
9.604246e+002,3.707263e+000
9.613888e+002,3.413959e+000
9.623530e+002,2.444519e+000
9.633173e+002,-1.252795e+000
9.642815e+002,-2.823102e+000
9.652457e+002,-6.173096e-002
9.662100e+002,4.375262e+000
9.671742e+002,6.776385e+000
9.681384e+002,6.259595e+000
9.691027e+002,6.744208e+000
9.700669e+002,7.113983e+000
9.710311e+002,1.287577e+001
9.719954e+002,3.244193e+001
9.729596e+002,6.055782e+001
9.739238e+002,8.702837e+001
9.748881e+002,1.046221e+002
9.758523e+002,1.119205e+002
9.768165e+002,1.018045e+002
9.777808e+002,6.969216e+001
9.787450e+002,4.460768e+001
9.797092e+002,3.146032e+001
9.806735e+002,2.464337e+001
9.816377e+002,1.938636e+001
9.826019e+002,1.570358e+001
9.835662e+002,1.396442e+001
9.845304e+002,1.662140e+001
9.854946e+002,1.859235e+001
9.864589e+002,1.753556e+001
9.874231e+002,1.511091e+001
9.883873e+002,1.334468e+001
9.893516e+002,1.300811e+001
9.903158e+002,1.342813e+001
9.912800e+002,1.378053e+001
9.922443e+002,1.431464e+001
9.932085e+002,1.524719e+001
9.941727e+002,1.650689e+001
9.951370e+002,1.929160e+001
9.961012e+002,2.412153e+001
9.970654e+002,3.093370e+001
9.980297e+002,3.944991e+001
9.989939e+002,3.994110e+001
9.999581e+002,6.077855e+001
1.000922e+003,1.030378e+002
1.001887e+003,1.658902e+002
1.002851e+003,2.779852e+002
1.003815e+003,4.193625e+002
1.004779e+003,5.046365e+002
1.005744e+003,4.617640e+002
1.006708e+003,3.506375e+002
1.007672e+003,2.533584e+002
1.008636e+003,1.709218e+002
1.009600e+003,1.113934e+002
1.010565e+003,7.860934e+001
1.011529e+003,6.401842e+001
1.012493e+003,5.154647e+001
1.013457e+003,4.138832e+001
1.014422e+003,3.382877e+001
1.015386e+003,2.962864e+001
1.016350e+003,2.640063e+001
1.017314e+003,2.310385e+001
1.018279e+003,2.003705e+001
1.019243e+003,1.820830e+001
1.020207e+003,1.822722e+001
1.021171e+003,1.829399e+001
1.022135e+003,1.651417e+001
1.023100e+003,1.435356e+001
1.024064e+003,1.303013e+001
1.025028e+003,1.257519e+001
1.025992e+003,1.240190e+001
1.026957e+003,1.200306e+001
1.027921e+003,1.147668e+001
1.028885e+003,1.121536e+001
1.029849e+003,1.109709e+001
1.030814e+003,1.156497e+001
1.031778e+003,1.321077e+001
1.032742e+003,1.486476e+001
1.033706e+003,1.523026e+001
1.034671e+003,1.435447e+001
1.035635e+003,1.405516e+001
1.036599e+003,1.568811e+001
1.037563e+003,1.718268e+001
1.038527e+003,1.750798e+001
1.039492e+003,1.696561e+001
1.040456e+003,1.557044e+001
1.041420e+003,1.361890e+001
1.042384e+003,1.220943e+001
1.043349e+003,1.310548e+001
1.044313e+003,1.625242e+001
1.045277e+003,1.803745e+001
1.046241e+003,1.824534e+001
1.047206e+003,1.795516e+001
1.048170e+003,1.714934e+001
1.049134e+003,1.630653e+001
1.050098e+003,1.683651e+001
1.051063e+003,1.949662e+001
1.052027e+003,2.164747e+001
1.052991e+003,2.171105e+001
1.053955e+003,2.155369e+001
1.054919e+003,2.292349e+001
1.055884e+003,2.485230e+001
1.056848e+003,2.472143e+001
1.057812e+003,2.100476e+001
1.058776e+003,1.608696e+001
1.059741e+003,1.516160e+001
1.060705e+003,1.759912e+001
1.061669e+003,1.879562e+001
1.062633e+003,1.778912e+001
1.063598e+003,1.656093e+001
1.064562e+003,1.729446e+001
1.065526e+003,1.986048e+001
1.066490e+003,2.132810e+001
1.067454e+003,2.064256e+001
1.068419e+003,2.013836e+001
1.069383e+003,2.030352e+001
1.070347e+003,2.069885e+001
1.071311e+003,2.125986e+001
1.072276e+003,2.180107e+001
1.073240e+003,2.175233e+001
1.074204e+003,2.050952e+001
1.075168e+003,1.884421e+001
1.076133e+003,1.877650e+001
1.077097e+003,1.984222e+001
1.078061e+003,2.032349e+001
1.079025e+003,1.950949e+001
1.079990e+003,1.847086e+001
1.080954e+003,1.884579e+001
1.081918e+003,2.086981e+001
1.082882e+003,2.270375e+001
1.083846e+003,2.472852e+001
1.084811e+003,2.589161e+001
1.085775e+003,2.518992e+001
1.086739e+003,2.397578e+001
1.087703e+003,2.402284e+001
1.088668e+003,2.556289e+001
1.089632e+003,2.661735e+001
1.090596e+003,2.482665e+001
1.091560e+003,2.222404e+001
1.092525e+003,2.328766e+001
1.093489e+003,2.710140e+001
1.094453e+003,3.023265e+001
1.095417e+003,3.120353e+001
1.096381e+003,3.059667e+001
1.097346e+003,2.920266e+001
1.098310e+003,2.633418e+001
1.099274e+003,2.514241e+001
1.100238e+003,2.705347e+001
1.101203e+003,2.886655e+001
1.102167e+003,2.953529e+001
1.103131e+003,2.955427e+001
1.104095e+003,2.962697e+001
1.105060e+003,2.994003e+001
1.106024e+003,3.027600e+001
1.106988e+003,3.039999e+001
1.107952e+003,3.068416e+001
1.108917e+003,3.169304e+001
1.109881e+003,3.324337e+001
1.110845e+003,3.471440e+001
1.111809e+003,3.578323e+001
1.112773e+003,3.636292e+001
1.113738e+003,3.623478e+001
1.114702e+003,3.518256e+001
1.115666e+003,3.436782e+001
1.116630e+003,3.365535e+001
1.117595e+003,3.312170e+001
1.118559e+003,3.267754e+001
1.119523e+003,3.248732e+001
1.120487e+003,3.308688e+001
1.121452e+003,3.460870e+001
1.122416e+003,3.565163e+001
1.123380e+003,3.403582e+001
1.124344e+003,3.197777e+001
1.125308e+003,3.317834e+001
1.126273e+003,3.689302e+001
1.127237e+003,3.995971e+001
1.128201e+003,4.066225e+001
1.129165e+003,3.962554e+001
1.130130e+003,3.812037e+001
1.131094e+003,3.549562e+001
1.132058e+003,3.423548e+001
1.133022e+003,3.561118e+001
1.133987e+003,3.658498e+001
1.134951e+003,3.543732e+001
1.135915e+003,3.373092e+001
1.136879e+003,3.424679e+001
1.137844e+003,3.756408e+001
1.138808e+003,4.023832e+001
1.139772e+003,3.867651e+001
1.140736e+003,3.547894e+001
1.141700e+003,3.413467e+001
1.142665e+003,3.451441e+001
1.143629e+003,3.607933e+001
1.144593e+003,3.868254e+001
1.145557e+003,4.145567e+001
1.146522e+003,4.256042e+001
1.147486e+003,4.143457e+001
1.148450e+003,4.026534e+001
1.149414e+003,3.838539e+001
1.150379e+003,3.755904e+001
1.151343e+003,3.918343e+001
1.152307e+003,4.159573e+001
1.153271e+003,4.276885e+001
1.154235e+003,4.226301e+001
1.155200e+003,4.101554e+001
1.156164e+003,3.939727e+001
1.157128e+003,3.809373e+001
1.158092e+003,3.817930e+001
1.159057e+003,3.914540e+001
1.160021e+003,3.958779e+001
1.160985e+003,3.893584e+001
1.161949e+003,3.817130e+001
1.162914e+003,3.890831e+001
1.163878e+003,4.140720e+001
1.164842e+003,4.339487e+001
1.165806e+003,4.445837e+001
1.166771e+003,4.539251e+001
1.167735e+003,4.684075e+001
1.168699e+003,4.780154e+001
1.169663e+003,4.672163e+001
1.170627e+003,4.403045e+001
1.171592e+003,4.232878e+001
1.172556e+003,4.337499e+001
1.173520e+003,4.571162e+001
1.174484e+003,4.757062e+001
1.175449e+003,4.892496e+001
1.176413e+003,4.951610e+001
1.177377e+003,4.926102e+001
1.178341e+003,4.877225e+001
1.179306e+003,4.872461e+001
1.180270e+003,4.910100e+001
1.181234e+003,4.915863e+001
1.182198e+003,4.827429e+001
1.183162e+003,4.805622e+001
1.184127e+003,4.893463e+001
1.185091e+003,5.012023e+001
1.186055e+003,5.151440e+001
1.187019e+003,5.287572e+001
1.187984e+003,5.363948e+001
1.188948e+003,5.349288e+001
1.189912e+003,5.295602e+001
1.190876e+003,5.240277e+001
1.191841e+003,5.218513e+001
1.192805e+003,5.352456e+001
1.193769e+003,5.646564e+001
1.194733e+003,5.848141e+001
1.195698e+003,5.753331e+001
1.196662e+003,5.494775e+001
1.197626e+003,5.446083e+001
1.198590e+003,5.691445e+001
1.199554e+003,5.827416e+001
1.200519e+003,5.699397e+001
1.201483e+003,5.598690e+001
1.202447e+003,5.673965e+001
1.203411e+003,5.798772e+001
1.204376e+003,5.779418e+001
1.205340e+003,5.581338e+001
1.206304e+003,5.352622e+001
1.207268e+003,5.225010e+001
1.208233e+003,5.221622e+001
1.209197e+003,5.414797e+001
1.210161e+003,5.768465e+001
1.211125e+003,6.075798e+001
1.212089e+003,6.295184e+001
1.213054e+003,6.397089e+001
1.214018e+003,6.319618e+001
1.214982e+003,6.091561e+001
1.215946e+003,5.920537e+001
1.216911e+003,5.780927e+001
1.217875e+003,5.772100e+001
1.218839e+003,5.989159e+001
1.219803e+003,6.243141e+001
1.220768e+003,6.432323e+001
1.221732e+003,6.549426e+001
1.222696e+003,6.597766e+001
1.223660e+003,6.581604e+001
1.224625e+003,6.566557e+001
1.225589e+003,6.683455e+001
1.226553e+003,6.926466e+001
1.227517e+003,7.045769e+001
1.228481e+003,6.997742e+001
1.229446e+003,6.963971e+001
1.230410e+003,7.112787e+001
1.231374e+003,7.278679e+001
1.232338e+003,7.119246e+001
1.233303e+003,6.593565e+001
1.234267e+003,6.239387e+001
1.235231e+003,6.326513e+001
1.236195e+003,6.518130e+001
1.237160e+003,6.644462e+001
1.238124e+003,6.735929e+001
1.239088e+003,6.846903e+001
1.240052e+003,6.987671e+001
1.241016e+003,7.130495e+001
1.241981e+003,7.248545e+001
1.242945e+003,7.328310e+001
1.243909e+003,7.309630e+001
1.244873e+003,7.116968e+001
1.245838e+003,7.032884e+001
1.246802e+003,7.115194e+001
1.247766e+003,7.235899e+001
1.248730e+003,7.343323e+001
1.249695e+003,7.430769e+001
1.250659e+003,7.487124e+001
1.251623e+003,7.508761e+001
1.252587e+003,7.530094e+001
1.253552e+003,7.613251e+001
1.254516e+003,7.657246e+001
1.255480e+003,7.495634e+001
1.256444e+003,7.230605e+001
1.257408e+003,7.122548e+001
1.258373e+003,7.269828e+001
1.259337e+003,7.504777e+001
1.260301e+003,7.591066e+001
1.261265e+003,7.532784e+001
1.262230e+003,7.542967e+001
1.263194e+003,7.686510e+001
1.264158e+003,7.766743e+001
1.265122e+003,7.711904e+001
1.266087e+003,7.656437e+001
1.267051e+003,7.728233e+001
1.268015e+003,7.877980e+001
1.268979e+003,7.939595e+001
1.269943e+003,7.841437e+001
1.270908e+003,7.749092e+001
1.271872e+003,7.857426e+001
1.272836e+003,8.088680e+001
1.273800e+003,8.268884e+001
1.274765e+003,8.394325e+001
1.275729e+003,8.440700e+001
1.276693e+003,8.375053e+001
1.277657e+003,8.262643e+001
1.278622e+003,8.189667e+001
1.279586e+003,8.150539e+001
1.280550e+003,8.166062e+001
1.281514e+003,8.331783e+001
1.282479e+003,8.443363e+001
1.283443e+003,8.362158e+001
1.284407e+003,8.274911e+001
1.285371e+003,8.340779e+001
1.286335e+003,8.518291e+001
1.287300e+003,8.675729e+001
1.288264e+003,8.749104e+001
1.289228e+003,8.773634e+001
1.290192e+003,8.793717e+001
1.291157e+003,8.805798e+001
1.292121e+003,8.771545e+001
1.293085e+003,8.630489e+001
1.294049e+003,8.573075e+001
1.295014e+003,8.771815e+001
1.295978e+003,9.031571e+001
1.296942e+003,9.083976e+001
1.297906e+003,8.951831e+001
1.298870e+003,8.921446e+001
1.299835e+003,9.119558e+001
1.300799e+003,9.286150e+001
1.301763e+003,9.168816e+001
1.302727e+003,9.003380e+001
1.303692e+003,9.043504e+001
1.304656e+003,9.266666e+001
1.305620e+003,9.485439e+001
1.306584e+003,9.584328e+001
1.307549e+003,9.605956e+001
1.308513e+003,9.639189e+001
1.309477e+003,9.685887e+001
1.310441e+003,9.671291e+001
1.311406e+003,9.521049e+001
1.312370e+003,9.437703e+001
1.313334e+003,9.519625e+001
1.314298e+003,9.622774e+001
1.315263e+003,9.572969e+001
1.316227e+003,9.433264e+001
1.317191e+003,9.474507e+001
1.318155e+003,9.828479e+001
1.319120e+003,1.016766e+002
1.320084e+003,1.006973e+002
1.321048e+003,9.736301e+001
1.322012e+003,9.642944e+001
1.322976e+003,9.780688e+001
1.323941e+003,9.903697e+001
1.324905e+003,9.899593e+001
1.325869e+003,9.860476e+001
1.326833e+003,9.928660e+001
1.327798e+003,1.009867e+002
1.328762e+003,1.019750e+002
1.329726e+003,1.017514e+002
1.330690e+003,1.013365e+002
1.331655e+003,1.009638e+002
1.332619e+003,1.006358e+002
1.333583e+003,1.004112e+002
1.334547e+003,1.002083e+002
1.335511e+003,9.962814e+001
1.336476e+003,9.865334e+001
1.337440e+003,9.824641e+001
1.338404e+003,9.970103e+001
1.339368e+003,1.028151e+002
1.340333e+003,1.054442e+002
1.341297e+003,1.076139e+002
1.342261e+003,1.090325e+002
1.343225e+003,1.101079e+002
1.344190e+003,1.100470e+002
1.345154e+003,1.069544e+002
1.346118e+003,1.025845e+002
1.347082e+003,1.014019e+002
1.348047e+003,1.044993e+002
1.349011e+003,1.078814e+002
1.349975e+003,1.094264e+002
1.350939e+003,1.099117e+002
1.351903e+003,1.104690e+002
1.352868e+003,1.106646e+002
1.353832e+003,1.089620e+002
1.354796e+003,1.051476e+002
1.355760e+003,1.024209e+002
1.356725e+003,1.042779e+002
1.357689e+003,1.094264e+002
1.358653e+003,1.118356e+002
1.359617e+003,1.104151e+002
1.360582e+003,1.093500e+002
1.361546e+003,1.087902e+002
1.362510e+003,1.087706e+002
1.363474e+003,1.100386e+002
1.364438e+003,1.116193e+002
1.365403e+003,1.123441e+002
1.366367e+003,1.120423e+002
1.367331e+003,1.109983e+002
1.368295e+003,1.094079e+002
1.369260e+003,1.084840e+002
1.370224e+003,1.109036e+002
1.371188e+003,1.167196e+002
1.372152e+003,1.195036e+002
1.373117e+003,1.178975e+002
1.374081e+003,1.164934e+002
1.375045e+003,1.172200e+002
1.376009e+003,1.187146e+002
1.376974e+003,1.198306e+002
1.377938e+003,1.204801e+002
1.378902e+003,1.199515e+002
1.379866e+003,1.174342e+002
1.380830e+003,1.155104e+002
1.381795e+003,1.167557e+002
1.382759e+003,1.188892e+002
1.383723e+003,1.205936e+002
1.384687e+003,1.214982e+002
1.385652e+003,1.202158e+002
1.386616e+003,1.163176e+002
1.387580e+003,1.131200e+002
1.388544e+003,1.151345e+002
1.389509e+003,1.215292e+002
1.390473e+003,1.247233e+002
1.391437e+003,1.232277e+002
1.392401e+003,1.222023e+002
1.393365e+003,1.221168e+002
1.394330e+003,1.222721e+002
1.395294e+003,1.223072e+002
1.396258e+003,1.223239e+002
1.397222e+003,1.228811e+002
1.398187e+003,1.239555e+002
1.399151e+003,1.245782e+002
1.400115e+003,1.239225e+002
1.401079e+003,1.228455e+002
1.402044e+003,1.231698e+002
1.403008e+003,1.249613e+002
1.403972e+003,1.268268e+002
1.404936e+003,1.292113e+002
1.405901e+003,1.309013e+002
1.406865e+003,1.314218e+002
1.407829e+003,1.310238e+002
1.408793e+003,1.292301e+002
1.409757e+003,1.267222e+002
1.410722e+003,1.264307e+002
1.411686e+003,1.294296e+002
1.412650e+003,1.320929e+002
1.413614e+003,1.315119e+002
1.414579e+003,1.300161e+002
1.415543e+003,1.299841e+002
1.416507e+003,1.312144e+002
1.417471e+003,1.331730e+002
1.418436e+003,1.355943e+002
1.419400e+003,1.372997e+002
1.420364e+003,1.369831e+002
1.421328e+003,1.353140e+002
1.422292e+003,1.345973e+002
1.423257e+003,1.347397e+002
1.424221e+003,1.356520e+002
1.425185e+003,1.389243e+002
1.426149e+003,1.408213e+002
1.427114e+003,1.391374e+002
1.428078e+003,1.369433e+002
1.429042e+003,1.368758e+002
1.430006e+003,1.388312e+002
1.430971e+003,1.417475e+002
1.431935e+003,1.449414e+002
1.432899e+003,1.474894e+002
1.433863e+003,1.480040e+002
1.434828e+003,1.467798e+002
1.435792e+003,1.464256e+002
1.436756e+003,1.467159e+002
1.437720e+003,1.475882e+002
1.438684e+003,1.500297e+002
1.439649e+003,1.523675e+002
1.440613e+003,1.538372e+002
1.441577e+003,1.545067e+002
1.442541e+003,1.543250e+002
1.443506e+003,1.532575e+002
1.444470e+003,1.516511e+002
1.445434e+003,1.496096e+002
1.446398e+003,1.480400e+002
1.447363e+003,1.483181e+002
1.448327e+003,1.498371e+002
1.449291e+003,1.513438e+002
1.450255e+003,1.528159e+002
1.451219e+003,1.539937e+002
1.452184e+003,1.544502e+002
1.453148e+003,1.547709e+002
1.454112e+003,1.561111e+002
1.455076e+003,1.581157e+002
1.456041e+003,1.583440e+002
1.457005e+003,1.558222e+002
1.457969e+003,1.546034e+002
1.458933e+003,1.579512e+002
1.459898e+003,1.614306e+002
1.460862e+003,1.621064e+002
1.461826e+003,1.610385e+002
1.462790e+003,1.593610e+002
1.463755e+003,1.578079e+002
1.464719e+003,1.581530e+002
1.465683e+003,1.618899e+002
1.466647e+003,1.669642e+002
1.467611e+003,1.682295e+002
1.468576e+003,1.648147e+002
1.469540e+003,1.635089e+002
1.470504e+003,1.667177e+002
1.471468e+003,1.686355e+002
1.472433e+003,1.670855e+002
1.473397e+003,1.654553e+002
1.474361e+003,1.658656e+002
1.475325e+003,1.676876e+002
1.476290e+003,1.701931e+002
1.477254e+003,1.726271e+002
1.478218e+003,1.732570e+002
1.479182e+003,1.706857e+002
1.480146e+003,1.666816e+002
1.481111e+003,1.651687e+002
1.482075e+003,1.663419e+002
1.483039e+003,1.672634e+002
1.484003e+003,1.683953e+002
1.484968e+003,1.685092e+002
1.485932e+003,1.662007e+002
1.486896e+003,1.641951e+002
1.487860e+003,1.653374e+002
1.488825e+003,1.682206e+002
1.489789e+003,1.691538e+002
1.490753e+003,1.673831e+002
1.491717e+003,1.660672e+002
1.492682e+003,1.675379e+002
1.493646e+003,1.700489e+002
1.494610e+003,1.706880e+002
1.495574e+003,1.699648e+002
1.496538e+003,1.695917e+002
1.497503e+003,1.698791e+002
1.498467e+003,1.698069e+002
1.499431e+003,1.677710e+002
1.500395e+003,1.658039e+002
1.501360e+003,1.675073e+002
1.502324e+003,1.719903e+002
1.503288e+003,1.739231e+002
1.504252e+003,1.717262e+002
1.505217e+003,1.702030e+002
1.506181e+003,1.730295e+002
1.507145e+003,1.757220e+002
1.508109e+003,1.739527e+002
1.509073e+003,1.700430e+002
1.510038e+003,1.673921e+002
1.511002e+003,1.666148e+002
1.511966e+003,1.672638e+002
1.512930e+003,1.693585e+002
1.513895e+003,1.718060e+002
1.514859e+003,1.722620e+002
1.515823e+003,1.706181e+002
1.516787e+003,1.701526e+002
1.517752e+003,1.720296e+002
1.518716e+003,1.728676e+002
1.519680e+003,1.705468e+002
1.520644e+003,1.680936e+002
1.521609e+003,1.670640e+002
1.522573e+003,1.665260e+002
1.523537e+003,1.648938e+002
1.524501e+003,1.626739e+002
1.525465e+003,1.623736e+002
1.526430e+003,1.651947e+002
1.527394e+003,1.684024e+002
1.528358e+003,1.677004e+002
1.529322e+003,1.634408e+002
1.530287e+003,1.619430e+002
1.531251e+003,1.659852e+002
1.532215e+003,1.676026e+002
1.533179e+003,1.650066e+002
1.534144e+003,1.620448e+002
1.535108e+003,1.588743e+002
1.536072e+003,1.569682e+002
1.537036e+003,1.592339e+002
1.538000e+003,1.640436e+002
1.538965e+003,1.661638e+002
1.539929e+003,1.634066e+002
1.540893e+003,1.593628e+002
1.541857e+003,1.582397e+002
1.542822e+003,1.594237e+002
1.543786e+003,1.596969e+002
1.544750e+003,1.585672e+002
1.545714e+003,1.576007e+002
1.546679e+003,1.565386e+002
1.547643e+003,1.558205e+002
1.548607e+003,1.559903e+002
1.549571e+003,1.564745e+002
1.550536e+003,1.568343e+002
1.551500e+003,1.567112e+002
1.552464e+003,1.555412e+002
1.553428e+003,1.533837e+002
1.554392e+003,1.513592e+002
1.555357e+003,1.502096e+002
1.556321e+003,1.495827e+002
1.557285e+003,1.490529e+002
1.558249e+003,1.487154e+002
1.559214e+003,1.484217e+002
1.560178e+003,1.479779e+002
1.561142e+003,1.482213e+002
1.562106e+003,1.501671e+002
1.563071e+003,1.518631e+002
1.564035e+003,1.521600e+002
1.564999e+003,1.510493e+002
1.565963e+003,1.474703e+002
1.566927e+003,1.415087e+002
1.567892e+003,1.376374e+002
1.568856e+003,1.384793e+002
1.569820e+003,1.409843e+002
1.570784e+003,1.422112e+002
1.571749e+003,1.422619e+002
1.572713e+003,1.413605e+002
1.573677e+003,1.396256e+002
1.574641e+003,1.379605e+002
1.575606e+003,1.367061e+002
1.576570e+003,1.351264e+002
1.577534e+003,1.322924e+002
1.578498e+003,1.290813e+002
1.579463e+003,1.270457e+002
1.580427e+003,1.261697e+002
1.581391e+003,1.259456e+002
1.582355e+003,1.265188e+002
1.583319e+003,1.266834e+002
1.584284e+003,1.251799e+002
1.585248e+003,1.235246e+002
1.586212e+003,1.240130e+002
1.587176e+003,1.253814e+002
1.588141e+003,1.244176e+002
1.589105e+003,1.206202e+002
1.590069e+003,1.168101e+002
1.591033e+003,1.142212e+002
1.591998e+003,1.130123e+002
1.592962e+003,1.143551e+002
1.593926e+003,1.175058e+002
1.594890e+003,1.182466e+002
1.595854e+003,1.159082e+002
1.596819e+003,1.133940e+002
1.597783e+003,1.113509e+002
1.598747e+003,1.097831e+002
1.599711e+003,1.089286e+002
1.600676e+003,1.083541e+002
1.601640e+003,1.078678e+002
1.602604e+003,1.073517e+002
1.603568e+003,1.059641e+002
1.604533e+003,1.031785e+002
1.605497e+003,1.010044e+002
1.606461e+003,1.021173e+002
1.607425e+003,1.051075e+002
1.608390e+003,1.061208e+002
1.609354e+003,1.052231e+002
1.610318e+003,1.036093e+002
1.611282e+003,1.007699e+002
1.612246e+003,9.831834e+001
1.613211e+003,9.749139e+001
1.614175e+003,9.685665e+001
1.615139e+003,9.571769e+001
1.616103e+003,9.416217e+001
1.617068e+003,9.203822e+001
1.618032e+003,8.950802e+001
1.618996e+003,8.754948e+001
1.619960e+003,8.671481e+001
1.620925e+003,8.623341e+001
1.621889e+003,8.520119e+001
1.622853e+003,8.370780e+001
1.623817e+003,8.195535e+001
1.624781e+003,7.994196e+001
1.625746e+003,7.824569e+001
1.626710e+003,7.676237e+001
1.627674e+003,7.574678e+001
1.628638e+003,7.588190e+001
1.629603e+003,7.581675e+001
1.630567e+003,7.479232e+001
1.631531e+003,7.271554e+001
1.632495e+003,6.876158e+001
1.633460e+003,6.326746e+001
1.634424e+003,5.983121e+001
1.635388e+003,6.143584e+001
1.636352e+003,6.505992e+001
1.637317e+003,6.496684e+001
1.638281e+003,6.146757e+001
1.639245e+003,5.981664e+001
1.640209e+003,6.069210e+001
1.641173e+003,6.114246e+001
1.642138e+003,6.035758e+001
1.643102e+003,5.927024e+001
1.644066e+003,5.867770e+001
1.645030e+003,5.773713e+001
1.645995e+003,5.488662e+001
1.646959e+003,5.107677e+001
1.647923e+003,4.889976e+001
1.648887e+003,4.911232e+001
1.649852e+003,5.016901e+001
1.650816e+003,5.098401e+001
1.651780e+003,5.141652e+001
1.652744e+003,5.104691e+001
1.653708e+003,4.989701e+001
1.654673e+003,4.882921e+001
1.655637e+003,4.794732e+001
1.656601e+003,4.688552e+001
1.657565e+003,4.524147e+001
1.658530e+003,4.386728e+001
1.659494e+003,4.314711e+001
1.660458e+003,4.291348e+001
1.661422e+003,4.353843e+001
1.662387e+003,4.445812e+001
1.663351e+003,4.395211e+001
1.664315e+003,4.151215e+001
1.665279e+003,3.900502e+001
1.666244e+003,3.810283e+001
1.667208e+003,3.807161e+001
1.668172e+003,3.742838e+001
1.669136e+003,3.616138e+001
1.670100e+003,3.443787e+001
1.671065e+003,3.195999e+001
1.672029e+003,3.033921e+001
1.672993e+003,3.055706e+001
1.673957e+003,3.128503e+001
1.674922e+003,3.210919e+001
1.675886e+003,3.254127e+001
1.676850e+003,3.187394e+001
1.677814e+003,3.032139e+001
1.678779e+003,2.863959e+001
1.679743e+003,2.706462e+001
1.680707e+003,2.569446e+001
1.681671e+003,2.434116e+001
1.682635e+003,2.349501e+001
1.683600e+003,2.470351e+001
1.684564e+003,2.745703e+001
1.685528e+003,2.811384e+001
1.686492e+003,2.603774e+001
1.687457e+003,2.338782e+001
1.688421e+003,2.022813e+001
1.689385e+003,1.812565e+001
1.690349e+003,1.906630e+001
1.691314e+003,2.132999e+001
1.692278e+003,2.373898e+001
1.693242e+003,2.567228e+001
1.694206e+003,2.493859e+001
1.695171e+003,2.076379e+001
1.696135e+003,1.695780e+001
1.697099e+003,1.599464e+001
1.698063e+003,1.656522e+001
1.699027e+003,1.757285e+001
1.699992e+003,1.868413e+001
1.700956e+003,1.852148e+001
1.701920e+003,1.697257e+001
1.702884e+003,1.604927e+001
1.703849e+003,1.668517e+001
1.704813e+003,1.705391e+001
1.705777e+003,1.524275e+001
1.706741e+003,1.287195e+001
1.707706e+003,1.314888e+001
1.708670e+003,1.524546e+001
1.709634e+003,1.560814e+001
1.710598e+003,1.345065e+001
1.711563e+003,1.170086e+001
1.712527e+003,1.197914e+001
1.713491e+003,1.267632e+001
1.714455e+003,1.253898e+001
1.715419e+003,1.194535e+001
1.716384e+003,1.165804e+001
1.717348e+003,1.157213e+001
1.718312e+003,1.080148e+001
1.719276e+003,9.058795e+000
1.720241e+003,7.070899e+000
1.721205e+003,5.196924e+000
1.722169e+003,3.825183e+000
1.723133e+003,3.740955e+000
1.724098e+003,4.830554e+000
1.725062e+003,5.856781e+000
1.726026e+003,6.939130e+000
1.726990e+003,7.250440e+000
1.727954e+003,5.771338e+000
1.728919e+003,4.639716e+000
1.729883e+003,5.188531e+000
1.730847e+003,6.244592e+000
1.731811e+003,6.831256e+000
1.732776e+003,6.864673e+000
1.733740e+003,6.338599e+000
1.734704e+003,5.354358e+000
1.735668e+003,4.194830e+000
1.736633e+003,3.020831e+000
1.737597e+003,2.207983e+000
1.738561e+003,2.309753e+000
1.739525e+003,3.208881e+000
1.740490e+003,4.247296e+000
1.741454e+003,5.623871e+000
1.742418e+003,6.237219e+000
1.743382e+003,5.413080e+000
1.744346e+003,4.860553e+000
1.745311e+003,5.306684e+000
1.746275e+003,5.573102e+000
1.747239e+003,5.013190e+000
1.748203e+003,3.896088e+000
1.749168e+003,2.195923e+000
1.750132e+003,3.535217e-001
1.751096e+003,-6.154175e-001
1.752060e+003,-4.075012e-001
1.753025e+003,2.353821e-001
1.753989e+003,6.817139e-001
1.754953e+003,7.950073e-001
1.755917e+003,8.389282e-002
1.756881e+003,-1.488367e+000
1.757846e+003,-2.062045e+000
1.758810e+003,-1.222327e+000
1.759774e+003,-4.262634e-001
1.760738e+003,-6.226807e-002
1.761703e+003,3.579773e-001
1.762667e+003,1.562183e+000
1.763631e+003,2.384143e+000
1.764595e+003,1.506897e+000
1.765560e+003,-2.085815e-001
1.766524e+003,-1.276294e+000
1.767488e+003,-1.470630e+000
1.768452e+003,-1.254578e+000
1.769417e+003,-7.791321e-001
1.770381e+003,-4.450012e-001
1.771345e+003,-9.939026e-001
1.772309e+003,-1.937228e+000
1.773273e+003,-1.714081e+000
1.774238e+003,-5.318543e-001
1.775202e+003,-8.267761e-001
1.776166e+003,-3.226388e+000
1.777130e+003,-4.502271e+000
1.778095e+003,-2.834885e+000
1.779059e+003,-8.409119e-001
1.780023e+003,-8.461243e-001
1.780987e+003,-1.883453e+000
1.781952e+003,-2.501456e+000
1.782916e+003,-2.753534e+000
1.783880e+003,-2.667105e+000
1.784844e+003,-2.122867e+000
1.785808e+003,-1.604767e+000
1.786773e+003,-1.277045e+000
1.787737e+003,-1.080090e+000
1.788701e+003,-1.061334e+000
1.789665e+003,-1.113464e+000
1.790630e+003,-7.850403e-001
1.791594e+003,-3.807129e-001
1.792558e+003,-1.279266e+000
1.793522e+003,-3.654550e+000
1.794487e+003,-5.401117e+000
1.795451e+003,-5.171448e+000
1.796415e+003,-3.905051e+000
1.797379e+003,-2.840903e+000
1.798344e+003,-1.968491e+000
1.799308e+003,-1.044617e+000
1.800272e+003,1.216125e-001
1.801236e+003,4.063171e-001
1.802201e+003,-5.572449e-001
1.803165e+003,-1.587186e+000
1.804129e+003,-2.990121e+000
1.805093e+003,-3.859290e+000
1.806057e+003,-3.327280e+000
1.807022e+003,-2.339389e+000
1.807986e+003,-1.952936e+000
1.808950e+003,-2.044833e+000
1.809914e+003,-1.959482e+000
1.810879e+003,-1.518604e+000
1.811843e+003,-9.254761e-001
1.812807e+003,-3.198853e-001
1.813771e+003,-2.329346e-001
1.814736e+003,-1.817822e+000
1.815700e+003,-4.535065e+000
1.816664e+003,-5.106140e+000
1.817628e+003,-3.237998e+000
1.818593e+003,-2.541278e+000
1.819557e+003,-3.963147e+000
1.820521e+003,-4.753235e+000
1.821485e+003,-3.294083e+000
1.822449e+003,-1.775000e+000
1.823414e+003,-1.914529e+000
1.824378e+003,-2.934958e+000
1.825342e+003,-4.127893e+000
1.826306e+003,-5.242828e+000
1.827271e+003,-5.630777e+000
1.828235e+003,-5.103064e+000
1.829199e+003,-4.413770e+000
1.830163e+003,-3.699399e+000
1.831128e+003,-3.236667e+000
1.832092e+003,-3.364182e+000
1.833056e+003,-3.859146e+000
1.834020e+003,-4.672116e+000
1.834984e+003,-5.524039e+000
1.835949e+003,-5.236951e+000
1.836913e+003,-3.726227e+000
1.837877e+003,-3.058896e+000
1.838841e+003,-4.436026e+000
1.839806e+003,-5.816180e+000
1.840770e+003,-4.757514e+000
1.841734e+003,-2.358731e+000
1.842698e+003,-2.029849e+000
1.843663e+003,-4.110239e+000
1.844627e+003,-4.737042e+000
1.845591e+003,-2.844855e+000
1.846555e+003,-1.198346e+000
1.847520e+003,7.924255e-001
1.848484e+003,1.566235e+000
1.849448e+003,-7.773437e-002
1.850412e+003,-2.460504e+000
1.851376e+003,-5.089475e+000
1.852341e+003,-7.029028e+000
1.853305e+003,-6.660602e+000
1.854269e+003,-4.282828e+000
1.855233e+003,-1.888931e+000
1.856198e+003,-4.169129e-001
1.857162e+003,4.697205e-001
1.858126e+003,1.080908e+000
1.859090e+003,1.317425e+000
1.860055e+003,8.511719e-001
1.861019e+003,-2.901062e-001
1.861983e+003,-1.850009e+000
1.862947e+003,-3.832852e+000
1.863911e+003,-4.923065e+000
1.864876e+003,-4.664252e+000
1.865840e+003,-3.995370e+000
1.866804e+003,-3.443005e+000
1.867768e+003,-2.720593e+000
1.868733e+003,-1.272760e+000
1.869697e+003,4.862244e-001
1.870661e+003,1.571399e+000
1.871625e+003,1.999731e+000
1.872590e+003,1.363654e+000
1.873554e+003,-1.131210e+000
1.874518e+003,-3.074698e+000
1.875482e+003,-4.003003e+000
1.876447e+003,-3.934570e+000
1.877411e+003,-1.853943e+000
1.878375e+003,4.264099e-001
1.879339e+003,6.454956e-001
1.880303e+003,-6.244141e-001
1.881268e+003,-1.848950e+000
1.882232e+003,-2.557632e+000
1.883196e+003,-2.960257e+000
1.884160e+003,-3.153397e+000
1.885125e+003,-2.848657e+000
1.886089e+003,-1.654056e+000
1.887053e+003,-1.135254e-001
1.888017e+003,1.309998e-001
1.888982e+003,-9.300995e-001
1.889946e+003,-1.084106e+000
1.890910e+003,-4.892578e-002
1.891874e+003,5.324157e-001
1.892839e+003,3.700562e-001
1.893803e+003,-4.150085e-001
1.894767e+003,-2.453189e+000
1.895731e+003,-4.220731e+000
1.896695e+003,-4.070071e+000
1.897660e+003,-2.909524e+000
1.898624e+003,-2.050867e+000
1.899588e+003,-1.579074e+000
1.900552e+003,-1.629324e+000
1.901517e+003,-2.518497e+000
1.902481e+003,-2.950806e+000
1.903445e+003,-2.078198e+000
1.904409e+003,-9.267060e-001
1.905374e+003,3.302734e-001
1.906338e+003,1.147968e+000
1.907302e+003,2.691162e-001
1.908266e+003,-1.423325e+000
1.909230e+003,-1.914868e+000
1.910195e+003,-1.050098e+000
1.911159e+003,-1.842346e-002
1.912123e+003,6.063782e-001
1.913087e+003,8.682556e-001
1.914052e+003,7.568359e-001
1.915016e+003,5.636047e-001
1.915980e+003,1.085077e+000
1.916944e+003,2.189429e+000
1.917909e+003,1.702185e+000
1.918873e+003,-8.782776e-001
1.919837e+003,-1.769174e+000
1.920801e+003,1.185120e-001
1.921766e+003,1.677057e+000
1.922730e+003,1.672180e+000
1.923694e+003,1.228339e+000
1.924658e+003,1.134180e+000
1.925622e+003,1.111920e+000
1.926587e+003,6.912659e-001
1.927551e+003,7.003174e-002
1.928515e+003,-3.289795e-002
1.929479e+003,5.207642e-001
1.930444e+003,8.714966e-001
1.931408e+003,7.541626e-001
1.932372e+003,3.470398e-001
1.933336e+003,-7.252014e-001
1.934301e+003,-1.554077e+000
1.935265e+003,-1.069986e+000
1.936229e+003,-5.532837e-002
1.937193e+003,3.063782e-001
1.938157e+003,9.581909e-002
1.939122e+003,-1.246887e-001
1.940086e+003,-7.059326e-002
1.941050e+003,6.643860e-001
1.942014e+003,2.274042e+000
1.942979e+003,3.763770e+000
1.943943e+003,3.927313e+000
1.944907e+003,3.146930e+000
1.945871e+003,2.365350e+000
1.946836e+003,1.613702e+000
1.947800e+003,8.416626e-001
1.948764e+003,-5.989990e-002
1.949728e+003,-3.110962e-001
1.950693e+003,4.459564e-001
1.951657e+003,1.051361e+000
1.952621e+003,1.019965e+000
1.953585e+003,6.054870e-001
1.954549e+003,-2.955689e-001
1.955514e+003,-1.229956e+000
1.956478e+003,-9.823548e-001
1.957442e+003,3.420990e-001
1.958406e+003,1.026746e+000
1.959371e+003,7.028259e-001
1.960335e+003,6.233581e-001
1.961299e+003,1.376813e+000
1.962263e+003,1.856781e+000
1.963228e+003,1.456342e+000
1.964192e+003,8.736084e-001
1.965156e+003,4.578644e-001
1.966120e+003,2.484985e-001
1.967084e+003,1.954163e-001
1.968049e+003,3.998199e-001
1.969013e+003,1.135474e+000
1.969977e+003,2.355060e+000
1.970941e+003,3.653436e+000
1.971906e+003,4.853967e+000
1.972870e+003,5.498548e+000
1.973834e+003,5.025244e+000
1.974798e+003,3.783746e+000
1.975763e+003,1.796918e+000
1.976727e+003,-3.973236e-001
1.977691e+003,-8.732788e-001
1.978655e+003,2.431763e-001
1.979620e+003,1.294055e+000
1.980584e+003,1.908875e+000
1.981548e+003,2.361682e+000
1.982512e+003,2.769116e+000
1.983476e+003,2.877893e+000
1.984441e+003,2.378815e+000
1.985405e+003,1.674908e+000
1.986369e+003,1.781427e+000
1.987333e+003,2.707160e+000
1.988298e+003,3.225030e+000
1.989262e+003,3.018341e+000
1.990226e+003,3.145007e+000
1.991190e+003,3.869299e+000
1.992155e+003,4.567346e+000
1.993119e+003,5.886920e+000
1.994083e+003,6.190900e+000
1.995047e+003,3.342993e+000
1.996011e+003,8.576050e-002
1.996976e+003,-5.226776e-001
1.997940e+003,6.721405e-001
1.998904e+003,1.541907e+000
1.999868e+003,1.873694e+000
2.000833e+003,2.142682e+000
2.001797e+003,2.283801e+000
2.002761e+003,2.774390e+000
2.003725e+003,4.079620e+000
2.004690e+003,5.478613e+000
2.005654e+003,6.970178e+000
2.006618e+003,7.902509e+000
2.007582e+003,7.454016e+000
2.008547e+003,6.079987e+000
2.009511e+003,4.215747e+000
2.010475e+003,2.323450e+000
2.011439e+003,1.218359e+000
2.012403e+003,1.145007e+000
2.013368e+003,1.738892e+000
2.014332e+003,2.817102e+000
2.015296e+003,3.768878e+000
2.016260e+003,3.427411e+000
2.017225e+003,2.616425e+000
2.018189e+003,3.523071e+000
2.019153e+003,5.626703e+000
2.020117e+003,7.031903e+000
2.021082e+003,7.533368e+000
2.022046e+003,6.987079e+000
2.023010e+003,5.416785e+000
2.023974e+003,3.947772e+000
2.024938e+003,3.151520e+000
2.025903e+003,2.898859e+000
2.026867e+003,3.174298e+000
2.027831e+003,3.446307e+000
2.028795e+003,2.276489e+000
2.029760e+003,-1.727905e-001
2.030724e+003,-6.694031e-002
2.031688e+003,3.749994e+000
2.032652e+003,5.580292e+000
2.033617e+003,4.288354e+000
2.034581e+003,3.178412e+000
2.035545e+003,2.970087e+000
2.036509e+003,3.356067e+000
2.037474e+003,4.603351e+000
2.038438e+003,5.806567e+000
2.039402e+003,5.862817e+000
2.040366e+003,5.289136e+000
2.041330e+003,5.227973e+000
2.042295e+003,5.713788e+000
2.043259e+003,6.205933e+000
2.044223e+003,6.883948e+000
2.045187e+003,6.958594e+000
2.046152e+003,5.359283e+000
2.047116e+003,4.375372e+000
2.048080e+003,5.474707e+000
2.049044e+003,6.758783e+000
2.050009e+003,7.089728e+000
2.050973e+003,6.748059e+000
2.051937e+003,5.489270e+000
2.052901e+003,4.195520e+000
2.053865e+003,4.966669e+000
2.054830e+003,7.718506e+000
2.055794e+003,9.584394e+000
2.056758e+003,9.268219e+000
2.057722e+003,8.448956e+000
2.058687e+003,8.387659e+000
2.059651e+003,8.382154e+000
2.060615e+003,7.453803e+000
2.061579e+003,6.316992e+000
2.062544e+003,5.900250e+000
2.063508e+003,6.190259e+000
2.064472e+003,7.263831e+000
2.065436e+003,8.722156e+000
2.066401e+003,9.467792e+000
2.067365e+003,9.187952e+000
2.068329e+003,8.390997e+000
2.069293e+003,7.434833e+000
2.070258e+003,6.798987e+000
2.071222e+003,7.192566e+000
2.072186e+003,7.984210e+000
2.073150e+003,7.489697e+000
2.074115e+003,6.166571e+000
2.075079e+003,6.157904e+000
2.076043e+003,7.314520e+000
2.077007e+003,8.226196e+000
2.077971e+003,8.697577e+000
2.078936e+003,8.754443e+000
2.079900e+003,8.381983e+000
2.080864e+003,7.751441e+000
2.081828e+003,6.964740e+000
2.082792e+003,6.215064e+000
2.083757e+003,5.744794e+000
2.084721e+003,5.618048e+000
2.085685e+003,6.245392e+000
2.086649e+003,7.723187e+000
2.087614e+003,7.875897e+000
2.088578e+003,6.245429e+000
2.089542e+003,5.592499e+000
2.090506e+003,6.426501e+000
2.091471e+003,7.420362e+000
2.092435e+003,8.394861e+000
2.093399e+003,8.955170e+000
2.094363e+003,8.778040e+000
2.095328e+003,8.132696e+000
2.096292e+003,7.207141e+000
2.097256e+003,6.090582e+000
2.098220e+003,5.091962e+000
2.099185e+003,4.149909e+000
2.100149e+003,4.630084e+000
2.101113e+003,8.471845e+000
2.102077e+003,1.004439e+001
2.103042e+003,7.298779e+000
2.104006e+003,5.034698e+000
2.104970e+003,4.308710e+000
2.105934e+003,4.331476e+000
2.106898e+003,5.080316e+000
2.107863e+003,6.002844e+000
2.108827e+003,6.626343e+000
2.109791e+003,7.020978e+000
2.110755e+003,7.352191e+000
2.111719e+003,7.599432e+000
2.112684e+003,7.592749e+000
2.113648e+003,7.141412e+000
2.114612e+003,7.039667e+000
2.115576e+003,7.316589e+000
2.116541e+003,8.087128e+000
2.117505e+003,1.063351e+001
2.118469e+003,1.228038e+001
2.119433e+003,1.047730e+001
2.120398e+003,7.719598e+000
2.121362e+003,6.635309e+000
2.122326e+003,6.560321e+000
2.123290e+003,5.520062e+000
2.124255e+003,3.731781e+000
2.125219e+003,3.726257e+000
2.126183e+003,6.396814e+000
2.127147e+003,8.126287e+000
2.128112e+003,6.481067e+000
2.129076e+003,4.780652e+000
2.130040e+003,5.033258e+000
2.131004e+003,5.652283e+000
2.131969e+003,5.375220e+000
2.132933e+003,4.717279e+000
2.133897e+003,4.107654e+000
2.134861e+003,3.862146e+000
2.135825e+003,4.564893e+000
2.136790e+003,5.916278e+000
2.137754e+003,7.006269e+000
2.138718e+003,7.478333e+000
2.139682e+003,6.858545e+000
2.140646e+003,4.443091e+000
2.141611e+003,2.481787e+000
2.142575e+003,3.460944e+000
2.143539e+003,5.035882e+000
2.144503e+003,4.642523e+000
2.145468e+003,3.639453e+000
2.146432e+003,4.065668e+000
2.147396e+003,5.262811e+000
2.148360e+003,5.686475e+000
2.149325e+003,5.268768e+000
2.150289e+003,4.604065e+000
2.151253e+003,3.999048e+000
2.152217e+003,3.882202e+000
2.153182e+003,4.534796e+000
2.154146e+003,5.228131e+000
2.155110e+003,5.099249e+000
2.156074e+003,4.910663e+000
2.157039e+003,6.101520e+000
2.158003e+003,7.454236e+000
2.158967e+003,6.537030e+000
2.159931e+003,4.491400e+000
2.160896e+003,4.070453e+000
2.161860e+003,5.121429e+000
2.162824e+003,6.042224e+000
2.163788e+003,6.328607e+000
2.164752e+003,6.078418e+000
2.165717e+003,5.380316e+000
2.166681e+003,4.570361e+000
2.167645e+003,3.911554e+000
2.168609e+003,3.400659e+000
2.169573e+003,2.958063e+000
2.170538e+003,2.760052e+000
2.171502e+003,3.545831e+000
2.172466e+003,4.594018e+000
2.173430e+003,3.921405e+000
2.174395e+003,2.001151e+000
2.175359e+003,7.080902e-001
2.176323e+003,4.347015e-001
2.177287e+003,1.098749e+000
2.178252e+003,2.435937e+000
2.179216e+003,3.048663e+000
2.180180e+003,1.934286e+000
2.181144e+003,2.806152e-001
2.182109e+003,-6.529236e-001
2.183073e+003,-9.440948e-001
2.184037e+003,-4.696198e-001
2.185001e+003,4.617950e-001
2.185966e+003,1.257581e+000
2.186930e+003,1.833478e+000
2.187894e+003,1.831546e+000
2.188858e+003,1.344412e+000
2.189823e+003,1.001270e+000
2.190787e+003,9.153076e-001
2.191751e+003,6.374725e-001
2.192715e+003,-5.429077e-003
2.193679e+003,-4.144257e-001
2.194644e+003,-1.594543e-002
2.195608e+003,6.863678e-001
2.196572e+003,1.107092e+000
2.197536e+003,1.103589e+000
2.198500e+003,-9.076538e-002
2.199465e+003,-1.863867e+000
2.200429e+003,-2.359906e+000
2.201393e+003,-1.690814e+000
2.202357e+003,-5.015228e-001
2.203322e+003,7.420929e-001
2.204286e+003,3.390198e-001
2.205250e+003,-2.034750e+000
2.206214e+003,-3.513531e+000
2.207179e+003,-2.136923e+000
2.208143e+003,-8.540650e-002
2.209107e+003,4.809265e-002
2.210071e+003,-7.843140e-001
2.211036e+003,-1.043484e+000
2.212000e+003,-8.173676e-001
2.212964e+003,4.084168e-002
2.213928e+003,1.082977e+000
2.214893e+003,8.806366e-001
2.215857e+003,-3.206268e-001
2.216821e+003,-1.130133e+000
2.217785e+003,-1.219666e+000
2.218750e+003,-8.991852e-001
2.219714e+003,-3.992828e-001
2.220678e+003,-4.376984e-001
2.221642e+003,-1.669565e+000
2.222606e+003,-2.819434e+000
2.223571e+003,-1.771918e+000
2.224535e+003,-1.269836e-002
2.225499e+003,-4.000916e-001
2.226463e+003,-1.958347e+000
2.227427e+003,-2.970944e+000
2.228392e+003,-3.256335e+000
2.229356e+003,-2.295215e+000
2.230320e+003,-6.052582e-001
2.231284e+003,-1.726715e-001
2.232249e+003,-1.332422e+000
2.233213e+003,-2.322711e+000
2.234177e+003,-2.231482e+000
2.235141e+003,-2.091650e+000
2.236106e+003,-2.915622e+000
2.237070e+003,-3.701059e+000
2.238034e+003,-3.160153e+000
2.238998e+003,-1.951389e+000
2.239963e+003,-4.281555e-001
2.240927e+003,7.613220e-001
2.241891e+003,2.108521e-001
2.242855e+003,-1.380173e+000
2.243820e+003,-2.721057e+000
2.244784e+003,-3.339798e+000
2.245748e+003,-2.366730e+000
2.246712e+003,-1.454468e-002
2.247677e+003,1.120407e+000
2.248641e+003,-3.476196e-001
2.249605e+003,-2.228210e+000
2.250569e+003,-2.958106e+000
2.251533e+003,-3.162805e+000
2.252498e+003,-3.399103e+000
2.253462e+003,-3.432739e+000
2.254426e+003,-2.645941e+000
2.255390e+003,-1.769290e+000
2.256354e+003,-2.199191e+000
2.257319e+003,-3.124521e+000
2.258283e+003,-2.439798e+000
2.259247e+003,-5.906036e-001
2.260211e+003,-2.377197e-001
2.261176e+003,-1.889017e+000
2.262140e+003,-2.928921e+000
2.263104e+003,-2.005548e+000
2.264068e+003,-1.246664e+000
2.265033e+003,-2.510794e+000
2.265997e+003,-3.392383e+000
2.266961e+003,-1.520306e+000
2.267925e+003,2.226685e-001
2.268890e+003,-9.613464e-001
2.269854e+003,-3.010483e+000
2.270818e+003,-3.485699e+000
2.271782e+003,-3.086258e+000
2.272747e+003,-3.532532e+000
2.273711e+003,-4.632571e+000
2.274675e+003,-4.759881e+000
2.275639e+003,-3.588089e+000
2.276604e+003,-2.894672e+000
2.277568e+003,-3.278381e+000
2.278532e+003,-3.841870e+000
2.279496e+003,-4.498953e+000
2.280460e+003,-5.187961e+000
2.281425e+003,-6.488379e+000
2.282389e+003,-7.078049e+000
2.283353e+003,-5.183429e+000
2.284317e+003,-3.104745e+000
2.285281e+003,-3.299133e+000
2.286246e+003,-4.668332e+000
2.287210e+003,-5.298511e+000
2.288174e+003,-5.248044e+000
2.289138e+003,-5.230121e+000
2.290103e+003,-5.298261e+000
2.291067e+003,-5.190106e+000
2.292031e+003,-4.556992e+000
2.292995e+003,-4.433072e+000
2.293960e+003,-5.678833e+000
2.294924e+003,-5.893075e+000
2.295888e+003,-3.620841e+000
2.296852e+003,-1.907053e+000
2.297817e+003,-2.545749e+000
2.298781e+003,-3.722217e+000
2.299745e+003,-3.717960e+000
2.300709e+003,-3.326862e+000
2.301674e+003,-3.974112e+000
2.302638e+003,-5.507449e+000
2.303602e+003,-7.225039e+000
2.304566e+003,-9.279505e+000
2.305531e+003,-9.285764e+000
2.306495e+003,-6.895953e+000
2.307459e+003,-4.735431e+000
2.308423e+003,-3.021030e+000
2.309387e+003,-1.929392e+000
2.310352e+003,-1.493674e+000
2.311316e+003,-2.189642e+000
2.312280e+003,-4.319079e+000
2.313244e+003,-5.978757e+000
2.314208e+003,-5.549060e+000
2.315173e+003,-4.453158e+000
2.316137e+003,-4.735361e+000
2.317101e+003,-5.939505e+000
2.318065e+003,-7.181943e+000
2.319030e+003,-8.211990e+000
2.319994e+003,-7.887573e+000
2.320958e+003,-6.476059e+000
2.321922e+003,-4.701257e+000
2.322887e+003,-2.976737e+000
2.323851e+003,-2.758630e+000
2.324815e+003,-4.013837e+000
2.325779e+003,-5.049268e+000
2.326744e+003,-5.186560e+000
2.327708e+003,-4.989542e+000
2.328672e+003,-4.819537e+000
2.329636e+003,-4.950732e+000
2.330601e+003,-5.892923e+000
2.331565e+003,-6.798120e+000
2.332529e+003,-6.441546e+000
2.333493e+003,-5.793302e+000
2.334458e+003,-6.085959e+000
2.335422e+003,-6.771018e+000
2.336386e+003,-7.160327e+000
2.337350e+003,-7.190558e+000
2.338314e+003,-6.715192e+000
2.339279e+003,-6.037528e+000
2.340243e+003,-6.074698e+000
2.341207e+003,-6.880038e+000
2.342171e+003,-7.162299e+000
2.343135e+003,-6.351260e+000
2.344100e+003,-5.770535e+000
2.345064e+003,-6.287393e+000
2.346028e+003,-6.560840e+000
2.346992e+003,-5.345895e+000
2.347957e+003,-4.769745e+000
2.348921e+003,-6.562894e+000
2.349885e+003,-8.640131e+000
2.350849e+003,-1.035456e+001
2.351814e+003,-1.083073e+001
2.352778e+003,-7.539484e+000
2.353742e+003,-2.785114e+000
2.354706e+003,-2.598782e+000
2.355671e+003,-6.507464e+000
2.356635e+003,-8.367160e+000
2.357599e+003,-7.647211e+000
2.358563e+003,-7.252878e+000
2.359528e+003,-7.349088e+000
2.360492e+003,-7.307446e+000
2.361456e+003,-7.038947e+000
2.362420e+003,-6.591797e+000
2.363385e+003,-5.942657e+000
2.364349e+003,-5.300555e+000
2.365313e+003,-4.716418e+000
2.366277e+003,-4.591138e+000
2.367241e+003,-5.349258e+000
2.368206e+003,-6.498416e+000
2.369170e+003,-7.327929e+000
2.370134e+003,-7.688284e+000
2.371098e+003,-6.798673e+000
2.372063e+003,-5.100726e+000
2.373027e+003,-4.316373e+000
2.373991e+003,-4.351996e+000
2.374955e+003,-5.239600e+000
2.375919e+003,-6.572858e+000
2.376884e+003,-6.880984e+000
2.377848e+003,-6.119308e+000
2.378812e+003,-5.429419e+000
2.379776e+003,-5.221518e+000
2.380741e+003,-5.264404e+000
2.381705e+003,-5.438629e+000
2.382669e+003,-5.370758e+000
2.383633e+003,-4.508295e+000
2.384598e+003,-3.802673e+000
2.385562e+003,-4.177164e+000
2.386526e+003,-4.899793e+000
2.387490e+003,-5.606522e+000
2.388455e+003,-6.027823e+000
2.389419e+003,-5.677640e+000
2.390383e+003,-5.105649e+000
2.391347e+003,-5.470840e+000
2.392312e+003,-6.084002e+000
2.393276e+003,-4.648126e+000
2.394240e+003,-1.508362e+000
2.395204e+003,-8.912354e-001
2.396168e+003,-4.081842e+000
2.397133e+003,-5.764173e+000
2.398097e+003,-4.782333e+000
2.399061e+003,-4.006854e+000
2.400025e+003,-3.239938e+000
2.400990e+003,-3.502283e+000
2.401954e+003,-5.626193e+000
2.402918e+003,-7.325775e+000
2.403882e+003,-7.555377e+000
2.404846e+003,-6.902743e+000
2.405811e+003,-5.679422e+000
2.406775e+003,-4.337995e+000
2.407739e+003,-3.474643e+000
2.408703e+003,-3.329251e+000
2.409668e+003,-4.977033e+000
2.410632e+003,-7.743790e+000
2.411596e+003,-7.820297e+000
2.412560e+003,-5.901370e+000
2.413525e+003,-4.763519e+000
2.414489e+003,-4.529199e+000
2.415453e+003,-4.996490e+000
2.416417e+003,-5.819971e+000
2.417382e+003,-5.899148e+000
2.418346e+003,-5.200784e+000
2.419310e+003,-5.307544e+000
2.420274e+003,-6.826859e+000
2.421239e+003,-7.792923e+000
2.422203e+003,-6.777677e+000
2.423167e+003,-5.493399e+000
2.424131e+003,-5.106287e+000
2.425095e+003,-4.924451e+000
2.426060e+003,-4.526679e+000
2.427024e+003,-4.122439e+000
2.427988e+003,-3.950146e+000
2.428952e+003,-3.793259e+000
2.429917e+003,-3.083569e+000
2.430881e+003,-2.437088e+000
2.431845e+003,-3.266144e+000
2.432809e+003,-4.984881e+000
2.433773e+003,-5.108813e+000
2.434738e+003,-3.622510e+000
2.435702e+003,-3.047278e+000
2.436666e+003,-3.664658e+000
2.437630e+003,-4.150137e+000
2.438595e+003,-4.525723e+000
2.439559e+003,-4.889029e+000
2.440523e+003,-5.339993e+000
2.441487e+003,-4.627856e+000
2.442452e+003,-2.317224e+000
2.443416e+003,-5.574158e-001
2.444380e+003,-4.375427e-001
2.445344e+003,-1.331668e+000
2.446309e+003,-2.787341e+000
2.447273e+003,-3.584296e+000
2.448237e+003,-1.873480e+000
2.449201e+003,8.088074e-001
2.450166e+003,2.521674e+000
2.451130e+003,3.053888e+000
2.452094e+003,1.059241e+000
2.453058e+003,-1.661212e+000
2.454022e+003,-1.643704e+000
2.454987e+003,-6.335022e-001
2.455951e+003,-2.766724e+000
2.456915e+003,-6.846301e+000
2.457879e+003,-8.794009e+000
2.458844e+003,-8.111072e+000
2.459808e+003,-6.680154e+000
2.460772e+003,-4.787601e+000
2.461736e+003,-3.470535e+000
2.462700e+003,-3.458472e+000
2.463665e+003,-3.252554e+000
2.464629e+003,-2.244769e+000
2.465593e+003,-1.638004e+000
2.466557e+003,-1.688361e+000
2.467522e+003,-2.253604e+000
2.468486e+003,-3.452939e+000
2.469450e+003,-4.642487e+000
2.470414e+003,-5.415799e+000
2.471379e+003,-5.677298e+000
2.472343e+003,-5.284823e+000
2.473307e+003,-4.561151e+000
2.474271e+003,-4.137403e+000
2.475236e+003,-3.920258e+000
2.476200e+003,-3.683707e+000
2.477164e+003,-3.364996e+000
2.478128e+003,-2.463702e+000
2.479093e+003,-1.436734e+000
2.480057e+003,-1.921698e+000
2.481021e+003,-3.290305e+000
2.481985e+003,-3.206891e+000
2.482949e+003,-1.831775e+000
2.483914e+003,-1.384815e+000
2.484878e+003,-2.394040e+000
2.485842e+003,-3.573285e+000
2.486806e+003,-4.539966e+000
2.487771e+003,-5.149970e+000
2.488735e+003,-5.374143e+000
2.489699e+003,-5.184457e+000
2.490663e+003,-4.138412e+000
2.491627e+003,-3.381882e+000
2.492592e+003,-3.390527e+000
2.493556e+003,-3.596222e+000
2.494520e+003,-3.971493e+000
2.495484e+003,-3.924973e+000
2.496449e+003,-2.800030e+000
2.497413e+003,-1.481421e+000
2.498377e+003,-1.215707e+000
2.499341e+003,-1.721899e+000
2.500306e+003,-2.386862e+000
2.501270e+003,-3.100024e+000
2.502234e+003,-3.270175e+000
2.503198e+003,-3.108737e+000
2.504163e+003,-3.520450e+000
2.505127e+003,-4.261432e+000
2.506091e+003,-4.432227e+000
2.507055e+003,-4.033731e+000
2.508020e+003,-3.316522e+000
2.508984e+003,-2.492017e+000
2.509948e+003,-2.032019e+000
2.510912e+003,-2.078723e+000
2.511876e+003,-2.330719e+000
2.512841e+003,-2.802768e+000
2.513805e+003,-2.906012e+000
2.514769e+003,-1.969644e+000
2.515733e+003,-1.431210e+000
2.516698e+003,-2.129220e+000
2.517662e+003,-2.618472e+000
2.518626e+003,-2.373029e+000
2.519590e+003,-1.766672e+000
2.520554e+003,-7.332519e-001
2.521519e+003,-2.200775e-001
2.522483e+003,-1.231699e+000
2.523447e+003,-2.539331e+000
2.524411e+003,-2.307697e+000
2.525376e+003,-1.074963e+000
2.526340e+003,4.413757e-002
2.527304e+003,8.305847e-001
2.528268e+003,4.408692e-001
2.529233e+003,-6.517395e-001
2.530197e+003,-1.784665e+000
2.531161e+003,-2.448328e+000
2.532125e+003,-9.715179e-001
2.533090e+003,1.400555e+000
2.534054e+003,1.183624e+000
2.535018e+003,-1.340128e+000
2.535982e+003,-3.097168e+000
2.536947e+003,-3.339880e+000
2.537911e+003,-2.238595e+000
2.538875e+003,1.065500e+000
2.539839e+003,2.988354e+000
2.540803e+003,2.135113e+000
2.541768e+003,1.428833e+000
2.542732e+003,1.165323e+000
2.543696e+003,8.715057e-001
2.544660e+003,4.946411e-001
2.545625e+003,-1.348724e-001
2.546589e+003,-1.194305e+000
2.547553e+003,-1.487164e+000
2.548517e+003,-5.229492e-002
2.549482e+003,1.346017e+000
2.550446e+003,5.525421e-001
2.551410e+003,-9.387329e-001
2.552374e+003,-6.898529e-001
2.553339e+003,1.980713e-001
2.554303e+003,2.373688e-001
2.555267e+003,-1.485474e-001
2.556231e+003,-7.408142e-001
2.557196e+003,-1.137506e+000
2.558160e+003,-6.029938e-001
2.559124e+003,2.854370e-001
2.560088e+003,8.165680e-001
2.561052e+003,7.701629e-001
2.562017e+003,-7.306366e-001
2.562981e+003,-3.604404e+000
2.563945e+003,-4.602450e+000
2.564909e+003,-3.365927e+000
2.565874e+003,-2.177875e+000
2.566838e+003,-9.990600e-001
2.567802e+003,4.719849e-002
2.568766e+003,9.587372e-001
2.569730e+003,6.740052e-001
2.570695e+003,-8.552399e-001
2.571659e+003,-1.771121e+000
2.572623e+003,-1.497485e+000
2.573587e+003,-7.658936e-001
2.574552e+003,1.480103e-002
2.575516e+003,8.669738e-002
2.576480e+003,-1.395666e+000
2.577444e+003,-2.535678e+000
2.578409e+003,-1.744095e+000
2.579373e+003,-8.490967e-001
2.580337e+003,-7.122345e-001
2.581301e+003,-8.102356e-001
2.582266e+003,-8.538971e-001
2.583230e+003,-9.579223e-001
2.584194e+003,-1.175607e+000
2.585158e+003,-1.728479e+000
2.586123e+003,-3.151056e+000
2.587087e+003,-4.176471e+000
2.588051e+003,-2.430521e+000
2.589015e+003,8.345672e-001
2.589979e+003,1.708859e+000
2.590944e+003,7.408112e-001
2.591908e+003,-1.706696e-001
2.592872e+003,-9.402161e-001
2.593836e+003,-1.360297e+000
2.594801e+003,-1.396475e+000
2.595765e+003,-6.507355e-001
2.596729e+003,3.143402e-001
2.597693e+003,-5.068360e-002
2.598657e+003,-1.445441e+000
2.599622e+003,-1.799823e+000
2.600586e+003,-7.685364e-001
2.601550e+003,-3.751709e-001
2.602514e+003,-1.415256e+000
2.603479e+003,-1.595901e+000
2.604443e+003,-4.564087e-001
2.605407e+003,5.820312e-002
2.606371e+003,-3.273071e-001
2.607336e+003,-2.067291e-001
2.608300e+003,7.469543e-001
2.609264e+003,8.145630e-001
2.610228e+003,-5.900543e-001
2.611193e+003,-2.091208e+000
2.612157e+003,-2.835986e+000
2.613121e+003,-2.516437e+000
2.614085e+003,-5.812866e-001
2.615050e+003,1.101010e+000
2.616014e+003,5.598694e-001
2.616978e+003,-2.583160e-001
2.617942e+003,-1.104736e-002
2.618906e+003,3.324280e-001
2.619871e+003,2.551300e-001
2.620835e+003,-1.032532e-001
2.621799e+003,-1.183087e+000
2.622763e+003,-1.685010e+000
2.623728e+003,-8.966064e-003
2.624692e+003,2.120239e+000
2.625656e+003,1.792413e+000
2.626620e+003,1.997650e-001
2.627584e+003,7.695831e-001
2.628549e+003,2.638751e+000
2.629513e+003,3.029279e+000
2.630477e+003,2.395825e+000
2.631441e+003,1.111725e+000
2.632406e+003,-3.258057e-002
2.633370e+003,8.691131e-001
2.634334e+003,2.720819e+000
2.635298e+003,2.787207e+000
2.636263e+003,1.474164e+000
2.637227e+003,1.463864e+000
2.638191e+003,2.968689e+000
2.639155e+003,3.079858e+000
2.640120e+003,1.329092e+000
2.641084e+003,7.708648e-001
2.642048e+003,1.566827e+000
2.643012e+003,2.354254e+000
2.643977e+003,3.096283e+000
2.644941e+003,2.135474e+000
2.645905e+003,-4.210541e-001
2.646869e+003,-1.254770e+000
2.647833e+003,1.701080e-001
2.648798e+003,9.761047e-001
2.649762e+003,9.635620e-002
2.650726e+003,-5.762695e-001
2.651690e+003,6.182862e-003
2.652655e+003,3.927216e-001
2.653619e+003,-1.779053e-001
2.654583e+003,-8.328918e-001
2.655547e+003,-1.616757e+000
2.656511e+003,-1.980582e+000
2.657476e+003,-1.880804e+000
2.658440e+003,-1.107510e+000
2.659404e+003,7.198364e-001
2.660368e+003,1.590674e+000
2.661333e+003,1.045349e-001
2.662297e+003,-1.030035e+000
2.663261e+003,9.641296e-001
2.664225e+003,3.293683e+000
2.665190e+003,1.843250e+000
2.666154e+003,-4.184387e-001
2.667118e+003,-1.229004e-001
2.668082e+003,1.144858e+000
2.669047e+003,2.824542e+000
2.670011e+003,3.743866e+000
2.670975e+003,2.025513e+000
2.671939e+003,-1.341919e-001
2.672904e+003,-1.210663e-001
2.673868e+003,8.789673e-001
2.674832e+003,1.257355e+000
2.675796e+003,1.133005e+000
2.676760e+003,8.027161e-001
2.677725e+003,2.626892e-001
2.678689e+003,-6.604645e-001
2.679653e+003,-1.639859e+000
2.680617e+003,-1.763767e+000
2.681582e+003,-1.244232e+000
2.682546e+003,-1.843964e-001
2.683510e+003,9.664673e-001
2.684474e+003,1.423572e+000
2.685438e+003,1.260468e+000
2.686403e+003,7.361237e-001
2.687367e+003,7.380676e-002
2.688331e+003,3.154327e-001
2.689295e+003,1.541461e+000
2.690260e+003,2.745508e+000
2.691224e+003,4.009753e+000
2.692188e+003,4.254126e+000
2.693152e+003,3.470111e+000
2.694117e+003,2.430829e+000
2.695081e+003,1.444019e+000
2.696045e+003,1.536816e+000
2.697009e+003,2.543042e+000
2.697974e+003,2.960944e+000
2.698938e+003,2.511505e+000
2.699902e+003,2.464484e+000
2.700866e+003,3.312598e+000
2.701831e+003,3.088623e+000
2.702795e+003,-1.165985e-001
2.703759e+003,-1.462830e+000
2.704723e+003,1.407776e-002
2.705688e+003,1.432153e+000
2.706652e+003,2.504150e+000
2.707616e+003,2.735284e+000
2.708580e+003,2.044385e+000
2.709544e+003,1.109778e+000
2.710509e+003,2.548828e-001
2.711473e+003,-4.297882e-001
2.712437e+003,-9.068298e-001
2.713401e+003,-6.458252e-001
2.714365e+003,1.122540e+000
2.715330e+003,2.669159e+000
2.716294e+003,2.907819e+000
2.717258e+003,3.041339e+000
2.718222e+003,3.827490e+000
2.719187e+003,3.951270e+000
2.720151e+003,2.549634e+000
2.721115e+003,1.934491e+000
2.722079e+003,3.400977e+000
2.723044e+003,4.289350e+000
2.724008e+003,2.576770e+000
2.724972e+003,7.554626e-001
2.725936e+003,1.479236e+000
2.726901e+003,2.866663e+000
2.727865e+003,2.815961e+000
2.728829e+003,2.545758e+000
2.729793e+003,3.433685e+000
2.730758e+003,3.956104e+000
2.731722e+003,2.637097e+000
2.732686e+003,9.552521e-001
2.733650e+003,-5.095276e-001
2.734615e+003,-7.855988e-001
2.735579e+003,1.402216e+000
2.736543e+003,3.421454e+000
2.737507e+003,1.542444e+000
2.738471e+003,-1.899371e+000
2.739436e+003,-2.830670e+000
2.740400e+003,-2.064807e+000
2.741364e+003,-2.139954e-001
2.742328e+003,1.769281e+000
2.743292e+003,2.685193e+000
2.744257e+003,3.205750e+000
2.745221e+003,4.875726e+000
2.746185e+003,5.913226e+000
2.747149e+003,2.684357e+000
2.748114e+003,-1.142246e+000
2.749078e+003,3.146942e-001
2.750042e+003,4.447284e+000
2.751006e+003,3.955560e+000
2.751971e+003,7.094299e-001
2.752935e+003,1.823907e+000
2.753899e+003,4.791724e+000
2.754863e+003,3.489172e+000
2.755828e+003,6.269165e-001
2.756792e+003,1.133441e+000
2.757756e+003,3.200665e+000
2.758720e+003,3.292615e+000
2.759685e+003,2.184174e+000
2.760649e+003,2.782227e+000
2.761613e+003,4.125440e+000
2.762577e+003,2.608295e+000
2.763542e+003,-1.065781e+000
2.764506e+003,-7.134522e-001
2.765470e+003,2.587476e+000
2.766434e+003,2.690717e+000
2.767398e+003,9.875488e-001
2.768363e+003,1.627777e+000
2.769327e+003,3.580743e+000
2.770291e+003,4.083392e+000
2.771255e+003,3.409387e+000
2.772219e+003,3.026257e+000
2.773184e+003,2.951825e+000
2.774148e+003,2.314117e+000
2.775112e+003,1.158118e+000
2.776076e+003,5.120514e-001
2.777041e+003,3.955536e-001
2.778005e+003,1.051642e+000
2.778969e+003,2.238379e+000
2.779933e+003,2.691522e+000
2.780898e+003,2.469824e+000
2.781862e+003,1.760242e+000
2.782826e+003,9.800171e-001
2.783790e+003,9.612610e-001
2.784755e+003,1.730103e+000
2.785719e+003,3.054010e+000
2.786683e+003,4.839246e+000
2.787647e+003,4.845001e+000
2.788612e+003,2.660498e+000
2.789576e+003,2.159314e+000
2.790540e+003,3.297186e+000
2.791504e+003,4.771136e+000
2.792469e+003,6.116022e+000
2.793433e+003,5.156555e+000
2.794397e+003,2.614105e+000
2.795361e+003,1.604309e+000
2.796325e+003,2.332037e+000
2.797290e+003,3.113263e+000
2.798254e+003,3.602844e+000
2.799218e+003,3.668347e+000
2.800182e+003,2.987573e+000
2.801146e+003,4.393652e+000
2.802111e+003,8.351873e+000
2.803075e+003,9.466052e+000
2.804039e+003,7.780212e+000
2.805003e+003,6.764789e+000
2.805968e+003,6.672101e+000
2.806932e+003,6.797809e+000
2.807896e+003,6.928082e+000
2.808860e+003,6.766992e+000
2.809825e+003,6.222864e+000
2.810789e+003,5.239685e+000
2.811753e+003,3.602417e+000
2.812717e+003,2.805676e+000
2.813682e+003,2.906921e+000
2.814646e+003,3.765649e+000
2.815610e+003,5.354468e+000
2.816574e+003,6.226184e+000
2.817539e+003,6.315546e+000
2.818503e+003,6.328925e+000
2.819467e+003,6.180542e+000
2.820431e+003,4.666358e+000
2.821396e+003,2.130682e+000
2.822360e+003,1.551709e+000
2.823324e+003,3.722424e+000
2.824288e+003,6.259039e+000
2.825252e+003,9.636792e+000
2.826217e+003,1.034170e+001
2.827181e+003,8.313440e+000
2.828145e+003,7.340668e+000
2.829109e+003,7.592841e+000
2.830073e+003,8.476605e+000
2.831038e+003,9.321429e+000
2.832002e+003,7.757056e+000
2.832966e+003,4.278723e+000
2.833930e+003,3.167285e+000
2.834895e+003,5.396955e+000
2.835859e+003,7.668445e+000
2.836823e+003,9.952283e+000
2.837787e+003,1.067699e+001
2.838752e+003,9.759760e+000
2.839716e+003,9.019598e+000
2.840680e+003,8.548749e+000
2.841644e+003,7.955847e+000
2.842609e+003,7.284125e+000
2.843573e+003,6.867780e+000
2.844537e+003,6.889740e+000
2.845501e+003,7.773786e+000
2.846466e+003,9.436414e+000
2.847430e+003,1.015660e+001
2.848394e+003,9.702845e+000
2.849358e+003,9.088574e+000
2.850323e+003,8.291003e+000
2.851287e+003,8.707593e+000
2.852251e+003,9.979230e+000
2.853215e+003,9.217853e+000
2.854179e+003,7.136804e+000
2.855144e+003,7.078033e+000
2.856108e+003,8.808264e+000
2.857072e+003,9.883893e+000
2.858036e+003,9.935962e+000
2.859000e+003,9.736567e+000
2.859965e+003,9.359454e+000
2.860929e+003,8.925299e+000
2.861893e+003,8.376819e+000
2.862857e+003,8.363873e+000
2.863822e+003,8.826935e+000
2.864786e+003,9.043378e+000
2.865750e+003,9.157507e+000
2.866714e+003,9.852777e+000
2.867679e+003,1.087689e+001
2.868643e+003,1.151665e+001
2.869607e+003,1.180965e+001
2.870571e+003,1.225006e+001
2.871536e+003,1.281913e+001
2.872500e+003,1.311736e+001
2.873464e+003,1.307336e+001
2.874428e+003,1.241027e+001
2.875393e+003,1.134642e+001
2.876357e+003,1.017137e+001
2.877321e+003,9.421911e+000
2.878285e+003,1.057867e+001
2.879250e+003,1.255255e+001
2.880214e+003,1.289871e+001
2.881178e+003,1.214095e+001
2.882142e+003,1.271301e+001
2.883106e+003,1.400369e+001
2.884071e+003,1.310457e+001
2.885035e+003,1.076708e+001
2.885999e+003,1.165023e+001
2.886963e+003,1.400098e+001
2.887927e+003,1.326812e+001
2.888892e+003,1.132730e+001
2.889856e+003,1.137766e+001
2.890820e+003,1.246364e+001
2.891784e+003,1.295566e+001
2.892749e+003,1.282816e+001
2.893713e+003,1.220479e+001
2.894677e+003,1.147803e+001
2.895641e+003,1.156839e+001
2.896606e+003,1.210725e+001
2.897570e+003,1.232607e+001
2.898534e+003,1.214843e+001
2.899498e+003,1.089097e+001
2.900463e+003,9.658795e+000
2.901427e+003,9.865283e+000
2.902391e+003,1.071468e+001
2.903355e+003,1.158293e+001
2.904320e+003,1.202464e+001
2.905284e+003,1.146407e+001
2.906248e+003,1.071122e+001
2.907212e+003,1.118569e+001
2.908177e+003,1.178458e+001
2.909141e+003,1.008367e+001
2.910105e+003,8.139063e+000
2.911069e+003,8.416449e+000
2.912033e+003,9.039612e+000
2.912998e+003,8.030396e+000
2.913962e+003,7.773157e+000
2.914926e+003,1.006760e+001
2.915890e+003,1.224074e+001
2.916854e+003,1.235451e+001
2.917819e+003,1.157006e+001
2.918783e+003,1.088137e+001
2.919747e+003,1.082944e+001
2.920711e+003,1.321993e+001
2.921676e+003,1.464318e+001
2.922640e+003,1.124471e+001
2.923604e+003,9.047064e+000
2.924568e+003,1.128069e+001
2.925533e+003,1.282068e+001
2.926497e+003,1.166586e+001
2.927461e+003,1.149426e+001
2.928425e+003,1.434818e+001
2.929390e+003,1.202894e+001
2.930354e+003,-2.869510e+000
2.931318e+003,-1.251763e+001
2.932282e+003,3.978882e-002
2.933247e+003,1.010118e+001
2.934211e+003,1.120763e+001
2.935175e+003,1.119188e+001
2.936139e+003,9.943237e+000
2.937104e+003,8.042114e+000
2.938068e+003,5.963147e+000
2.939032e+003,6.261426e+000
2.939996e+003,9.237500e+000
2.940960e+003,1.133425e+001
2.941925e+003,1.114033e+001
2.942889e+003,1.019098e+001
2.943853e+003,8.603589e+000
2.944817e+003,7.669678e+000
2.945781e+003,7.602063e+000
2.946746e+003,6.804541e+000
2.947710e+003,5.353949e+000
2.948674e+003,6.333392e+000
2.949638e+003,9.139758e+000
2.950603e+003,9.577917e+000
2.951567e+003,7.731409e+000
2.952531e+003,7.043372e+000
2.953495e+003,8.096869e+000
2.954460e+003,9.704218e+000
2.955424e+003,1.180460e+001
2.956388e+003,1.016661e+001
2.957352e+003,5.356244e+000
2.958317e+003,2.483246e+000
2.959281e+003,1.878046e+000
2.960245e+003,5.641998e+000
2.961209e+003,1.063264e+001
2.962174e+003,1.048953e+001
2.963138e+003,7.077783e+000
2.964102e+003,5.547815e+000
2.965066e+003,5.608923e+000
2.966031e+003,6.380511e+000
2.966995e+003,7.496216e+000
2.967959e+003,7.885242e+000
2.968923e+003,7.586859e+000
2.969887e+003,6.113238e+000
2.970852e+003,4.651672e+000
2.971816e+003,4.880988e+000
2.972780e+003,5.652832e+000
2.973744e+003,5.669342e+000
2.974708e+003,5.756293e+000
2.975673e+003,6.726092e+000
2.976637e+003,7.639215e+000
2.977601e+003,7.324927e+000
2.978565e+003,6.495019e+000
2.979530e+003,5.915863e+000
2.980494e+003,5.604926e+000
2.981458e+003,6.152618e+000
2.982422e+003,6.108747e+000
2.983387e+003,3.832428e+000
2.984351e+003,2.734851e+000
2.985315e+003,4.299335e+000
2.986279e+003,4.829407e+000
2.987244e+003,2.514764e+000
2.988208e+003,7.118500e-001
2.989172e+003,1.555176e+000
2.990136e+003,2.703302e+000
2.991101e+003,2.887653e+000
2.992065e+003,3.080933e+000
2.993029e+003,3.270435e+000
2.993993e+003,4.306378e+000
2.994958e+003,6.370172e+000
2.995922e+003,5.651392e+000
2.996886e+003,2.179050e+000
2.997850e+003,1.106958e+000
2.998814e+003,3.151202e+000
2.999779e+003,4.225055e+000
3.000743e+003,3.182379e+000
3.001707e+003,2.174478e+000
3.002671e+003,1.332877e+000
3.003635e+003,1.761691e+000
3.004600e+003,3.333978e+000
3.005564e+003,4.568085e+000
3.006528e+003,5.099390e+000
3.007492e+003,3.356555e+000
3.008457e+003,8.023895e-001
3.009421e+003,1.060956e+000
3.010385e+003,3.099310e+000
3.011349e+003,3.176068e+000
3.012314e+003,2.120950e+000
3.013278e+003,2.513168e+000
3.014242e+003,3.582385e+000
3.015206e+003,2.515750e+000
3.016171e+003,6.273499e-001
3.017135e+003,2.572998e-001
3.018099e+003,3.053070e-001
3.019063e+003,-1.068246e+000
3.020028e+003,-1.756955e+000
3.020992e+003,3.883270e-001
3.021956e+003,2.594873e+000
3.022920e+003,2.422516e+000
3.023885e+003,1.365710e+000
3.024849e+003,9.968414e-001
3.025813e+003,9.329193e-001
3.026777e+003,1.063565e+000
3.027741e+003,9.649475e-001
3.028706e+003,-2.641113e-001
3.029670e+003,-3.693634e-001
3.030634e+003,1.473785e+000
3.031598e+003,2.847244e+000
3.032563e+003,2.927292e+000
3.033527e+003,2.607858e+000
3.034491e+003,2.326352e+000
3.035455e+003,1.813519e+000
3.036420e+003,7.781616e-001
3.037384e+003,8.751526e-001
3.038348e+003,3.330463e+000
3.039312e+003,3.379596e+000
3.040277e+003,9.809204e-001
3.041241e+003,-8.506775e-002
3.042205e+003,3.179565e-001
3.043169e+003,1.535675e+000
3.044134e+003,2.804297e+000
3.045098e+003,2.279944e+000
3.046062e+003,3.070648e-001
3.047026e+003,-4.671478e-001
3.047990e+003,-1.203735e-001
3.048955e+003,7.186127e-001
3.049919e+003,1.711939e+000
3.050883e+003,8.642181e-001
3.051847e+003,-4.327911e-001
3.052812e+003,4.934174e-001
3.053776e+003,2.114679e+000
3.054740e+003,2.018713e+000
3.055704e+003,2.075806e+000
3.056668e+003,4.408679e+000
3.057633e+003,6.891083e+000
3.058597e+003,7.155566e+000
3.059561e+003,6.363953e+000
3.060525e+003,5.784863e+000
3.061490e+003,5.109693e+000
3.062454e+003,3.520938e+000
3.063418e+003,2.837842e+000
3.064382e+003,4.123413e+000
3.065347e+003,5.055292e+000
3.066311e+003,5.011456e+000
3.067275e+003,5.489850e+000
3.068239e+003,6.967755e+000
3.069204e+003,7.943915e+000
3.070168e+003,7.690137e+000
3.071132e+003,7.502313e+000
3.072096e+003,7.988397e+000
3.073061e+003,8.244336e+000
3.074025e+003,8.353582e+000
3.074989e+003,7.369043e+000
3.075953e+003,5.424133e+000
3.076917e+003,3.183270e+000
3.077882e+003,1.238348e+000
3.078846e+003,1.052734e+000
3.079810e+003,2.056778e+000
3.080774e+003,1.771652e+000
3.081739e+003,7.462952e-001
3.082703e+003,1.036511e+000
3.083667e+003,2.038785e+000
3.084631e+003,1.681512e+000
3.085595e+003,8.231872e-001
3.086560e+003,1.059357e+000
3.087524e+003,1.339868e+000
3.088488e+003,5.558563e-001
3.089452e+003,-8.526306e-001
3.090417e+003,-2.779404e+000
3.091381e+003,-4.097638e+000
3.092345e+003,-3.913809e+000
3.093309e+003,-3.277826e+000
3.094274e+003,-3.105536e+000
3.095238e+003,-2.984296e+000
3.096202e+003,-3.237906e+000
3.097166e+003,-2.053369e+000
3.098131e+003,1.655991e+000
3.099095e+003,2.920453e+000
3.100059e+003,1.026007e+000
3.101023e+003,-1.246051e+000
3.101988e+003,-2.840054e+000
3.102952e+003,-2.721927e+000
3.103916e+003,-9.200928e-001
3.104880e+003,-1.949158e-002
3.105844e+003,-3.203796e-001
3.106809e+003,-1.193204e+000
3.107773e+003,-2.509384e+000
3.108737e+003,-2.445676e+000
3.109701e+003,-1.825531e+000
3.110666e+003,-3.305798e+000
3.111630e+003,-5.035104e+000
3.112594e+003,-2.838367e+000
3.113558e+003,3.789673e-002
3.114522e+003,-1.037344e+000
3.115487e+003,-3.475147e+000
3.116451e+003,-3.635675e+000
3.117415e+003,-2.650897e+000
3.118379e+003,-1.613098e+000
3.119344e+003,-9.807404e-001
3.120308e+003,-1.263571e+000
3.121272e+003,-2.003122e+000
3.122236e+003,-3.170294e+000
3.123201e+003,-3.786246e+000
3.124165e+003,-3.569586e+000
3.125129e+003,-3.839334e+000
3.126093e+003,-5.037265e+000
3.127058e+003,-5.662778e+000
3.128022e+003,-5.019095e+000
3.128986e+003,-4.252478e+000
3.129950e+003,-3.470993e+000
3.130915e+003,-2.685602e+000
3.131879e+003,-2.008215e+000
3.132843e+003,-3.472833e+000
3.133807e+003,-5.908716e+000
3.134771e+003,-5.743005e+000
3.135736e+003,-3.686096e+000
3.136700e+003,-1.451050e+000
3.137664e+003,-9.120788e-002
3.138628e+003,-1.473349e+000
3.139593e+003,-4.003827e+000
3.140557e+003,-3.786994e+000
3.141521e+003,-2.615604e+000
3.142485e+003,-3.392578e+000
3.143449e+003,-4.197287e+000
3.144414e+003,-2.924435e+000
3.145378e+003,-2.309912e+000
3.146342e+003,-3.667859e+000
3.147306e+003,-4.442627e+000
3.148271e+003,-3.486838e+000
3.149235e+003,-2.765836e+000
3.150199e+003,-3.390012e+000
3.151163e+003,-4.291702e+000
3.152128e+003,-5.348587e+000
3.153092e+003,-5.532730e+000
3.154056e+003,-4.801190e+000
3.155020e+003,-3.443176e+000
3.155985e+003,-1.947195e+000
3.156949e+003,-2.487439e+000
3.157913e+003,-4.348258e+000
3.158877e+003,-5.389276e+000
3.159842e+003,-5.444192e+000
3.160806e+003,-5.064197e+000
3.161770e+003,-4.407477e+000
3.162734e+003,-3.695889e+000
3.163698e+003,-3.207321e+000
3.164663e+003,-3.789255e+000
3.165627e+003,-4.695520e+000
3.166591e+003,-5.602707e+000
3.167555e+003,-5.726828e+000
3.168520e+003,-4.454410e+000
3.169484e+003,-3.264926e+000
3.170448e+003,-2.837259e+000
3.171412e+003,-3.393555e+000
3.172376e+003,-5.067899e+000
3.173341e+003,-5.886996e+000
3.174305e+003,-4.470090e+000
3.175269e+003,-3.077994e+000
3.176233e+003,-1.684085e+000
3.177198e+003,-2.301724e+000
3.178162e+003,-4.575519e+000
3.179126e+003,-5.413379e+000
3.180090e+003,-4.976264e+000
3.181055e+003,-4.784189e+000
3.182019e+003,-4.960550e+000
3.182983e+003,-5.191992e+000
3.183947e+003,-5.224185e+000
3.184912e+003,-4.338767e+000
3.185876e+003,-3.175498e+000
3.186840e+003,-3.226730e+000
3.187804e+003,-3.777884e+000
3.188769e+003,-3.932919e+000
3.189733e+003,-4.527008e+000
3.190697e+003,-6.540634e+000
3.191661e+003,-7.275842e+000
3.192625e+003,-5.615884e+000
3.193590e+003,-4.894946e+000
3.194554e+003,-6.753922e+000
3.195518e+003,-7.635083e+000
3.196482e+003,-5.573563e+000
3.197447e+003,-3.249676e+000
3.198411e+003,-5.352203e-001
3.199375e+003,-1.431558e+000
3.200339e+003,-4.991293e+000
3.201303e+003,-5.141220e+000
3.202268e+003,-2.938080e+000
3.203232e+003,-1.704694e+000
3.204196e+003,-1.992130e+000
3.205160e+003,-4.138074e+000
3.206125e+003,-6.406595e+000
3.207089e+003,-5.389359e+000
3.208053e+003,-3.392190e+000
3.209017e+003,-4.866797e+000
3.209982e+003,-6.655173e+000
3.210946e+003,-6.011050e+000
3.211910e+003,-4.904700e+000
3.212874e+003,-3.898785e+000
3.213839e+003,-3.692667e+000
3.214803e+003,-4.459344e+000
3.215767e+003,-5.393573e+000
3.216731e+003,-6.084448e+000
3.217696e+003,-6.221539e+000
3.218660e+003,-5.630655e+000
3.219624e+003,-5.025604e+000
3.220588e+003,-4.383243e+000
3.221552e+003,-4.939914e+000
3.222517e+003,-6.091403e+000
3.223481e+003,-6.013605e+000
3.224445e+003,-5.289960e+000
3.225409e+003,-4.858008e+000
3.226374e+003,-4.783963e+000
3.227338e+003,-5.211951e+000
3.228302e+003,-5.210977e+000
3.229266e+003,-3.365640e+000
3.230230e+003,-1.762207e+000
3.231195e+003,-3.145279e+000
3.232159e+003,-4.676276e+000
3.233123e+003,-5.144614e+000
3.234087e+003,-5.592731e+000
3.235052e+003,-6.174802e+000
3.236016e+003,-5.629498e+000
3.236980e+003,-4.062515e+000
3.237944e+003,-3.632819e+000
3.238909e+003,-4.568762e+000
3.239873e+003,-4.217462e+000
3.240837e+003,-2.681983e+000
3.241801e+003,-2.387885e+000
3.242766e+003,-2.983054e+000
3.243730e+003,-3.073144e+000
3.244694e+003,-3.012933e+000
3.245658e+003,-3.044000e+000
3.246623e+003,-3.706839e+000
3.247587e+003,-5.783395e+000
3.248551e+003,-7.226886e+000
3.249515e+003,-6.724997e+000
3.250479e+003,-5.605933e+000
3.251444e+003,-4.757452e+000
3.252408e+003,-4.401001e+000
3.253372e+003,-4.704370e+000
3.254336e+003,-5.718277e+000
3.255301e+003,-7.553851e+000
3.256265e+003,-7.548898e+000
3.257229e+003,-5.997760e+000
3.258193e+003,-5.119562e+000
3.259157e+003,-4.916162e+000
3.260122e+003,-4.220386e+000
3.261086e+003,-3.389508e+000
3.262050e+003,-3.569290e+000
3.263014e+003,-4.050009e+000
3.263979e+003,-2.833316e+000
3.264943e+003,-1.452246e+000
3.265907e+003,-1.640155e+000
3.266871e+003,-2.684140e+000
3.267836e+003,-4.921591e+000
3.268800e+003,-5.750196e+000
3.269764e+003,-4.439459e+000
3.270728e+003,-3.833133e+000
3.271693e+003,-4.839715e+000
3.272657e+003,-5.467090e+000
3.273621e+003,-5.017172e+000
3.274585e+003,-4.648727e+000
3.275550e+003,-4.427463e+000
3.276514e+003,-3.648947e+000
3.277478e+003,-2.814087e+000
3.278442e+003,-4.048111e+000
3.279406e+003,-5.628922e+000
3.280371e+003,-4.157431e+000
3.281335e+003,-2.756558e+000
3.282299e+003,-4.438342e+000
3.283263e+003,-5.810056e+000
3.284228e+003,-3.615845e+000
3.285192e+003,-1.031265e+000
3.286156e+003,-4.807404e-001
3.287120e+003,-7.866791e-001
3.288084e+003,-2.288721e+000
3.289049e+003,-1.364874e+000
3.290013e+003,1.710040e+000
3.290977e+003,5.536896e-001
3.291941e+003,-3.787134e+000
3.292906e+003,-4.781781e+000
3.293870e+003,-2.583502e+000
3.294834e+003,-1.441016e+000
3.295798e+003,-1.268759e+000
3.296763e+003,-2.269144e+000
3.297727e+003,-3.261618e+000
3.298691e+003,-1.631985e+000
3.299655e+003,9.815979e-002
3.300620e+003,-2.807861e-001
3.301584e+003,-6.043183e-001
3.302548e+003,-2.715057e-001
3.303512e+003,-1.503693e-001
3.304477e+003,-4.685150e-001
3.305441e+003,-2.877045e-001
3.306405e+003,7.255096e-001
3.307369e+003,5.640137e-001
3.308333e+003,-9.406799e-001
3.309298e+003,-7.838074e-001
3.310262e+003,3.944092e-001
3.311226e+003,8.056427e-001
3.312190e+003,7.010956e-001
3.313155e+003,4.265106e-001
3.314119e+003,2.226562e-002
3.315083e+003,-5.854187e-001
3.316047e+003,-6.893524e-001
3.317011e+003,3.494385e-001
3.317976e+003,1.244345e+000
3.318940e+003,9.588806e-001
3.319904e+003,4.129639e-001
3.320868e+003,-2.391113e-001
3.321833e+003,-1.096530e+000
3.322797e+003,-1.868768e+000
3.323761e+003,-7.041321e-002
3.324725e+003,2.827826e+000
3.325690e+003,1.796796e+000
3.326654e+003,-1.293933e+000
3.327618e+003,-1.470367e+000
3.328582e+003,2.552185e-002
3.329547e+003,1.280286e+000
3.330511e+003,2.029544e+000
3.331475e+003,1.390051e+000
3.332439e+003,1.064209e+000
3.333404e+003,1.964246e+000
3.334368e+003,2.511569e+000
3.335332e+003,2.375919e+000
3.336296e+003,1.588544e+000
3.337260e+003,3.803986e-001
3.338225e+003,-1.796265e-001
3.339189e+003,1.611053e-001
3.340153e+003,1.000098e+000
3.341117e+003,2.017975e+000
3.342082e+003,7.921203e-001
3.343046e+003,-9.788208e-001
3.344010e+003,-4.113403e-001
3.344974e+003,7.803345e-001
3.345938e+003,1.355359e+000
3.346903e+003,1.555615e+000
3.347867e+003,1.497641e+000
3.348831e+003,1.501697e+000
3.349795e+003,1.760382e+000
3.350760e+003,1.414560e+000
3.351724e+003,-4.265442e-001
3.352688e+003,-2.859772e-001
3.353652e+003,1.639865e+000
3.354617e+003,3.670859e+000
3.355581e+003,5.146298e+000
3.356545e+003,4.496680e+000
3.357509e+003,3.030286e+000
3.358474e+003,2.557028e+000
3.359438e+003,2.232098e+000
3.360402e+003,1.092700e+000
3.361366e+003,1.344458e+000
3.362331e+003,7.040402e+000
3.363295e+003,9.517819e+000
3.364259e+003,3.203522e+000
3.365223e+003,1.336429e+000
3.366188e+003,4.303833e+000
3.367152e+003,5.303735e+000
3.368116e+003,4.173425e+000
3.369080e+003,3.448288e+000
3.370044e+003,3.499347e+000
3.371009e+003,4.045950e+000
3.371973e+003,4.747641e+000
3.372937e+003,4.835589e+000
3.373901e+003,4.836722e+000
3.374865e+003,5.396100e+000
3.375830e+003,6.082956e+000
3.376794e+003,6.837500e+000
3.377758e+003,7.297830e+000
3.378722e+003,7.366971e+000
3.379687e+003,6.889691e+000
3.380651e+003,5.951562e+000
3.381615e+003,4.723221e+000
3.382579e+003,3.611948e+000
3.383544e+003,4.751828e+000
3.384508e+003,7.248578e+000
3.385472e+003,8.179886e+000
3.386436e+003,8.146444e+000
3.387401e+003,7.380719e+000
3.388365e+003,6.563724e+000
3.389329e+003,5.930115e+000
3.390293e+003,5.948911e+000
3.391258e+003,6.739301e+000
3.392222e+003,7.450815e+000
3.393186e+003,7.753711e+000
3.394150e+003,8.164526e+000
3.395115e+003,8.754532e+000
3.396079e+003,7.867340e+000
3.397043e+003,6.317230e+000
3.398007e+003,6.718527e+000
3.398971e+003,8.153028e+000
3.399936e+003,9.840915e+000
3.400900e+003,1.077142e+001
3.401864e+003,1.034487e+001
3.402828e+003,9.703257e+000
3.403792e+003,9.640079e+000
3.404757e+003,9.624689e+000
3.405721e+003,9.045725e+000
3.406685e+003,9.883673e+000
3.407649e+003,1.212960e+001
3.408614e+003,1.190319e+001
3.409578e+003,1.019549e+001
3.410542e+003,9.869525e+000
3.411506e+003,1.045489e+001
3.412471e+003,1.081100e+001
3.413435e+003,1.115163e+001
3.414399e+003,1.175499e+001
3.415363e+003,1.233151e+001
3.416328e+003,1.255727e+001
3.417292e+003,1.275926e+001
3.418256e+003,1.322426e+001
3.419220e+003,1.290951e+001
3.420185e+003,1.187669e+001
3.421149e+003,1.074475e+001
3.422113e+003,9.875818e+000
3.423077e+003,9.833939e+000
3.424042e+003,1.064219e+001
3.425006e+003,1.228420e+001
3.425970e+003,1.416583e+001
3.426934e+003,1.570360e+001
