7.140112e+001,2.067945e+002
7.236536e+001,1.953303e+002
7.332959e+001,1.933777e+002
7.429382e+001,2.017655e+002
7.525806e+001,2.222605e+002
7.622229e+001,2.327475e+002
7.718652e+001,2.177112e+002
7.815076e+001,1.629610e+002
7.911499e+001,1.268580e+002
8.007922e+001,1.051126e+002
8.104346e+001,9.754663e+001
8.200769e+001,1.054572e+002
8.297192e+001,1.389166e+002
8.393616e+001,1.759966e+002
8.490039e+001,2.229865e+002
8.586462e+001,2.690558e+002
8.682886e+001,2.965558e+002
8.779310e+001,2.663965e+002
8.875733e+001,2.179062e+002
8.972157e+001,1.708781e+002
9.068580e+001,1.331998e+002
9.165003e+001,1.052190e+002
9.261427e+001,9.576213e+001
9.357850e+001,9.870950e+001
9.454273e+001,1.033098e+002
9.550697e+001,1.021362e+002
9.647120e+001,9.312810e+001
9.743543e+001,8.674321e+001
9.839967e+001,8.348027e+001
9.936390e+001,8.166284e+001
1.003281e+002,7.935842e+001
1.012924e+002,7.532681e+001
1.022566e+002,7.186845e+001
1.032208e+002,6.897595e+001
1.041851e+002,6.712846e+001
1.051493e+002,6.714231e+001
1.061135e+002,7.498895e+001
1.070778e+002,8.092832e+001
1.080420e+002,7.900299e+001
1.090062e+002,6.823100e+001
1.099705e+002,5.321133e+001
1.109347e+002,4.431001e+001
1.118989e+002,3.994275e+001
1.128632e+002,4.110530e+001
1.138274e+002,4.864270e+001
1.147916e+002,6.408241e+001
1.157559e+002,7.171999e+001
1.167201e+002,6.944651e+001
1.176843e+002,6.366829e+001
1.186486e+002,6.226249e+001
1.196128e+002,6.955176e+001
1.205770e+002,7.556279e+001
1.215413e+002,8.248830e+001
1.225055e+002,8.782684e+001
1.234697e+002,8.650661e+001
1.244340e+002,6.593925e+001
1.253982e+002,4.464429e+001
1.263624e+002,2.420339e+001
1.273267e+002,7.487525e+000
1.282909e+002,-2.752075e-001
1.292551e+002,2.566706e+001
1.302194e+002,6.173481e+001
1.311836e+002,8.676432e+001
1.321478e+002,8.741148e+001
1.331121e+002,6.354414e+001
1.340763e+002,4.335707e+001
1.350405e+002,2.504015e+001
1.360048e+002,1.304293e+001
1.369690e+002,1.346064e+001
1.379332e+002,4.004265e+001
1.388975e+002,5.671865e+001
1.398617e+002,6.032555e+001
1.408259e+002,5.540234e+001
1.417902e+002,4.909069e+001
1.427544e+002,4.249253e+001
1.437186e+002,3.667677e+001
1.446829e+002,3.172034e+001
1.456471e+002,2.771471e+001
1.466113e+002,2.469799e+001
1.475756e+002,2.112524e+001
1.485398e+002,1.968909e+001
1.495040e+002,2.518934e+001
1.504683e+002,3.844263e+001
1.514325e+002,5.609566e+001
1.523967e+002,5.697722e+001
1.533610e+002,4.506031e+001
1.543252e+002,3.144641e+001
1.552894e+002,2.407362e+001
1.562537e+002,2.553370e+001
1.572179e+002,2.593876e+001
1.581821e+002,2.295900e+001
1.591464e+002,2.054486e+001
1.601106e+002,2.362748e+001
1.610748e+002,3.984514e+001
1.620391e+002,4.989417e+001
1.630033e+002,4.617414e+001
1.639676e+002,3.465833e+001
1.649318e+002,2.494984e+001
1.658960e+002,2.946185e+001
1.668603e+002,3.553548e+001
1.678245e+002,3.286163e+001
1.687887e+002,2.222518e+001
1.697530e+002,9.615320e+000
1.707172e+002,1.363635e+001
1.716814e+002,2.807135e+001
1.726457e+002,3.846484e+001
1.736099e+002,3.929140e+001
1.745741e+002,3.016239e+001
1.755384e+002,2.216633e+001
1.765026e+002,1.386293e+001
1.774668e+002,7.555237e+000
1.784311e+002,5.228369e+000
1.793953e+002,8.676416e+000
1.803595e+002,1.105730e+001
1.813238e+002,1.073650e+001
1.822880e+002,9.296069e+000
1.832522e+002,8.164331e+000
1.842165e+002,8.709521e+000
1.851807e+002,8.401306e+000
1.861449e+002,4.060608e+000
1.871092e+002,-1.955908e+000
1.880734e+002,-6.755786e+000
1.890376e+002,-6.379114e+000
1.900019e+002,-1.286999e+000
1.909661e+002,6.866529e+000
1.919303e+002,1.774507e+001
1.928946e+002,2.902491e+001
1.938588e+002,3.256313e+001
1.948230e+002,2.321287e+001
1.957873e+002,1.744583e+001
1.967515e+002,1.931130e+001
1.977157e+002,2.860355e+001
1.986800e+002,3.637144e+001
1.996442e+002,3.931522e+001
2.006084e+002,4.261523e+001
2.015727e+002,4.994361e+001
2.025369e+002,6.223008e+001
2.035011e+002,6.997887e+001
2.044654e+002,6.444028e+001
2.054296e+002,5.383268e+001
2.063938e+002,4.142419e+001
2.073581e+002,2.952719e+001
2.083223e+002,1.965741e+001
2.092865e+002,1.300717e+001
2.102508e+002,9.855237e+000
2.112150e+002,1.333982e+001
2.121792e+002,2.698719e+001
2.131435e+002,5.467725e+001
2.141077e+002,7.078557e+001
2.150719e+002,7.201221e+001
2.160362e+002,6.536458e+001
2.170004e+002,6.095290e+001
2.179646e+002,6.046645e+001
2.189289e+002,6.017888e+001
2.198931e+002,5.781633e+001
2.208573e+002,5.537976e+001
2.218216e+002,5.671371e+001
2.227858e+002,6.715863e+001
2.237500e+002,7.976567e+001
2.247143e+002,9.700899e+001
2.256785e+002,1.151896e+002
2.266427e+002,1.267194e+002
2.276070e+002,1.111147e+002
2.285712e+002,8.162483e+001
2.295354e+002,5.365369e+001
2.304997e+002,3.194513e+001
2.314639e+002,1.640183e+001
2.324281e+002,8.436792e+000
2.333924e+002,8.843018e+000
2.343566e+002,1.100328e+001
2.353208e+002,1.308789e+001
2.362851e+002,1.521367e+001
2.372493e+002,1.616810e+001
2.382135e+002,1.513848e+001
2.391778e+002,1.383018e+001
2.401420e+002,1.344652e+001
2.411062e+002,1.467991e+001
2.420705e+002,1.453247e+001
2.430347e+002,9.997571e+000
2.439989e+002,4.295068e+000
2.449632e+002,-1.804810e-001
2.459274e+002,-1.576514e+000
2.468916e+002,-8.628296e-001
2.478559e+002,-5.447143e-001
2.488201e+002,-5.025390e-001
2.497843e+002,-7.042969e-001
2.507486e+002,-1.152551e+000
2.517128e+002,-2.003162e+000
2.526770e+002,2.493164e-001
2.536413e+002,7.563611e+000
2.546055e+002,1.621696e+001
2.555697e+002,2.016079e+001
2.565340e+002,1.390629e+001
2.574982e+002,1.035317e+001
2.584625e+002,1.310015e+001
2.594267e+002,1.890117e+001
2.603909e+002,2.187101e+001
2.613552e+002,1.579062e+001
2.623194e+002,8.808630e+000
2.632836e+002,3.898694e+000
2.642479e+002,1.345947e+000
2.652121e+002,6.897583e-001
2.661763e+002,2.373267e+000
2.671406e+002,4.911353e+000
2.681048e+002,5.636401e+000
2.690690e+002,4.169299e+000
2.700333e+002,1.483484e+000
2.709975e+002,1.808765e+000
2.719617e+002,6.648889e+000
2.729260e+002,9.582251e+000
2.738902e+002,8.207275e+000
2.748544e+002,2.592908e+000
2.758187e+002,-1.381934e+000
2.767829e+002,-2.947705e+000
2.777471e+002,-3.616894e+000
2.787114e+002,-3.405347e+000
2.796756e+002,-2.351514e+000
2.806398e+002,-1.024939e+000
2.816041e+002,4.555664e-002
2.825683e+002,1.141602e+000
2.835325e+002,2.264209e+000
2.844968e+002,3.487891e+000
2.854610e+002,5.113269e+000
2.864252e+002,9.102575e+000
2.873895e+002,1.390491e+001
2.883537e+002,1.688970e+001
2.893179e+002,1.642234e+001
2.902822e+002,1.233485e+001
2.912464e+002,7.974792e+000
2.922106e+002,2.723499e+000
2.931749e+002,-2.006116e+000
2.941391e+002,-5.454810e+000
2.951033e+002,-7.703662e+000
2.960676e+002,-8.372583e+000
2.970318e+002,-7.267871e+000
2.979960e+002,-5.068762e+000
2.989603e+002,-2.073853e+000
2.999245e+002,1.706104e+000
3.008887e+002,5.563574e+000
3.018530e+002,9.558496e+000
3.028172e+002,1.316023e+001
3.037814e+002,1.575572e+001
3.047457e+002,1.681472e+001
3.057099e+002,1.672458e+001
3.066741e+002,1.741565e+001
3.076384e+002,1.849004e+001
3.086026e+002,1.829312e+001
3.095668e+002,1.485728e+001
3.105311e+002,6.535645e+000
3.114953e+002,1.369543e+000
3.124595e+002,4.963379e-001
3.134238e+002,1.500500e+000
3.143880e+002,1.471375e+000
3.153522e+002,-1.058716e+000
3.163165e+002,-2.250464e+000
3.172807e+002,-7.127320e-001
3.182449e+002,2.190552e+000
3.192092e+002,4.782666e+000
3.201734e+002,5.579468e+000
3.211376e+002,6.480859e+000
3.221019e+002,9.418945e+000
3.230661e+002,1.354270e+001
3.240303e+002,1.767543e+001
3.249946e+002,2.051722e+001
3.259588e+002,2.156852e+001
3.269230e+002,2.049504e+001
3.278873e+002,1.718663e+001
3.288515e+002,1.333557e+001
3.298157e+002,1.199880e+001
3.307800e+002,1.604576e+001
3.317442e+002,1.803777e+001
3.327084e+002,1.591351e+001
3.336727e+002,1.214529e+001
3.346369e+002,1.132328e+001
3.356011e+002,1.796292e+001
3.365654e+002,2.271063e+001
3.375296e+002,2.237715e+001
3.384938e+002,1.900654e+001
3.394581e+002,1.590743e+001
3.404223e+002,1.591610e+001
3.413865e+002,1.723965e+001
3.423508e+002,1.835192e+001
3.433150e+002,1.920795e+001
3.442792e+002,1.988733e+001
3.452435e+002,2.038743e+001
3.462077e+002,2.083438e+001
3.471719e+002,2.190689e+001
3.481362e+002,2.286720e+001
3.491004e+002,2.549146e+001
3.500646e+002,3.371550e+001
3.510289e+002,4.760790e+001
3.519931e+002,6.970427e+001
3.529573e+002,1.016991e+002
3.539216e+002,1.413109e+002
3.548858e+002,1.873241e+002
3.558500e+002,2.604233e+002
3.568143e+002,3.078178e+002
3.577785e+002,3.053917e+002
3.587427e+002,2.663622e+002
3.597070e+002,2.129034e+002
3.606712e+002,1.607788e+002
3.616354e+002,1.154033e+002
3.625997e+002,8.195773e+001
3.635639e+002,6.007822e+001
3.645281e+002,4.740315e+001
3.654924e+002,3.992634e+001
3.664566e+002,3.932140e+001
3.674208e+002,3.692696e+001
3.683851e+002,3.200919e+001
3.693493e+002,2.548644e+001
3.703135e+002,1.924611e+001
3.712778e+002,1.185981e+001
3.722420e+002,7.606409e+000
3.732062e+002,8.282580e+000
3.741705e+002,1.175356e+001
3.751347e+002,1.481420e+001
3.760989e+002,1.565009e+001
3.770632e+002,1.593882e+001
3.780274e+002,1.618739e+001
3.789916e+002,1.651602e+001
3.799559e+002,1.726867e+001
3.809201e+002,1.924860e+001
3.818844e+002,2.128180e+001
3.828486e+002,2.014219e+001
3.838128e+002,1.610867e+001
3.847771e+002,1.130504e+001
3.857413e+002,8.910632e+000
3.867055e+002,1.018597e+001
3.876698e+002,1.113673e+001
3.886340e+002,9.960241e+000
3.895982e+002,9.088440e+000
3.905625e+002,1.257769e+001
3.915267e+002,2.554139e+001
3.924909e+002,3.413354e+001
3.934552e+002,3.463462e+001
3.944194e+002,3.086171e+001
3.953836e+002,2.662590e+001
3.963479e+002,2.373651e+001
3.973121e+002,2.208066e+001
3.982763e+002,2.201973e+001
3.992406e+002,2.262633e+001
4.002048e+002,2.223546e+001
4.011690e+002,1.914176e+001
4.021333e+002,1.425055e+001
4.030975e+002,1.424542e+001
4.040617e+002,1.913383e+001
4.050260e+002,2.477917e+001
4.059902e+002,2.680248e+001
4.069544e+002,2.322161e+001
4.079187e+002,2.128726e+001
4.088829e+002,2.165320e+001
4.098471e+002,2.262527e+001
4.108114e+002,2.287330e+001
4.117756e+002,2.188516e+001
4.127398e+002,2.142053e+001
4.137041e+002,2.244191e+001
4.146683e+002,2.397728e+001
4.156325e+002,2.557299e+001
4.165968e+002,2.695327e+001
4.175610e+002,2.764713e+001
4.185252e+002,2.651971e+001
4.194895e+002,2.451659e+001
4.204537e+002,2.240884e+001
4.214179e+002,2.073173e+001
4.223822e+002,1.963419e+001
4.233464e+002,2.232744e+001
4.243106e+002,2.956515e+001
4.252749e+002,3.570615e+001
4.262391e+002,3.709407e+001
4.272033e+002,3.313120e+001
4.281676e+002,3.243546e+001
4.291318e+002,3.753650e+001
4.300960e+002,4.364675e+001
4.310603e+002,4.817218e+001
4.320245e+002,5.113961e+001
4.329887e+002,5.653941e+001
4.339530e+002,6.514366e+001
4.349172e+002,7.980051e+001
4.358814e+002,1.057310e+002
4.368457e+002,1.419424e+002
4.378099e+002,1.828569e+002
4.387741e+002,2.224043e+002
4.397384e+002,2.563175e+002
4.407026e+002,2.694530e+002
4.416668e+002,2.572571e+002
4.426311e+002,2.255261e+002
4.435953e+002,1.933871e+002
4.445595e+002,1.565807e+002
4.455238e+002,1.255050e+002
4.464880e+002,1.010666e+002
4.474522e+002,8.256392e+001
4.484165e+002,6.915619e+001
4.493807e+002,6.425541e+001
4.503449e+002,6.057206e+001
4.513092e+002,5.573795e+001
4.522734e+002,5.045995e+001
4.532376e+002,4.639514e+001
4.542019e+002,4.567426e+001
4.551661e+002,4.525500e+001
4.561303e+002,4.019979e+001
4.570946e+002,3.216531e+001
4.580588e+002,2.471608e+001
4.590230e+002,2.177599e+001
4.599873e+002,2.384394e+001
4.609515e+002,2.478984e+001
4.619157e+002,2.414806e+001
4.628800e+002,2.335501e+001
4.638442e+002,2.373580e+001
4.648084e+002,2.568773e+001
4.657727e+002,2.771570e+001
4.667369e+002,3.071624e+001
4.677011e+002,3.313012e+001
4.686654e+002,3.371722e+001
4.696296e+002,3.202954e+001
4.705938e+002,2.980671e+001
4.715581e+002,2.843238e+001
4.725223e+002,2.707894e+001
4.734865e+002,2.514650e+001
4.744508e+002,2.247372e+001
4.754150e+002,1.940770e+001
4.763792e+002,1.609576e+001
4.773435e+002,1.297273e+001
4.783077e+002,1.226132e+001
4.792719e+002,1.514049e+001
4.802362e+002,2.058173e+001
4.812004e+002,2.260542e+001
4.821646e+002,1.726976e+001
4.831289e+002,1.308912e+001
4.840931e+002,1.064097e+001
4.850573e+002,9.789294e+000
4.860216e+002,1.040364e+001
4.869858e+002,1.500706e+001
4.879500e+002,1.812338e+001
4.889143e+002,1.698455e+001
4.898785e+002,1.338285e+001
4.908427e+002,1.019155e+001
4.918070e+002,9.794507e+000
4.927712e+002,1.101478e+001
4.937354e+002,1.194894e+001
4.946997e+002,1.252186e+001
4.956639e+002,1.246315e+001
4.966281e+002,1.146549e+001
4.975924e+002,9.418469e+000
4.985566e+002,8.054602e+000
4.995208e+002,7.071021e+000
5.004851e+002,6.864026e+000
5.014493e+002,8.140857e+000
5.024135e+002,1.147969e+001
5.033778e+002,1.354255e+001
5.043420e+002,1.343131e+001
5.053063e+002,1.293616e+001
5.062705e+002,1.283585e+001
5.072347e+002,1.319005e+001
5.081990e+002,1.321526e+001
5.091632e+002,1.127655e+001
5.101274e+002,9.325586e+000
5.110917e+002,8.902283e+000
5.120559e+002,1.011189e+001
5.130201e+002,1.191350e+001
5.139844e+002,1.215499e+001
5.149486e+002,1.089623e+001
5.159128e+002,1.015776e+001
5.168771e+002,1.041187e+001
5.178413e+002,1.102825e+001
5.188055e+002,1.054064e+001
5.197698e+002,7.742236e+000
5.207340e+002,5.589502e+000
5.216982e+002,4.636774e+000
5.226625e+002,4.051465e+000
5.236267e+002,2.554834e+000
5.245909e+002,-1.037830e+000
5.255552e+002,-3.029016e+000
5.265194e+002,-6.599671e-001
5.274836e+002,3.197058e+000
5.284479e+002,6.318585e+000
5.294121e+002,7.442132e+000
5.303763e+002,7.059991e+000
5.313406e+002,5.057660e+000
5.323048e+002,2.359308e+000
5.332690e+002,1.335791e+000
5.342333e+002,3.263263e+000
5.351975e+002,7.572119e+000
5.361617e+002,9.511780e+000
5.371260e+002,7.242523e+000
5.380902e+002,5.587250e+000
5.390544e+002,5.691821e+000
5.400187e+002,6.980420e+000
5.409829e+002,7.696362e+000
5.419471e+002,6.980646e+000
5.429114e+002,6.405292e+000
5.438756e+002,6.583972e+000
5.448398e+002,7.087305e+000
5.458041e+002,7.242163e+000
5.467683e+002,6.536102e+000
5.477325e+002,5.407288e+000
5.486968e+002,4.664325e+000
5.496610e+002,4.063348e+000
5.506252e+002,2.921088e+000
5.515895e+002,6.633789e-001
5.525537e+002,-2.651282e+000
5.535179e+002,-3.216278e+000
5.544822e+002,-6.662781e-001
5.554464e+002,2.371643e+000
5.564106e+002,5.084455e+000
5.573749e+002,7.432227e+000
5.583391e+002,8.061218e+000
5.593033e+002,4.797961e+000
5.602676e+002,2.000830e+000
5.612318e+002,8.739685e-001
5.621960e+002,1.237921e+000
5.631603e+002,2.190430e+000
5.641245e+002,3.745605e+000
5.650887e+002,4.825470e+000
5.660530e+002,4.161120e+000
5.670172e+002,2.316864e+000
5.679814e+002,5.402893e-001
5.689457e+002,1.784668e-001
5.699099e+002,1.161548e+000
5.708741e+002,1.894434e+000
5.718384e+002,2.492859e+000
5.728026e+002,2.726550e+000
5.737668e+002,2.153735e+000
5.747311e+002,4.123291e-001
5.756953e+002,-4.184875e-001
5.766595e+002,2.503418e-001
5.776238e+002,1.080212e+000
5.785880e+002,1.863934e+000
5.795522e+002,2.446307e+000
5.805165e+002,2.329114e+000
5.814807e+002,1.644592e-001
5.824449e+002,-1.863721e+000
5.834092e+002,-2.667822e+000
5.843734e+002,-2.289471e+000
5.853376e+002,-1.194971e+000
5.863019e+002,1.617737e-001
5.872661e+002,1.742004e+000
5.882303e+002,3.475293e+000
5.891946e+002,5.415277e+000
5.901588e+002,6.756269e+000
5.911230e+002,6.393225e+000
5.920873e+002,3.416205e+000
5.930515e+002,2.333972e+000
5.940157e+002,4.681293e+000
5.949800e+002,6.785858e+000
5.959442e+002,6.385230e+000
5.969084e+002,3.446039e+000
5.978727e+002,1.079358e+000
5.988369e+002,2.263947e+000
5.998011e+002,3.406830e+000
6.007654e+002,2.861291e+000
6.017296e+002,8.188904e-001
6.026938e+002,-1.658673e+000
6.036581e+002,-3.710693e+000
6.046223e+002,-4.799359e+000
6.055865e+002,-3.476422e+000
6.065508e+002,6.054688e-002
6.075150e+002,3.318127e+000
6.084792e+002,3.435944e+000
6.094435e+002,-5.969360e-001
6.104077e+002,-2.490070e+000
6.113719e+002,-1.335431e+000
6.123362e+002,1.754700e-001
6.133004e+002,6.190979e-001
6.142646e+002,-4.671631e-002
6.152289e+002,-4.446777e-001
6.161931e+002,5.729736e-001
6.171573e+002,1.399969e+000
6.181216e+002,1.326074e+000
6.190858e+002,6.000366e-001
6.200500e+002,-7.720337e-002
6.210143e+002,-1.511780e-001
6.219785e+002,3.471192e-001
6.229427e+002,1.637573e+000
6.239070e+002,3.407452e+000
6.248712e+002,4.303393e+000
6.258354e+002,2.915857e+000
6.267997e+002,-1.154559e+000
6.277639e+002,-2.380988e+000
6.287281e+002,8.257385e-001
6.296924e+002,3.781421e+000
6.306566e+002,4.023572e+000
6.316208e+002,1.843384e+000
6.325851e+002,6.129883e-001
6.335493e+002,3.073212e+000
6.345135e+002,5.044995e+000
6.354778e+002,4.870599e+000
6.364420e+002,3.263251e+000
6.374063e+002,1.903088e+000
6.383705e+002,2.178430e+000
6.393347e+002,3.117743e+000
6.402990e+002,3.079858e+000
6.412632e+002,2.354266e+000
6.422274e+002,1.463977e+000
6.431917e+002,7.749451e-001
6.441559e+002,2.733276e-001
6.451201e+002,2.660889e-001
6.460844e+002,8.524048e-001
6.470486e+002,1.587408e+000
6.480128e+002,2.787451e+000
6.489771e+002,4.165118e+000
6.499413e+002,4.373041e+000
6.509055e+002,1.887238e+000
6.518698e+002,-2.184326e-001
6.528340e+002,-1.315710e+000
6.537982e+002,-1.490588e+000
6.547625e+002,-6.474365e-001
6.557267e+002,1.444379e+000
6.566909e+002,3.394525e+000
6.576552e+002,2.721637e+000
6.586194e+002,6.832398e-001
6.595836e+002,-9.246155e-001
6.605479e+002,-1.180627e+000
6.615121e+002,-3.286499e-001
6.624763e+002,5.065552e-001
6.634406e+002,1.428912e+000
6.644048e+002,2.000482e+000
6.653690e+002,1.751709e+000
6.663333e+002,1.099347e+000
6.672975e+002,9.417969e-001
6.682617e+002,1.698828e+000
6.692260e+002,2.530444e+000
6.701902e+002,3.281409e+000
6.711544e+002,3.964148e+000
6.721187e+002,4.521081e+000
6.730829e+002,4.914056e+000
6.740471e+002,5.220984e+000
6.750114e+002,5.676867e+000
6.759756e+002,6.175360e+000
6.769398e+002,6.645331e+000
6.779041e+002,7.027039e+000
6.788683e+002,7.168189e+000
6.798325e+002,6.787842e+000
6.807968e+002,5.734937e+000
6.817610e+002,4.579913e+000
6.827252e+002,2.769269e+000
6.836895e+002,1.292194e+000
6.846537e+002,1.314264e+000
6.856179e+002,3.208520e+000
6.865822e+002,4.316821e+000
6.875464e+002,3.645465e+000
6.885106e+002,2.521655e+000
6.894749e+002,1.032172e+000
6.904391e+002,-4.487732e-001
6.914034e+002,-1.193518e+000
6.923676e+002,-2.763184e-001
6.933318e+002,1.574860e+000
6.942961e+002,3.627502e+000
6.952603e+002,5.607733e+000
6.962245e+002,6.757104e+000
6.971888e+002,6.339166e+000
6.981530e+002,4.288116e+000
6.991172e+002,2.655139e+000
7.000815e+002,1.047858e+000
7.010457e+002,2.483337e-001
7.020099e+002,1.139850e+000
7.029742e+002,3.320087e+000
7.039384e+002,4.681732e+000
7.049026e+002,4.232287e+000
7.058669e+002,3.537854e+000
7.068311e+002,2.744012e+000
7.077953e+002,2.060883e+000
7.087596e+002,1.739557e+000
7.097238e+002,1.941766e+000
7.106880e+002,2.515540e+000
7.116523e+002,3.108752e+000
7.126165e+002,3.767249e+000
7.135807e+002,4.931806e+000
7.145450e+002,6.750262e+000
7.155092e+002,8.634069e+000
7.164734e+002,8.902453e+000
7.174377e+002,6.562213e+000
7.184019e+002,4.447095e+000
7.193661e+002,1.936609e+000
7.203304e+002,-5.802002e-002
7.212946e+002,-2.770508e-001
7.222589e+002,1.842206e+000
7.232231e+002,3.791608e+000
7.241873e+002,5.064764e+000
7.251516e+002,5.682086e+000
7.261158e+002,5.088501e+000
7.270800e+002,3.603363e+000
7.280443e+002,2.397040e+000
7.290085e+002,2.916583e+000
7.299727e+002,4.396826e+000
7.309370e+002,5.194946e+000
7.319012e+002,5.317786e+000
7.328654e+002,4.958240e+000
7.338297e+002,4.244470e+000
7.347939e+002,3.140332e+000
7.357581e+002,2.236731e+000
7.367224e+002,9.563171e-001
7.376866e+002,5.201050e-001
7.386508e+002,2.252002e+000
7.396151e+002,5.095422e+000
7.405793e+002,5.945984e+000
7.415435e+002,2.642017e+000
7.425078e+002,-4.136841e-001
7.434720e+002,-1.624957e+000
7.444362e+002,-1.591138e+000
7.454005e+002,-6.621399e-001
7.463647e+002,8.979187e-001
7.473289e+002,2.561920e+000
7.482932e+002,3.425800e+000
7.492574e+002,3.646759e+000
7.502216e+002,3.208893e+000
7.511859e+002,2.007690e+000
7.521501e+002,4.145264e-001
7.531143e+002,-8.396240e-001
7.540786e+002,-1.520575e+000
7.550428e+002,-2.259131e+000
7.560070e+002,-3.586292e+000
7.569713e+002,-4.497650e+000
7.579355e+002,-4.208331e+000
7.588997e+002,-2.770563e+000
7.598640e+002,-1.302924e+000
7.608282e+002,-3.108948e-001
7.617924e+002,5.129272e-001
7.627567e+002,8.007447e-001
7.637209e+002,1.084198e+000
7.646851e+002,2.427039e+000
7.656494e+002,5.715100e+000
7.666136e+002,1.026314e+001
7.675778e+002,1.389977e+001
7.685421e+002,1.677987e+001
7.695063e+002,1.757434e+001
7.704705e+002,1.516324e+001
7.714348e+002,1.035831e+001
7.723990e+002,6.376794e+000
7.733632e+002,3.360016e+000
7.743275e+002,1.091419e+000
7.752917e+002,-2.901794e-001
7.762559e+002,-1.068439e+000
7.772202e+002,-1.416052e+000
7.781844e+002,-1.388287e+000
7.791486e+002,-1.167322e+000
7.801129e+002,-7.691223e-001
7.810771e+002,-3.406616e-001
7.820413e+002,3.593079e-001
7.830056e+002,1.108832e+000
7.839698e+002,1.088080e+000
7.849340e+002,-7.639893e-001
7.858983e+002,-4.269897e+000
7.868625e+002,-5.318988e+000
7.878267e+002,-3.648499e+000
7.887910e+002,-1.339819e+000
7.897552e+002,9.187439e-001
7.907194e+002,3.055377e+000
7.916837e+002,4.337232e+000
7.926479e+002,4.467572e+000
7.936121e+002,3.790564e+000
7.945764e+002,1.662238e+000
7.955406e+002,-8.617981e-001
7.965048e+002,-2.739594e+000
7.974691e+002,-3.513123e+000
7.984333e+002,-3.410730e+000
7.993975e+002,-2.353436e+000
8.003618e+002,-8.151184e-001
8.013260e+002,1.124567e+000
8.022902e+002,3.292847e+000
8.032545e+002,4.924414e+000
8.042187e+002,4.810931e+000
8.051829e+002,2.416235e+000
8.061472e+002,1.652490e+000
8.071114e+002,3.809424e+000
8.080756e+002,5.735773e+000
8.090399e+002,5.463056e+000
8.100041e+002,3.391321e+000
8.109683e+002,2.201843e+000
8.119326e+002,3.087897e+000
8.128968e+002,4.365271e+000
8.138610e+002,5.786292e+000
8.148253e+002,7.053687e+000
8.157895e+002,7.644250e+000
8.167537e+002,7.360785e+000
8.177180e+002,7.006592e+000
8.186822e+002,8.474683e+000
8.196464e+002,1.102127e+001
8.206107e+002,1.299208e+001
8.215749e+002,1.398652e+001
8.225391e+002,1.435719e+001
8.235034e+002,1.464377e+001
8.244676e+002,1.481287e+001
8.254318e+002,1.491354e+001
8.263961e+002,1.522970e+001
8.273603e+002,1.536682e+001
8.283245e+002,1.499950e+001
8.292888e+002,1.420966e+001
8.302530e+002,1.339312e+001
8.312172e+002,1.255555e+001
8.321815e+002,1.205670e+001
8.331457e+002,1.286441e+001
8.341099e+002,1.389559e+001
8.350742e+002,1.335509e+001
8.360384e+002,1.051193e+001
8.370026e+002,6.746210e+000
8.379669e+002,5.366559e+000
8.389311e+002,6.497919e+000
8.398953e+002,7.359784e+000
8.408596e+002,7.786206e+000
8.418238e+002,7.747400e+000
8.427880e+002,7.072009e+000
8.437523e+002,5.595276e+000
8.447165e+002,4.419495e+000
8.456807e+002,3.705408e+000
8.466450e+002,3.285040e+000
8.476092e+002,3.425183e+000
8.485734e+002,3.732135e+000
8.495377e+002,3.319849e+000
8.505019e+002,1.460675e+000
8.514661e+002,-3.703003e-001
8.524304e+002,2.934021e-001
8.533946e+002,2.157391e+000
8.543588e+002,3.331409e+000
8.553231e+002,3.068170e+000
8.562873e+002,1.621967e+000
8.572515e+002,-5.456238e-001
8.582158e+002,-4.383704e+000
8.591800e+002,-5.502649e+000
8.601442e+002,-1.789404e+000
8.611085e+002,2.204547e+000
8.620727e+002,3.450391e+000
8.630369e+002,2.080853e+000
8.640012e+002,5.434570e-001
8.649654e+002,-8.647400e-001
8.659296e+002,-1.679413e+000
8.668939e+002,-1.262994e+000
8.678581e+002,-3.206665e-001
8.688223e+002,1.140991e-001
8.697866e+002,-4.518005e-001
8.707508e+002,-1.348267e+000
8.717150e+002,-1.044635e+000
8.726793e+002,1.626038e-001
8.736435e+002,9.471130e-001
8.746077e+002,1.097815e+000
8.755720e+002,8.390076e-001
8.765362e+002,4.096924e-001
8.775004e+002,-2.144165e-001
8.784647e+002,-8.817016e-001
8.794289e+002,-2.107751e+000
8.803931e+002,-2.832782e+000
8.813574e+002,-2.308221e+000
8.823216e+002,-1.116583e+000
8.832858e+002,-4.428711e-001
8.842501e+002,-8.872498e-001
8.852143e+002,-1.529474e+000
8.861785e+002,-1.154675e+000
8.871428e+002,-6.213379e-001
8.881070e+002,-1.107599e+000
8.890712e+002,-2.833374e+000
8.900355e+002,-5.011584e+000
8.909997e+002,-6.397882e+000
8.919639e+002,-6.906091e+000
8.929282e+002,-6.631964e+000
8.938924e+002,-4.808032e+000
8.948566e+002,-3.327960e+000
8.958209e+002,-3.322107e+000
8.967851e+002,-4.472961e+000
8.977493e+002,-5.509253e+000
8.987136e+002,-6.485888e+000
8.996778e+002,-6.795886e+000
9.006420e+002,-5.724811e+000
9.016063e+002,-4.294708e+000
9.025705e+002,-3.336035e+000
9.035347e+002,-3.125220e+000
9.044990e+002,-3.499768e+000
9.054632e+002,-4.520209e+000
9.064274e+002,-5.932623e+000
9.073917e+002,-6.579053e+000
9.083559e+002,-6.394476e+000
9.093201e+002,-5.649542e+000
9.102844e+002,-4.352631e+000
9.112486e+002,-2.574072e+000
9.122128e+002,-1.452753e+000
9.131771e+002,-1.226892e+000
9.141413e+002,-1.475195e+000
9.151055e+002,-2.532440e+000
9.160698e+002,-3.770178e+000
9.170340e+002,-4.785248e+000
9.179982e+002,-5.465161e+000
9.189625e+002,-5.495715e+000
9.199267e+002,-3.945899e+000
9.208909e+002,-2.114557e+000
9.218552e+002,-1.125073e+000
9.228194e+002,-9.953796e-001
9.237836e+002,-1.517078e+000
9.247479e+002,-2.539862e+000
9.257121e+002,-3.963861e+000
9.266763e+002,-5.230329e+000
9.276406e+002,-6.616766e+000
9.286048e+002,-7.191772e+000
9.295690e+002,-6.243787e+000
9.305333e+002,-4.827704e+000
9.314975e+002,-4.107739e+000
9.324617e+002,-4.220960e+000
9.334260e+002,-4.592004e+000
9.343902e+002,-5.980835e+000
9.353545e+002,-6.635882e+000
9.363187e+002,-4.976105e+000
9.372830e+002,-2.125763e+000
9.382472e+002,-2.119873e-001
9.392114e+002,-5.182007e-001
9.401757e+002,-1.960052e+000
9.411399e+002,-2.077142e+000
9.421041e+002,-1.113373e+000
9.430684e+002,-2.420532e-001
9.440326e+002,3.519104e-001
9.449968e+002,6.256287e-001
9.459611e+002,5.123779e-001
9.469253e+002,1.148071e-002
9.478895e+002,-3.495361e-001
9.488538e+002,-1.296387e-001
9.498180e+002,-3.171509e-001
9.507822e+002,-1.861371e+000
9.517465e+002,-3.781659e+000
9.527107e+002,-4.463904e+000
9.536749e+002,-3.211865e+000
9.546392e+002,-1.521960e+000
9.556034e+002,-1.615741e+000
9.565676e+002,-2.305347e+000
9.575319e+002,-1.803888e+000
9.584961e+002,6.048584e-003
9.594603e+002,1.830103e+000
9.604246e+002,2.208527e+000
9.613888e+002,1.100824e+000
9.623530e+002,1.022150e+000
9.633173e+002,2.961554e+000
9.642815e+002,4.520422e+000
9.652457e+002,4.887598e+000
9.662100e+002,5.131836e+000
9.671742e+002,6.176801e+000
9.681384e+002,8.107758e+000
9.691027e+002,1.162706e+001
9.700669e+002,1.425386e+001
9.710311e+002,2.157030e+001
9.719954e+002,4.201211e+001
9.729596e+002,7.030544e+001
9.739238e+002,9.609298e+001
9.748881e+002,1.120537e+002
9.758523e+002,1.170484e+002
9.768165e+002,1.047820e+002
9.777808e+002,7.053561e+001
9.787450e+002,4.444005e+001
9.797092e+002,3.245663e+001
9.806735e+002,2.722498e+001
9.816377e+002,2.240092e+001
9.826019e+002,1.798492e+001
9.835662e+002,1.469404e+001
9.845304e+002,1.311411e+001
9.854946e+002,1.241707e+001
9.864589e+002,1.280222e+001
9.874231e+002,1.368934e+001
9.883873e+002,1.430308e+001
9.893516e+002,1.435687e+001
9.903158e+002,1.432374e+001
9.912800e+002,1.484084e+001
9.922443e+002,1.611248e+001
9.932085e+002,1.812289e+001
9.941727e+002,2.089202e+001
9.951370e+002,2.456862e+001
9.961012e+002,2.865399e+001
9.970654e+002,3.329832e+001
9.980297e+002,3.983598e+001
9.989939e+002,3.749504e+001
9.999581e+002,5.775011e+001
1.000922e+003,1.039652e+002
1.001887e+003,1.712733e+002
1.002851e+003,2.856804e+002
1.003815e+003,4.268416e+002
1.004779e+003,5.098715e+002
1.005744e+003,4.616937e+002
1.006708e+003,3.460585e+002
1.007672e+003,2.524605e+002
1.008636e+003,1.785816e+002
1.009600e+003,1.247161e+002
1.010565e+003,9.134678e+001
1.011529e+003,7.246875e+001
1.012493e+003,5.695589e+001
1.013457e+003,4.505114e+001
1.014422e+003,3.708625e+001
1.015386e+003,3.549380e+001
1.016350e+003,3.387856e+001
1.017314e+003,2.868140e+001
1.018279e+003,2.184976e+001
1.019243e+003,1.772920e+001
1.020207e+003,1.814084e+001
1.021171e+003,1.951671e+001
1.022135e+003,1.907549e+001
1.023100e+003,1.807338e+001
1.024064e+003,1.744573e+001
1.025028e+003,1.726408e+001
1.025992e+003,1.724536e+001
1.026957e+003,1.717189e+001
1.027921e+003,1.704760e+001
1.028885e+003,1.657916e+001
1.029849e+003,1.549196e+001
1.030814e+003,1.470138e+001
1.031778e+003,1.435245e+001
1.032742e+003,1.409545e+001
1.033706e+003,1.354810e+001
1.034671e+003,1.278146e+001
1.035635e+003,1.255829e+001
1.036599e+003,1.377178e+001
1.037563e+003,1.481216e+001
1.038527e+003,1.447600e+001
1.039492e+003,1.356715e+001
1.040456e+003,1.316261e+001
1.041420e+003,1.366129e+001
1.042384e+003,1.460466e+001
1.043349e+003,1.531353e+001
1.044313e+003,1.578403e+001
1.045277e+003,1.668204e+001
1.046241e+003,1.853777e+001
1.047206e+003,1.931569e+001
1.048170e+003,1.700245e+001
1.049134e+003,1.312969e+001
1.050098e+003,1.160486e+001
1.051063e+003,1.343961e+001
1.052027e+003,1.557924e+001
1.052991e+003,1.734354e+001
1.053955e+003,1.862900e+001
1.054919e+003,1.939175e+001
1.055884e+003,1.961354e+001
1.056848e+003,1.913449e+001
1.057812e+003,1.790904e+001
1.058776e+003,1.658878e+001
1.059741e+003,1.650566e+001
1.060705e+003,1.743966e+001
1.061669e+003,1.820720e+001
1.062633e+003,1.869044e+001
1.063598e+003,1.881281e+001
1.064562e+003,1.848684e+001
1.065526e+003,1.780429e+001
1.066490e+003,1.711788e+001
1.067454e+003,1.604202e+001
1.068419e+003,1.562793e+001
1.069383e+003,1.637648e+001
1.070347e+003,1.742924e+001
1.071311e+003,1.802200e+001
1.072276e+003,1.823976e+001
1.073240e+003,1.896001e+001
1.074204e+003,2.101965e+001
1.075168e+003,2.352186e+001
1.076133e+003,2.430361e+001
1.077097e+003,2.375462e+001
1.078061e+003,2.290138e+001
1.079025e+003,2.188772e+001
1.079990e+003,2.115894e+001
1.080954e+003,2.159639e+001
1.081918e+003,2.349274e+001
1.082882e+003,2.454122e+001
1.083846e+003,2.399993e+001
1.084811e+003,2.323508e+001
1.085775e+003,2.201202e+001
1.086739e+003,2.097683e+001
1.087703e+003,2.098002e+001
1.088668e+003,2.214353e+001
1.089632e+003,2.355848e+001
1.090596e+003,2.439405e+001
1.091560e+003,2.490717e+001
1.092525e+003,2.586697e+001
1.093489e+003,2.704580e+001
1.094453e+003,2.757169e+001
1.095417e+003,2.699091e+001
1.096381e+003,2.591266e+001
1.097346e+003,2.565303e+001
1.098310e+003,2.673107e+001
1.099274e+003,2.674587e+001
1.100238e+003,2.419857e+001
1.101203e+003,2.256658e+001
1.102167e+003,2.349490e+001
1.103131e+003,2.558506e+001
1.104095e+003,2.686746e+001
1.105060e+003,2.680524e+001
1.106024e+003,2.654550e+001
1.106988e+003,2.711246e+001
1.107952e+003,2.827345e+001
1.108917e+003,2.986818e+001
1.109881e+003,3.160343e+001
1.110845e+003,3.234467e+001
1.111809e+003,3.138077e+001
1.112773e+003,2.941658e+001
1.113738e+003,2.810356e+001
1.114702e+003,2.748948e+001
1.115666e+003,2.780334e+001
1.116630e+003,3.026208e+001
1.117595e+003,3.186681e+001
1.118559e+003,3.068051e+001
1.119523e+003,2.840272e+001
1.120487e+003,2.768826e+001
1.121452e+003,2.929112e+001
1.122416e+003,3.163578e+001
1.123380e+003,3.366643e+001
1.124344e+003,3.523895e+001
1.125308e+003,3.625073e+001
1.126273e+003,3.681954e+001
1.127237e+003,3.727626e+001
1.128201e+003,3.781864e+001
1.129165e+003,3.812445e+001
1.130130e+003,3.728528e+001
1.131094e+003,3.448070e+001
1.132058e+003,3.284105e+001
1.133022e+003,3.297010e+001
1.133987e+003,3.334431e+001
1.134951e+003,3.369728e+001
1.135915e+003,3.399868e+001
1.136879e+003,3.420592e+001
1.137844e+003,3.430561e+001
1.138808e+003,3.439786e+001
1.139772e+003,3.448145e+001
1.140736e+003,3.446698e+001
1.141700e+003,3.432645e+001
1.142665e+003,3.418240e+001
1.143629e+003,3.424483e+001
1.144593e+003,3.463370e+001
1.145557e+003,3.538235e+001
1.146522e+003,3.655752e+001
1.147486e+003,3.826373e+001
1.148450e+003,3.931969e+001
1.149414e+003,3.972816e+001
1.150379e+003,3.982526e+001
1.151343e+003,3.967152e+001
1.152307e+003,3.929388e+001
1.153271e+003,3.824218e+001
1.154235e+003,3.655616e+001
1.155200e+003,3.574772e+001
1.156164e+003,3.730181e+001
1.157128e+003,4.009574e+001
1.158092e+003,4.284871e+001
1.159057e+003,4.526105e+001
1.160021e+003,4.642919e+001
1.160985e+003,4.595957e+001
1.161949e+003,4.459130e+001
1.162914e+003,4.337433e+001
1.163878e+003,4.233140e+001
1.164842e+003,4.175770e+001
1.165806e+003,4.130700e+001
1.166771e+003,4.172469e+001
1.167735e+003,4.439170e+001
1.168699e+003,4.702275e+001
1.169663e+003,4.707174e+001
1.170627e+003,4.482047e+001
1.171592e+003,4.317735e+001
1.172556e+003,4.414188e+001
1.173520e+003,4.592757e+001
1.174484e+003,4.543734e+001
1.175449e+003,4.378096e+001
1.176413e+003,4.316007e+001
1.177377e+003,4.405785e+001
1.178341e+003,4.550253e+001
1.179306e+003,4.650114e+001
1.180270e+003,4.719246e+001
1.181234e+003,4.882776e+001
1.182198e+003,5.288618e+001
1.183162e+003,5.505949e+001
1.184127e+003,5.391123e+001
1.185091e+003,5.200767e+001
1.186055e+003,5.070329e+001
1.187019e+003,5.009243e+001
1.187984e+003,4.994508e+001
1.188948e+003,5.012193e+001
1.189912e+003,5.003617e+001
1.190876e+003,4.836554e+001
1.191841e+003,4.623512e+001
1.192805e+003,4.672335e+001
1.193769e+003,4.997075e+001
1.194733e+003,5.303877e+001
1.195698e+003,5.390878e+001
1.196662e+003,5.349769e+001
1.197626e+003,5.442413e+001
1.198590e+003,5.734962e+001
1.199554e+003,5.909639e+001
1.200519e+003,5.815710e+001
1.201483e+003,5.749906e+001
1.202447e+003,5.875786e+001
1.203411e+003,6.046434e+001
1.204376e+003,6.024445e+001
1.205340e+003,5.777839e+001
1.206304e+003,5.542057e+001
1.207268e+003,5.552932e+001
1.208233e+003,5.739891e+001
1.209197e+003,5.858101e+001
1.210161e+003,5.906844e+001
1.211125e+003,5.912820e+001
1.212089e+003,5.863644e+001
1.213054e+003,5.779039e+001
1.214018e+003,5.669979e+001
1.214982e+003,5.556714e+001
1.215946e+003,5.542405e+001
1.216911e+003,5.648253e+001
1.217875e+003,5.816538e+001
1.218839e+003,6.110148e+001
1.219803e+003,6.360272e+001
1.220768e+003,6.404551e+001
1.221732e+003,6.318533e+001
1.222696e+003,6.306008e+001
1.223660e+003,6.475665e+001
1.224625e+003,6.725380e+001
1.225589e+003,6.882777e+001
1.226553e+003,6.930879e+001
1.227517e+003,6.880119e+001
1.228481e+003,6.677047e+001
1.229446e+003,6.534780e+001
1.230410e+003,6.611066e+001
1.231374e+003,6.772107e+001
1.232338e+003,6.776054e+001
1.233303e+003,6.602385e+001
1.234267e+003,6.497890e+001
1.235231e+003,6.576906e+001
1.236195e+003,6.699681e+001
1.237160e+003,6.834776e+001
1.238124e+003,6.929329e+001
1.239088e+003,6.889075e+001
1.240052e+003,6.731653e+001
1.241016e+003,6.604744e+001
1.241981e+003,6.648883e+001
1.242945e+003,6.823119e+001
1.243909e+003,6.944434e+001
1.244873e+003,7.005688e+001
1.245838e+003,7.035045e+001
1.246802e+003,6.973717e+001
1.247766e+003,6.937566e+001
1.248730e+003,7.023647e+001
1.249695e+003,7.174039e+001
1.250659e+003,7.247500e+001
1.251623e+003,7.205338e+001
1.252587e+003,7.185677e+001
1.253552e+003,7.343098e+001
1.254516e+003,7.494524e+001
1.255480e+003,7.414574e+001
1.256444e+003,7.195243e+001
1.257408e+003,7.063609e+001
1.258373e+003,7.109037e+001
1.259337e+003,7.234692e+001
1.260301e+003,7.311495e+001
1.261265e+003,7.344933e+001
1.262230e+003,7.368569e+001
1.263194e+003,7.360945e+001
1.264158e+003,7.330489e+001
1.265122e+003,7.213072e+001
1.266087e+003,7.142448e+001
1.267051e+003,7.211245e+001
1.268015e+003,7.408657e+001
1.268979e+003,7.731598e+001
1.269943e+003,8.180338e+001
1.270908e+003,8.526933e+001
1.271872e+003,8.456417e+001
1.272836e+003,8.149638e+001
1.273800e+003,8.074962e+001
1.274765e+003,8.219176e+001
1.275729e+003,8.308006e+001
1.276693e+003,8.184879e+001
1.277657e+003,7.998778e+001
1.278622e+003,8.004246e+001
1.279586e+003,8.211668e+001
1.280550e+003,8.303687e+001
1.281514e+003,8.180353e+001
1.282479e+003,8.098920e+001
1.283443e+003,8.112231e+001
1.284407e+003,8.183303e+001
1.285371e+003,8.324899e+001
1.286335e+003,8.481034e+001
1.287300e+003,8.533927e+001
1.288264e+003,8.435042e+001
1.289228e+003,8.313603e+001
1.290192e+003,8.376422e+001
1.291157e+003,8.608854e+001
1.292121e+003,8.676461e+001
1.293085e+003,8.484011e+001
1.294049e+003,8.383189e+001
1.295014e+003,8.623849e+001
1.295978e+003,8.943436e+001
1.296942e+003,8.988628e+001
1.297906e+003,8.786351e+001
1.298870e+003,8.681258e+001
1.299835e+003,8.791875e+001
1.300799e+003,8.926021e+001
1.301763e+003,8.933925e+001
1.302727e+003,8.921785e+001
1.303692e+003,8.999767e+001
1.304656e+003,9.174196e+001
1.305620e+003,9.411094e+001
1.306584e+003,9.681000e+001
1.307549e+003,9.914413e+001
1.308513e+003,9.976628e+001
1.309477e+003,9.834669e+001
1.310441e+003,9.713157e+001
1.311406e+003,9.660339e+001
1.312370e+003,9.580714e+001
1.313334e+003,9.408214e+001
1.314298e+003,9.252596e+001
1.315263e+003,9.232943e+001
1.316227e+003,9.316386e+001
1.317191e+003,9.363075e+001
1.318155e+003,9.308406e+001
1.319120e+003,9.249806e+001
1.320084e+003,9.311525e+001
1.321048e+003,9.429800e+001
1.322012e+003,9.455638e+001
1.322976e+003,9.394411e+001
1.323941e+003,9.358832e+001
1.324905e+003,9.396023e+001
1.325869e+003,9.514150e+001
1.326833e+003,9.781498e+001
1.327798e+003,1.019046e+002
1.328762e+003,1.035423e+002
1.329726e+003,1.006894e+002
1.330690e+003,9.846102e+001
1.331655e+003,9.847453e+001
1.332619e+003,9.933508e+001
1.333583e+003,1.008673e+002
1.334547e+003,1.022799e+002
1.335511e+003,1.018069e+002
1.336476e+003,9.909550e+001
1.337440e+003,9.703483e+001
1.338404e+003,9.950140e+001
1.339368e+003,1.056805e+002
1.340333e+003,1.079230e+002
1.341297e+003,1.045330e+002
1.342261e+003,1.024160e+002
1.343225e+003,1.034416e+002
1.344190e+003,1.048625e+002
1.345154e+003,1.043474e+002
1.346118e+003,1.028902e+002
1.347082e+003,1.032902e+002
1.348047e+003,1.062468e+002
1.349011e+003,1.086940e+002
1.349975e+003,1.084921e+002
1.350939e+003,1.073738e+002
1.351903e+003,1.073991e+002
1.352868e+003,1.079317e+002
1.353832e+003,1.072420e+002
1.354796e+003,1.050003e+002
1.355760e+003,1.036326e+002
1.356725e+003,1.058956e+002
1.357689e+003,1.106360e+002
1.358653e+003,1.122957e+002
1.359617e+003,1.093344e+002
1.360582e+003,1.077057e+002
1.361546e+003,1.091641e+002
1.362510e+003,1.103531e+002
1.363474e+003,1.099846e+002
1.364438e+003,1.091983e+002
1.365403e+003,1.088815e+002
1.366367e+003,1.092412e+002
1.367331e+003,1.105076e+002
1.368295e+003,1.128813e+002
1.369260e+003,1.153832e+002
1.370224e+003,1.162357e+002
1.371188e+003,1.156447e+002
1.372152e+003,1.160277e+002
1.373117e+003,1.175323e+002
1.374081e+003,1.188023e+002
1.375045e+003,1.194554e+002
1.376009e+003,1.196532e+002
1.376974e+003,1.193583e+002
1.377938e+003,1.188035e+002
1.378902e+003,1.188504e+002
1.379866e+003,1.197165e+002
1.380830e+003,1.208457e+002
1.381795e+003,1.221684e+002
1.382759e+003,1.233672e+002
1.383723e+003,1.245487e+002
1.384687e+003,1.254517e+002
1.385652e+003,1.248559e+002
1.386616e+003,1.223547e+002
1.387580e+003,1.202623e+002
1.388544e+003,1.217802e+002
1.389509e+003,1.262457e+002
1.390473e+003,1.276578e+002
1.391437e+003,1.239845e+002
1.392401e+003,1.222406e+002
1.393365e+003,1.242050e+002
1.394330e+003,1.263258e+002
1.395294e+003,1.272341e+002
1.396258e+003,1.272773e+002
1.397222e+003,1.269054e+002
1.398187e+003,1.265799e+002
1.399151e+003,1.271554e+002
1.400115e+003,1.291383e+002
1.401079e+003,1.309611e+002
1.402044e+003,1.294630e+002
1.403008e+003,1.246417e+002
1.403972e+003,1.226629e+002
1.404936e+003,1.247277e+002
1.405901e+003,1.267974e+002
1.406865e+003,1.270605e+002
1.407829e+003,1.270458e+002
1.408793e+003,1.287484e+002
1.409757e+003,1.317836e+002
1.410722e+003,1.338942e+002
1.411686e+003,1.342808e+002
1.412650e+003,1.339824e+002
1.413614e+003,1.337735e+002
1.414579e+003,1.334658e+002
1.415543e+003,1.322083e+002
1.416507e+003,1.307805e+002
1.417471e+003,1.313921e+002
1.418436e+003,1.346192e+002
1.419400e+003,1.380693e+002
1.420364e+003,1.394167e+002
1.421328e+003,1.393053e+002
1.422292e+003,1.402258e+002
1.423257e+003,1.427395e+002
1.424221e+003,1.436316e+002
1.425185e+003,1.398861e+002
1.426149e+003,1.373318e+002
1.427114e+003,1.387967e+002
1.428078e+003,1.417902e+002
1.429042e+003,1.438407e+002
1.430006e+003,1.447781e+002
1.430971e+003,1.457898e+002
1.431935e+003,1.474779e+002
1.432899e+003,1.488696e+002
1.433863e+003,1.484801e+002
1.434828e+003,1.466383e+002
1.435792e+003,1.464316e+002
1.436756e+003,1.487639e+002
1.437720e+003,1.499745e+002
1.438684e+003,1.492033e+002
1.439649e+003,1.484347e+002
1.440613e+003,1.487838e+002
1.441577e+003,1.498999e+002
1.442541e+003,1.510362e+002
1.443506e+003,1.519526e+002
1.444470e+003,1.530146e+002
1.445434e+003,1.547599e+002
1.446398e+003,1.562558e+002
1.447363e+003,1.554386e+002
1.448327e+003,1.532967e+002
1.449291e+003,1.529265e+002
1.450255e+003,1.546650e+002
1.451219e+003,1.556376e+002
1.452184e+003,1.538458e+002
1.453148e+003,1.512471e+002
1.454112e+003,1.501716e+002
1.455076e+003,1.504947e+002
1.456041e+003,1.516720e+002
1.457005e+003,1.539040e+002
1.457969e+003,1.565553e+002
1.458933e+003,1.600338e+002
1.459898e+003,1.630706e+002
1.460862e+003,1.652724e+002
1.461826e+003,1.662081e+002
1.462790e+003,1.646970e+002
1.463755e+003,1.610900e+002
1.464719e+003,1.579051e+002
1.465683e+003,1.569842e+002
1.466647e+003,1.578189e+002
1.467611e+003,1.593633e+002
1.468576e+003,1.617302e+002
1.469540e+003,1.634078e+002
1.470504e+003,1.637890e+002
1.471468e+003,1.646398e+002
1.472433e+003,1.670413e+002
1.473397e+003,1.690059e+002
1.474361e+003,1.693158e+002
1.475325e+003,1.683943e+002
1.476290e+003,1.665635e+002
1.477254e+003,1.642240e+002
1.478218e+003,1.622951e+002
1.479182e+003,1.615578e+002
1.480146e+003,1.623252e+002
1.481111e+003,1.655227e+002
1.482075e+003,1.715756e+002
1.483039e+003,1.742593e+002
1.484003e+003,1.711994e+002
1.484968e+003,1.690417e+002
1.485932e+003,1.693203e+002
1.486896e+003,1.712670e+002
1.487860e+003,1.756397e+002
1.488825e+003,1.805905e+002
1.489789e+003,1.819116e+002
1.490753e+003,1.787569e+002
1.491717e+003,1.746902e+002
1.492682e+003,1.716210e+002
1.493646e+003,1.697005e+002
1.494610e+003,1.697003e+002
1.495574e+003,1.710325e+002
1.496538e+003,1.720798e+002
1.497503e+003,1.727646e+002
1.498467e+003,1.730402e+002
1.499431e+003,1.726630e+002
1.500395e+003,1.718728e+002
1.501360e+003,1.706228e+002
1.502324e+003,1.693712e+002
1.503288e+003,1.704014e+002
1.504252e+003,1.746785e+002
1.505217e+003,1.769477e+002
1.506181e+003,1.727741e+002
1.507145e+003,1.681792e+002
1.508109e+003,1.689303e+002
1.509073e+003,1.721908e+002
1.510038e+003,1.730757e+002
1.511002e+003,1.711383e+002
1.511966e+003,1.696643e+002
1.512930e+003,1.708385e+002
1.513895e+003,1.732261e+002
1.514859e+003,1.744544e+002
1.515823e+003,1.743707e+002
1.516787e+003,1.726934e+002
1.517752e+003,1.681241e+002
1.518716e+003,1.658526e+002
1.519680e+003,1.695257e+002
1.520644e+003,1.727827e+002
1.521609e+003,1.718997e+002
1.522573e+003,1.696043e+002
1.523537e+003,1.696575e+002
1.524501e+003,1.721017e+002
1.525465e+003,1.744435e+002
1.526430e+003,1.750634e+002
1.527394e+003,1.739728e+002
1.528358e+003,1.711817e+002
1.529322e+003,1.668443e+002
1.530287e+003,1.635282e+002
1.531251e+003,1.611909e+002
1.532215e+003,1.603330e+002
1.533179e+003,1.615876e+002
1.534144e+003,1.631451e+002
1.535108e+003,1.650370e+002
1.536072e+003,1.662912e+002
1.537036e+003,1.658407e+002
1.538000e+003,1.639254e+002
1.538965e+003,1.609712e+002
1.539929e+003,1.573604e+002
1.540893e+003,1.549846e+002
1.541857e+003,1.562969e+002
1.542822e+003,1.603041e+002
1.543786e+003,1.622068e+002
1.544750e+003,1.610921e+002
1.545714e+003,1.602319e+002
1.546679e+003,1.595922e+002
1.547643e+003,1.590764e+002
1.548607e+003,1.591621e+002
1.549571e+003,1.591858e+002
1.550536e+003,1.582168e+002
1.551500e+003,1.563778e+002
1.552464e+003,1.544594e+002
1.553428e+003,1.528560e+002
1.554392e+003,1.513502e+002
1.555357e+003,1.495301e+002
1.556321e+003,1.478373e+002
1.557285e+003,1.475171e+002
1.558249e+003,1.486066e+002
1.559214e+003,1.496263e+002
1.560178e+003,1.510637e+002
1.561142e+003,1.510504e+002
1.562106e+003,1.473237e+002
1.563071e+003,1.431845e+002
1.564035e+003,1.417069e+002
1.564999e+003,1.422920e+002
1.565963e+003,1.434268e+002
1.566927e+003,1.446977e+002
1.567892e+003,1.451200e+002
1.568856e+003,1.439611e+002
1.569820e+003,1.426411e+002
1.570784e+003,1.438098e+002
1.571749e+003,1.455043e+002
1.572713e+003,1.420074e+002
1.573677e+003,1.336012e+002
1.574641e+003,1.283194e+002
1.575606e+003,1.295036e+002
1.576570e+003,1.324622e+002
1.577534e+003,1.344710e+002
1.578498e+003,1.354586e+002
1.579463e+003,1.347956e+002
1.580427e+003,1.325815e+002
1.581391e+003,1.307020e+002
1.582355e+003,1.297535e+002
1.583319e+003,1.290384e+002
1.584284e+003,1.283319e+002
1.585248e+003,1.276103e+002
1.586212e+003,1.265325e+002
1.587176e+003,1.250414e+002
1.588141e+003,1.234292e+002
1.589105e+003,1.218998e+002
1.590069e+003,1.207667e+002
1.591033e+003,1.202823e+002
1.591998e+003,1.200287e+002
1.592962e+003,1.195294e+002
1.593926e+003,1.187507e+002
1.594890e+003,1.174975e+002
1.595854e+003,1.157043e+002
1.596819e+003,1.143847e+002
1.597783e+003,1.142152e+002
1.598747e+003,1.138594e+002
1.599711e+003,1.121034e+002
1.600676e+003,1.097419e+002
1.601640e+003,1.075115e+002
1.602604e+003,1.057241e+002
1.603568e+003,1.050804e+002
1.604533e+003,1.058686e+002
1.605497e+003,1.066148e+002
1.606461e+003,1.059408e+002
1.607425e+003,1.041619e+002
1.608390e+003,1.020017e+002
1.609354e+003,9.954909e+001
1.610318e+003,9.722072e+001
1.611282e+003,9.447624e+001
1.612246e+003,9.277263e+001
1.613211e+003,9.394934e+001
1.614175e+003,9.530410e+001
1.615139e+003,9.521814e+001
1.616103e+003,9.413405e+001
1.617068e+003,9.257279e+001
1.618032e+003,9.073757e+001
1.618996e+003,8.905963e+001
1.619960e+003,8.777268e+001
1.620925e+003,8.634428e+001
1.621889e+003,8.383031e+001
1.622853e+003,8.057399e+001
1.623817e+003,7.839459e+001
1.624781e+003,7.744482e+001
1.625746e+003,7.733755e+001
1.626710e+003,7.875569e+001
1.627674e+003,7.948783e+001
1.628638e+003,7.783296e+001
1.629603e+003,7.546997e+001
1.630567e+003,7.388058e+001
1.631531e+003,7.279446e+001
1.632495e+003,7.123070e+001
1.633460e+003,6.909447e+001
1.634424e+003,6.740056e+001
1.635388e+003,6.687317e+001
1.636352e+003,6.698445e+001
1.637317e+003,6.708549e+001
1.638281e+003,6.710808e+001
1.639245e+003,6.590315e+001
1.640209e+003,6.280256e+001
1.641173e+003,6.094313e+001
1.642138e+003,6.236473e+001
1.643102e+003,6.353169e+001
1.644066e+003,6.257793e+001
1.645030e+003,6.061578e+001
1.645995e+003,5.821366e+001
1.646959e+003,5.582665e+001
1.647923e+003,5.439962e+001
1.648887e+003,5.415651e+001
1.649852e+003,5.390960e+001
1.650816e+003,5.255366e+001
1.651780e+003,5.082011e+001
1.652744e+003,5.041534e+001
1.653708e+003,5.127135e+001
1.654673e+003,5.166184e+001
1.655637e+003,5.158336e+001
1.656601e+003,5.067275e+001
1.657565e+003,4.806380e+001
1.658530e+003,4.566931e+001
1.659494e+003,4.449055e+001
1.660458e+003,4.402432e+001
1.661422e+003,4.423449e+001
1.662387e+003,4.463277e+001
1.663351e+003,4.369032e+001
1.664315e+003,4.099435e+001
1.665279e+003,3.901063e+001
1.666244e+003,4.034737e+001
1.667208e+003,4.303366e+001
1.668172e+003,4.266355e+001
1.669136e+003,3.943567e+001
1.670100e+003,3.691102e+001
1.671065e+003,3.529100e+001
1.672029e+003,3.471743e+001
1.672993e+003,3.654913e+001
1.673957e+003,3.773085e+001
1.674922e+003,3.530943e+001
1.675886e+003,3.185275e+001
1.676850e+003,3.040629e+001
1.677814e+003,3.058832e+001
1.678779e+003,3.014392e+001
1.679743e+003,2.836382e+001
1.680707e+003,2.682538e+001
1.681671e+003,2.687173e+001
1.682635e+003,2.773853e+001
1.683600e+003,2.841326e+001
1.684564e+003,2.882978e+001
1.685528e+003,2.818234e+001
1.686492e+003,2.618582e+001
1.687457e+003,2.401713e+001
1.688421e+003,2.157022e+001
1.689385e+003,2.019371e+001
1.690349e+003,2.225536e+001
1.691314e+003,2.518552e+001
1.692278e+003,2.598291e+001
1.693242e+003,2.486773e+001
1.694206e+003,2.319097e+001
1.695171e+003,2.122119e+001
1.696135e+003,1.941070e+001
1.697099e+003,1.789802e+001
1.698063e+003,1.682702e+001
1.699027e+003,1.669092e+001
1.699992e+003,1.713961e+001
1.700956e+003,1.680869e+001
1.701920e+003,1.557521e+001
1.702884e+003,1.501133e+001
1.703849e+003,1.581699e+001
1.704813e+003,1.678434e+001
1.705777e+003,1.727218e+001
1.706741e+003,1.711755e+001
1.707706e+003,1.571106e+001
1.708670e+003,1.346886e+001
1.709634e+003,1.193369e+001
1.710598e+003,1.138294e+001
1.711563e+003,1.083517e+001
1.712527e+003,9.451605e+000
1.713491e+003,8.379181e+000
1.714455e+003,8.521326e+000
1.715419e+003,9.656153e+000
1.716384e+003,1.203743e+001
1.717348e+003,1.513376e+001
1.718312e+003,1.636024e+001
1.719276e+003,1.489823e+001
1.720241e+003,1.308493e+001
1.721205e+003,1.257273e+001
1.722169e+003,1.266541e+001
1.723133e+003,1.237504e+001
1.724098e+003,1.174599e+001
1.725062e+003,1.057260e+001
1.726026e+003,8.382715e+000
1.726990e+003,7.342346e+000
1.727954e+003,8.969538e+000
1.728919e+003,1.027164e+001
1.729883e+003,9.392859e+000
1.730847e+003,8.023066e+000
1.731811e+003,7.801648e+000
1.732776e+003,8.519293e+000
1.733740e+003,9.754023e+000
1.734704e+003,1.111527e+001
1.735668e+003,1.137089e+001
1.736633e+003,9.802893e+000
1.737597e+003,7.534747e+000
1.738561e+003,6.024591e+000
1.739525e+003,5.219763e+000
1.740490e+003,4.713941e+000
1.741454e+003,4.480286e+000
1.742418e+003,4.501465e+000
1.743382e+003,5.038465e+000
1.744346e+003,5.397095e+000
1.745311e+003,5.776953e+000
1.746275e+003,5.600897e+000
1.747239e+003,3.742554e+000
1.748203e+003,1.729291e+000
1.749168e+003,1.538013e+000
1.750132e+003,2.971905e+000
1.751096e+003,4.913501e+000
1.752060e+003,6.690009e+000
1.753025e+003,7.533990e+000
1.753989e+003,6.699664e+000
1.754953e+003,4.937945e+000
1.755917e+003,3.939471e+000
1.756881e+003,3.710150e+000
1.757846e+003,3.389252e+000
1.758810e+003,2.927130e+000
1.759774e+003,2.669910e+000
1.760738e+003,2.583447e+000
1.761703e+003,2.690460e+000
1.762667e+003,3.107977e+000
1.763631e+003,3.619580e+000
1.764595e+003,4.434076e+000
1.765560e+003,5.118360e+000
1.766524e+003,4.699426e+000
1.767488e+003,3.194623e+000
1.768452e+003,1.770294e+000
1.769417e+003,1.047638e+000
1.770381e+003,8.400513e-001
1.771345e+003,1.108185e+000
1.772309e+003,1.603943e+000
1.773273e+003,1.804016e+000
1.774238e+003,1.663708e+000
1.775202e+003,7.749329e-001
1.776166e+003,-1.090289e+000
1.777130e+003,-2.112207e+000
1.778095e+003,-1.198212e+000
1.779059e+003,-1.489258e-003
1.780023e+003,9.059449e-002
1.780987e+003,-4.666199e-001
1.781952e+003,-1.132269e+000
1.782916e+003,-1.845087e+000
1.783880e+003,-1.966956e+000
1.784844e+003,-1.206036e+000
1.785808e+003,-5.540771e-001
1.786773e+003,-4.253540e-001
1.787737e+003,-5.374451e-001
1.788701e+003,-1.025275e+000
1.789665e+003,-1.418475e+000
1.790630e+003,-6.719666e-001
1.791594e+003,8.065063e-001
1.792558e+003,1.388568e+000
1.793522e+003,7.129639e-001
1.794487e+003,-2.836304e-002
1.795451e+003,-6.622925e-002
1.796415e+003,2.041870e-001
1.797379e+003,1.804138e-001
1.798344e+003,-6.152344e-002
1.799308e+003,4.327393e-002
1.800272e+003,6.260437e-001
1.801236e+003,8.795349e-001
1.802201e+003,8.473083e-001
1.803165e+003,6.219116e-001
1.804129e+003,-3.664673e-001
1.805093e+003,-8.551086e-001
1.806057e+003,5.401611e-001
1.807022e+003,2.215436e+000
1.807986e+003,1.976337e+000
1.808950e+003,5.304626e-001
1.809914e+003,2.920715e-001
1.810879e+003,1.747961e+000
1.811843e+003,3.021435e+000
1.812807e+003,2.718018e+000
1.813771e+003,1.382715e+000
1.814736e+003,-4.236511e-001
1.815700e+003,-2.351459e+000
1.816664e+003,-2.158563e+000
1.817628e+003,4.676636e-001
1.818593e+003,1.813977e+000
1.819557e+003,1.213623e+000
1.820521e+003,2.491638e-001
1.821485e+003,-7.727600e-001
1.822449e+003,-1.700891e+000
1.823414e+003,-2.763190e+000
1.824378e+003,-3.548084e+000
1.825342e+003,-3.171759e+000
1.826306e+003,-1.919385e+000
1.827271e+003,-1.126318e+000
1.828235e+003,-1.138196e+000
1.829199e+003,-1.071783e+000
1.830163e+003,-1.861389e-001
1.831128e+003,6.289123e-001
1.832092e+003,2.820373e-001
1.833056e+003,-4.435425e-001
1.834020e+003,8.886109e-002
1.834984e+003,1.323151e+000
1.835949e+003,8.494141e-001
1.836913e+003,-1.562543e+000
1.837877e+003,-3.226404e+000
1.838841e+003,-2.697699e+000
1.839806e+003,-1.215179e+000
1.840770e+003,-4.072266e-002
1.841734e+003,7.407471e-001
1.842698e+003,9.026367e-001
1.843663e+003,4.374634e-001
1.844627e+003,-5.345459e-002
1.845591e+003,-7.715759e-001
1.846555e+003,-1.256268e+000
1.847520e+003,-1.745776e+000
1.848484e+003,-1.786688e+000
1.849448e+003,-5.957031e-001
1.850412e+003,6.472412e-001
1.851376e+003,9.072693e-001
1.852341e+003,5.058106e-001
1.853305e+003,-7.604980e-003
1.854269e+003,-4.738587e-001
1.855233e+003,-9.550354e-001
1.856198e+003,-1.423102e+000
1.857162e+003,-1.273016e+000
1.858126e+003,4.126099e-001
1.859090e+003,2.539795e+000
1.860055e+003,2.467670e+000
1.861019e+003,6.161072e-001
1.861983e+003,7.263183e-004
1.862947e+003,8.375183e-001
1.863911e+003,1.322955e+000
1.864876e+003,1.039935e+000
1.865840e+003,4.377014e-001
1.866804e+003,-4.860657e-001
1.867768e+003,-1.289087e+000
1.868733e+003,-1.644537e+000
1.869697e+003,-1.452905e+000
1.870661e+003,3.934326e-002
1.871625e+003,2.852893e+000
1.872590e+003,3.989923e+000
1.873554e+003,2.085931e+000
1.874518e+003,7.003601e-001
1.875482e+003,1.247809e+000
1.876447e+003,2.098779e+000
1.877411e+003,2.692725e+000
1.878375e+003,2.758429e+000
1.879339e+003,1.150311e+000
1.880303e+003,-9.616760e-001
1.881268e+003,-6.095337e-001
1.882232e+003,2.210834e+000
1.883196e+003,4.324298e+000
1.884160e+003,4.039862e+000
1.885125e+003,2.628296e+000
1.886089e+003,1.368994e+000
1.887053e+003,4.668518e-001
1.888017e+003,7.300903e-001
1.888982e+003,2.192139e+000
1.889946e+003,3.559839e+000
1.890910e+003,5.011603e+000
1.891874e+003,5.426446e+000
1.892839e+003,4.122937e+000
1.893803e+003,2.753894e+000
1.894767e+003,2.048828e+000
1.895731e+003,1.684674e+000
1.896695e+003,1.336639e+000
1.897660e+003,1.102002e+000
1.898624e+003,1.274841e+000
1.899588e+003,1.783875e+000
1.900552e+003,1.960760e+000
1.901517e+003,1.490131e+000
1.902481e+003,1.260724e+000
1.903445e+003,1.884235e+000
1.904409e+003,2.622650e+000
1.905374e+003,3.242822e+000
1.906338e+003,3.572772e+000
1.907302e+003,3.127881e+000
1.908266e+003,2.222760e+000
1.909230e+003,1.508795e+000
1.910195e+003,1.151239e+000
1.911159e+003,1.036255e+000
1.912123e+003,1.146313e+000
1.913087e+003,1.825787e+000
1.914052e+003,3.451703e+000
1.915016e+003,4.975073e+000
1.915980e+003,3.981476e+000
1.916944e+003,7.631714e-001
1.917909e+003,-7.845825e-001
1.918873e+003,-4.700806e-001
1.919837e+003,6.926392e-001
1.920801e+003,3.230408e+000
1.921766e+003,4.782025e+000
1.922730e+003,3.698200e+000
1.923694e+003,2.539148e+000
1.924658e+003,3.764758e+000
1.925622e+003,5.542322e+000
1.926587e+003,5.271631e+000
1.927551e+003,3.683044e+000
1.928515e+003,3.701318e+000
1.929479e+003,5.876312e+000
1.930444e+003,6.694293e+000
1.931408e+003,3.739551e+000
1.932372e+003,1.340668e+000
1.933336e+003,2.094110e+000
1.934301e+003,3.581970e+000
1.935265e+003,3.877191e+000
1.936229e+003,3.620960e+000
1.937193e+003,3.955420e+000
1.938157e+003,4.658484e+000
1.939122e+003,4.770294e+000
1.940086e+003,4.115832e+000
1.941050e+003,3.181311e+000
1.942014e+003,2.271283e+000
1.942979e+003,1.852045e+000
1.943943e+003,2.589502e+000
1.944907e+003,4.092780e+000
1.945871e+003,5.359967e+000
1.946836e+003,6.413361e+000
1.947800e+003,7.040369e+000
1.948764e+003,7.184857e+000
1.949728e+003,6.768897e+000
1.950693e+003,5.618689e+000
1.951657e+003,4.354974e+000
1.952621e+003,3.059534e+000
1.953585e+003,2.361865e+000
1.954549e+003,3.166962e+000
1.955514e+003,4.734942e+000
1.956478e+003,5.429553e+000
1.957442e+003,5.313074e+000
1.958406e+003,5.421814e+000
1.959371e+003,6.007385e+000
1.960335e+003,6.121619e+000
1.961299e+003,4.962158e+000
1.962263e+003,4.319263e+000
1.963228e+003,5.390717e+000
1.964192e+003,6.507715e+000
1.965156e+003,6.254639e+000
1.966120e+003,5.521783e+000
1.967084e+003,5.698639e+000
1.968049e+003,6.490820e+000
1.969013e+003,6.416235e+000
1.969977e+003,5.352033e+000
1.970941e+003,5.238257e+000
1.971906e+003,7.276471e+000
1.972870e+003,9.672968e+000
1.973834e+003,1.095605e+001
1.974798e+003,1.101791e+001
1.975763e+003,8.678205e+000
1.976727e+003,5.094104e+000
1.977691e+003,4.312768e+000
1.978655e+003,6.082135e+000
1.979620e+003,6.599048e+000
1.980584e+003,5.066907e+000
1.981548e+003,3.951074e+000
1.982512e+003,4.544916e+000
1.983476e+003,5.338019e+000
1.984441e+003,4.710761e+000
1.985405e+003,3.506848e+000
1.986369e+003,3.843158e+000
1.987333e+003,5.706732e+000
1.988298e+003,6.535932e+000
1.989262e+003,5.701691e+000
1.990226e+003,5.446716e+000
1.991190e+003,6.052039e+000
1.992155e+003,6.924048e+000
1.993119e+003,8.696014e+000
1.994083e+003,9.783075e+000
1.995047e+003,8.839203e+000
1.996011e+003,7.193719e+000
1.996976e+003,5.954968e+000
1.997940e+003,5.237085e+000
1.998904e+003,5.173236e+000
1.999868e+003,5.759748e+000
2.000833e+003,6.744550e+000
2.001797e+003,8.575342e+000
2.002761e+003,9.348053e+000
2.003725e+003,7.230011e+000
2.004690e+003,5.168536e+000
2.005654e+003,5.319739e+000
2.006618e+003,6.224786e+000
2.007582e+003,6.762781e+000
2.008547e+003,6.658521e+000
2.009511e+003,5.139893e+000
2.010475e+003,2.868860e+000
2.011439e+003,2.081165e+000
2.012403e+003,3.391803e+000
2.013368e+003,5.061530e+000
2.014332e+003,5.874872e+000
2.015296e+003,6.311511e+000
2.016260e+003,7.063452e+000
2.017225e+003,7.877142e+000
2.018189e+003,7.985254e+000
2.019153e+003,7.592218e+000
2.020117e+003,7.646894e+000
2.021082e+003,8.158545e+000
2.022046e+003,8.483435e+000
2.023010e+003,8.487452e+000
2.023974e+003,8.342298e+000
2.024938e+003,8.095288e+000
2.025903e+003,7.857629e+000
2.026867e+003,7.752899e+000
2.027831e+003,7.796960e+000
2.028795e+003,8.107910e+000
2.029760e+003,8.699145e+000
2.030724e+003,8.559296e+000
2.031688e+003,7.269012e+000
2.032652e+003,6.468610e+000
2.033617e+003,6.391412e+000
2.034581e+003,6.463495e+000
2.035545e+003,6.260767e+000
2.036509e+003,6.792200e+000
2.037474e+003,9.435987e+000
2.038438e+003,1.212125e+001
2.039402e+003,1.247134e+001
2.040366e+003,1.139739e+001
2.041330e+003,1.110523e+001
2.042295e+003,1.160707e+001
2.043259e+003,1.060211e+001
2.044223e+003,6.450507e+000
2.045187e+003,4.379297e+000
2.046152e+003,6.967212e+000
2.047116e+003,9.574206e+000
2.048080e+003,1.098065e+001
2.049044e+003,1.115998e+001
2.050009e+003,8.974744e+000
2.050973e+003,6.582166e+000
2.051937e+003,6.784162e+000
2.052901e+003,8.751203e+000
2.053865e+003,1.021237e+001
2.054830e+003,1.061975e+001
2.055794e+003,1.035970e+001
2.056758e+003,9.508642e+000
2.057722e+003,8.984039e+000
2.058687e+003,9.825598e+000
2.059651e+003,1.092290e+001
2.060615e+003,1.127579e+001
2.061579e+003,1.106423e+001
2.062544e+003,1.023071e+001
2.063508e+003,9.296534e+000
2.064472e+003,9.454455e+000
2.065436e+003,1.041005e+001
2.066401e+003,1.048062e+001
2.067365e+003,9.316961e+000
2.068329e+003,8.526209e+000
2.069293e+003,9.135742e+000
2.070258e+003,1.015689e+001
2.071222e+003,1.043070e+001
2.072186e+003,1.033146e+001
2.073150e+003,1.080536e+001
2.074115e+003,1.157626e+001
2.075079e+003,1.107033e+001
2.076043e+003,9.482965e+000
2.077007e+003,9.408099e+000
2.077971e+003,1.119704e+001
2.078936e+003,1.212535e+001
2.079900e+003,1.114816e+001
2.080864e+003,1.015286e+001
2.081828e+003,1.051331e+001
2.082792e+003,1.137443e+001
2.083757e+003,1.155089e+001
2.084721e+003,1.121003e+001
2.085685e+003,1.093778e+001
2.086649e+003,1.075287e+001
2.087614e+003,1.082296e+001
2.088578e+003,1.119287e+001
2.089542e+003,1.170848e+001
2.090506e+003,1.255773e+001
2.091471e+003,1.254276e+001
2.092435e+003,1.079240e+001
2.093399e+003,9.395190e+000
2.094363e+003,1.005767e+001
2.095328e+003,1.126725e+001
2.096292e+003,1.085469e+001
2.097256e+003,9.417163e+000
2.098220e+003,9.258215e+000
2.099185e+003,1.061364e+001
2.100149e+003,1.146942e+001
2.101113e+003,1.180724e+001
2.102077e+003,1.156267e+001
2.103042e+003,1.011348e+001
2.104006e+003,8.969507e+000
2.104970e+003,8.322797e+000
2.105934e+003,8.265368e+000
2.106898e+003,8.914801e+000
2.107863e+003,1.007738e+001
2.108827e+003,1.250795e+001
2.109791e+003,1.502794e+001
2.110755e+003,1.448177e+001
2.111719e+003,1.092067e+001
2.112684e+003,8.872375e+000
2.113648e+003,9.659552e+000
2.114612e+003,1.015125e+001
2.115576e+003,8.963568e+000
2.116541e+003,8.323736e+000
2.117505e+003,9.679950e+000
2.118469e+003,1.109698e+001
2.119433e+003,1.136135e+001
2.120398e+003,1.109294e+001
2.121362e+003,1.081890e+001
2.122326e+003,1.056663e+001
2.123290e+003,1.011302e+001
2.124255e+003,9.634784e+000
2.125219e+003,1.008502e+001
2.126183e+003,1.182996e+001
2.127147e+003,1.288583e+001
2.128112e+003,1.194467e+001
2.129076e+003,1.080904e+001
2.130040e+003,1.028569e+001
2.131004e+003,1.007967e+001
2.131969e+003,1.027145e+001
2.132933e+003,1.032591e+001
2.133897e+003,9.389673e+000
2.134861e+003,8.117401e+000
2.135825e+003,7.791833e+000
2.136790e+003,8.298462e+000
2.137754e+003,8.497778e+000
2.138718e+003,8.082843e+000
2.139682e+003,7.897595e+000
2.140646e+003,8.491132e+000
2.141611e+003,9.223376e+000
2.142575e+003,9.514300e+000
2.143539e+003,9.655169e+000
2.144503e+003,1.022351e+001
2.145468e+003,1.071976e+001
2.146432e+003,1.011691e+001
2.147396e+003,8.985138e+000
2.148360e+003,8.723206e+000
2.149325e+003,9.133471e+000
2.150289e+003,8.667664e+000
2.151253e+003,7.109454e+000
2.152217e+003,6.306684e+000
2.153182e+003,7.353662e+000
2.154146e+003,8.731806e+000
2.155110e+003,9.003034e+000
2.156074e+003,8.855420e+000
2.157039e+003,9.467163e+000
2.158003e+003,9.925873e+000
2.158967e+003,8.250574e+000
2.159931e+003,5.570593e+000
2.160896e+003,4.459845e+000
2.161860e+003,4.858679e+000
2.162824e+003,5.420355e+000
2.163788e+003,5.755615e+000
2.164752e+003,6.235077e+000
2.165717e+003,7.008246e+000
2.166681e+003,7.515265e+000
2.167645e+003,7.191760e+000
2.168609e+003,6.697009e+000
2.169573e+003,7.070831e+000
2.170538e+003,7.889343e+000
2.171502e+003,8.490301e+000
2.172466e+003,8.704730e+000
2.173430e+003,7.992633e+000
2.174395e+003,6.669196e+000
2.175359e+003,5.787494e+000
2.176323e+003,5.474701e+000
2.177287e+003,5.172876e+000
2.178252e+003,4.648468e+000
2.179216e+003,4.056928e+000
2.180180e+003,3.527081e+000
2.181144e+003,3.328430e+000
2.182109e+003,3.864673e+000
2.183073e+003,4.711053e+000
2.184037e+003,5.389673e+000
2.185001e+003,5.622912e+000
2.185966e+003,4.158338e+000
2.186930e+003,1.783826e+000
2.187894e+003,1.110944e+000
2.188858e+003,2.162292e+000
2.189823e+003,3.320935e+000
2.190787e+003,3.971472e+000
2.191751e+003,4.018396e+000
2.192715e+003,3.500439e+000
2.193679e+003,2.932092e+000
2.194644e+003,2.754987e+000
2.195608e+003,2.817902e+000
2.196572e+003,3.075433e+000
2.197536e+003,3.292346e+000
2.198500e+003,2.666595e+000
2.199465e+003,1.603119e+000
2.200429e+003,1.281042e+000
2.201393e+003,1.664648e+000
2.202357e+003,2.445947e+000
2.203322e+003,3.363293e+000
2.204286e+003,3.487415e+000
2.205250e+003,2.598767e+000
2.206214e+003,1.915478e+000
2.207179e+003,2.272168e+000
2.208143e+003,2.971942e+000
2.209107e+003,3.220648e+000
2.210071e+003,3.196545e+000
2.211036e+003,3.365948e+000
2.212000e+003,3.448224e+000
2.212964e+003,2.514886e+000
2.213928e+003,9.361877e-001
2.214893e+003,-3.570801e-001
2.215857e+003,-1.021814e+000
2.216821e+003,-8.252563e-002
2.217785e+003,2.200397e+000
2.218750e+003,3.329706e+000
2.219714e+003,2.239166e+000
2.220678e+003,6.653625e-001
2.221642e+003,-2.588501e-002
2.222606e+003,-3.968506e-002
2.223571e+003,4.717102e-001
2.224535e+003,1.290698e+000
2.225499e+003,2.350379e+000
2.226463e+003,3.275751e+000
2.227427e+003,2.765277e+000
2.228392e+003,1.599243e+000
2.229356e+003,2.462677e+000
2.230320e+003,4.855432e+000
2.231284e+003,5.359637e+000
2.232249e+003,3.371271e+000
2.233213e+003,1.782104e+000
2.234177e+003,2.086438e+000
2.235141e+003,2.681580e+000
2.236106e+003,2.128485e+000
2.237070e+003,1.430389e+000
2.238034e+003,1.749536e+000
2.238998e+003,2.651398e+000
2.239963e+003,4.172217e+000
2.240927e+003,5.458545e+000
2.241891e+003,4.526941e+000
2.242855e+003,2.443884e+000
2.243820e+003,1.649921e+000
2.244784e+003,2.311481e+000
2.245748e+003,3.452869e+000
2.246712e+003,4.650653e+000
2.247677e+003,5.741412e+000
2.248641e+003,6.669946e+000
2.249605e+003,7.290063e+000
2.250569e+003,7.392779e+000
2.251533e+003,7.225488e+000
2.252498e+003,7.134900e+000
2.253462e+003,6.749127e+000
2.254426e+003,5.006207e+000
2.255390e+003,3.277503e+000
2.256354e+003,4.042895e+000
2.257319e+003,5.904486e+000
2.258283e+003,5.571551e+000
2.259247e+003,3.501923e+000
2.260211e+003,3.099902e+000
2.261176e+003,5.068396e+000
2.262140e+003,6.434973e+000
2.263104e+003,5.780951e+000
2.264068e+003,4.756238e+000
2.265033e+003,3.884009e+000
2.265997e+003,3.469373e+000
2.266961e+003,4.073493e+000
2.267925e+003,4.759906e+000
2.268890e+003,4.972150e+000
2.269854e+003,4.721588e+000
2.270818e+003,3.678809e+000
2.271782e+003,2.486224e+000
2.272747e+003,2.410437e+000
2.273711e+003,3.164673e+000
2.274675e+003,3.128747e+000
2.275639e+003,1.978589e+000
2.276604e+003,1.071387e+000
2.277568e+003,9.092285e-001
2.278532e+003,7.071289e-001
2.279496e+003,9.302978e-002
2.280460e+003,-4.508118e-001
2.281425e+003,-5.225830e-001
2.282389e+003,-7.440308e-001
2.283353e+003,-1.992947e+000
2.284317e+003,-2.979559e+000
2.285281e+003,-2.010550e+000
2.286246e+003,-2.390808e-001
2.287210e+003,1.919006e-001
2.288174e+003,-5.206787e-001
2.289138e+003,-7.332093e-001
2.290103e+003,-2.443848e-001
2.291067e+003,-6.370850e-002
2.292031e+003,-2.514954e-001
2.292995e+003,-6.280335e-001
2.293960e+003,-1.730399e+000
2.294924e+003,-2.031213e+000
2.295888e+003,-5.205139e-001
2.296852e+003,6.335083e-001
2.297817e+003,1.650024e-001
2.298781e+003,-6.482849e-001
2.299745e+003,-5.761108e-001
2.300709e+003,-2.105530e-001
2.301674e+003,-6.582459e-001
2.302638e+003,-1.764978e+000
2.303602e+003,-2.716717e+000
2.304566e+003,-3.583835e+000
2.305531e+003,-3.472299e+000
2.306495e+003,-2.101831e+000
2.307459e+003,-1.680029e+000
2.308423e+003,-2.590527e+000
2.309387e+003,-2.811349e+000
2.310352e+003,-1.734570e+000
2.311316e+003,-1.351117e+000
2.312280e+003,-2.665015e+000
2.313244e+003,-3.791870e+000
2.314208e+003,-3.147110e+000
2.315173e+003,-1.904050e+000
2.316137e+003,-1.663147e+000
2.317101e+003,-2.307480e+000
2.318065e+003,-4.163107e+000
2.319030e+003,-6.503168e+000
2.319994e+003,-5.807440e+000
2.320958e+003,-3.001184e+000
2.321922e+003,-2.216125e+000
2.322887e+003,-3.287225e+000
2.323851e+003,-3.332050e+000
2.324815e+003,-2.014459e+000
2.325779e+003,-1.133862e+000
2.326744e+003,-1.364044e+000
2.327708e+003,-2.088294e+000
2.328672e+003,-2.960544e+000
2.329636e+003,-3.200632e+000
2.330601e+003,-1.488519e+000
2.331565e+003,2.517090e-001
2.332529e+003,-3.992127e-001
2.333493e+003,-1.963556e+000
2.334458e+003,-3.233533e+000
2.335422e+003,-3.881690e+000
2.336386e+003,-2.965878e+000
2.337350e+003,-1.510516e+000
2.338314e+003,-1.490234e+000
2.339279e+003,-2.626273e+000
2.340243e+003,-3.236475e+000
2.341207e+003,-3.045004e+000
2.342171e+003,-3.148261e+000
2.343135e+003,-4.034402e+000
2.344100e+003,-4.489349e+000
2.345064e+003,-3.374664e+000
2.346028e+003,-2.828702e+000
2.346992e+003,-4.205002e+000
2.347957e+003,-5.419656e+000
2.348921e+003,-5.308203e+000
2.349885e+003,-4.858652e+000
2.350849e+003,-4.608459e+000
2.351814e+003,-4.659051e+000
2.352778e+003,-5.382156e+000
2.353742e+003,-6.330740e+000
2.354706e+003,-6.320999e+000
2.355671e+003,-5.413114e+000
2.356635e+003,-4.934387e+000
2.357599e+003,-5.193222e+000
2.358563e+003,-4.535550e+000
2.359528e+003,-2.392371e+000
2.360492e+003,-1.321204e+000
2.361456e+003,-1.740051e+000
2.362420e+003,-2.632016e+000
2.363385e+003,-3.877756e+000
2.364349e+003,-4.768698e+000
2.365313e+003,-4.922071e+000
2.366277e+003,-4.516809e+000
2.367241e+003,-3.630667e+000
2.368206e+003,-3.003049e+000
2.369170e+003,-3.979556e+000
2.370134e+003,-5.789569e+000
2.371098e+003,-6.092288e+000
2.372063e+003,-5.258356e+000
2.373027e+003,-4.760214e+000
2.373991e+003,-4.457910e+000
2.374955e+003,-3.824466e+000
2.375919e+003,-2.908270e+000
2.376884e+003,-1.877307e+000
2.377848e+003,-9.383301e-001
2.378812e+003,-5.611267e-001
2.379776e+003,-8.816468e-001
2.380741e+003,-1.769183e+000
2.381705e+003,-3.170712e+000
2.382669e+003,-4.416571e+000
2.383633e+003,-5.306262e+000
2.384598e+003,-5.321402e+000
2.385562e+003,-3.384363e+000
2.386526e+003,-1.295898e+000
2.387490e+003,-2.228638e-001
2.388455e+003,8.522339e-002
2.389419e+003,-1.907043e-001
2.390383e+003,-9.394226e-001
2.391347e+003,-2.626090e+000
2.392312e+003,-4.530902e+000
2.393276e+003,-4.987525e+000
2.394240e+003,-4.029129e+000
2.395204e+003,-3.066107e+000
2.396168e+003,-2.035645e+000
2.397133e+003,-1.841229e+000
2.398097e+003,-3.356750e+000
2.399061e+003,-4.105582e+000
2.400025e+003,-3.382617e+000
2.400990e+003,-3.238812e+000
2.401954e+003,-4.561914e+000
2.402918e+003,-5.493548e+000
2.403882e+003,-5.207809e+000
2.404846e+003,-4.023697e+000
2.405811e+003,-1.943079e+000
2.406775e+003,-4.624023e-002
2.407739e+003,4.308472e-002
2.408703e+003,-1.151978e+000
2.409668e+003,-2.398749e+000
2.410632e+003,-3.508847e+000
2.411596e+003,-3.429877e+000
2.412560e+003,-2.426294e+000
2.413525e+003,-1.147797e+000
2.414489e+003,1.300049e-002
2.415453e+003,-4.105225e-001
2.416417e+003,-2.197687e+000
2.417382e+003,-3.938095e+000
2.418346e+003,-5.100006e+000
2.419310e+003,-5.434875e+000
2.420274e+003,-4.885040e+000
2.421239e+003,-4.244867e+000
2.422203e+003,-4.000796e+000
2.423167e+003,-3.827994e+000
2.424131e+003,-3.446588e+000
2.425095e+003,-3.114844e+000
2.426060e+003,-2.820917e+000
2.427024e+003,-2.856183e+000
2.427988e+003,-3.761108e+000
2.428952e+003,-4.799872e+000
2.429917e+003,-5.427686e+000
2.430881e+003,-5.551206e+000
2.431845e+003,-4.828595e+000
2.432809e+003,-3.643460e+000
2.433773e+003,-3.375784e+000
2.434738e+003,-4.011966e+000
2.435702e+003,-3.962579e+000
2.436666e+003,-2.854205e+000
2.437630e+003,-2.427741e+000
2.438595e+003,-2.938477e+000
2.439559e+003,-3.135529e+000
2.440523e+003,-2.806885e+000
2.441487e+003,-2.118536e+000
2.442452e+003,-1.105927e+000
2.443416e+003,-7.250732e-001
2.444380e+003,-1.453772e+000
2.445344e+003,-2.601404e+000
2.446309e+003,-3.639905e+000
2.447273e+003,-3.886780e+000
2.448237e+003,-2.284888e+000
2.449201e+003,1.842590e-001
2.450166e+003,2.650677e+000
2.451130e+003,4.336444e+000
2.452094e+003,3.105658e+000
2.453058e+003,8.044434e-001
2.454022e+003,7.962402e-001
2.454987e+003,1.672742e+000
2.455951e+003,3.801269e-002
2.456915e+003,-3.214691e+000
2.457879e+003,-4.968613e+000
2.458844e+003,-4.786176e+000
2.459808e+003,-3.975662e+000
2.460772e+003,-2.798212e+000
2.461736e+003,-1.447003e+000
2.462700e+003,8.596497e-001
2.463665e+003,1.789777e+000
2.464629e+003,3.922485e-001
2.465593e+003,-1.035974e+000
2.466557e+003,-2.337482e+000
2.467522e+003,-3.215338e+000
2.468486e+003,-3.459119e+000
2.469450e+003,-3.442700e+000
2.470414e+003,-3.411389e+000
2.471379e+003,-3.205951e+000
2.472343e+003,-2.611975e+000
2.473307e+003,-1.995190e+000
2.474271e+003,-2.110065e+000
2.475236e+003,-2.755255e+000
2.476200e+003,-3.346124e+000
2.477164e+003,-3.872183e+000
2.478128e+003,-4.466766e+000
2.479093e+003,-4.882834e+000
2.480057e+003,-4.175513e+000
2.481021e+003,-2.861694e+000
2.481985e+003,-2.558093e+000
2.482949e+003,-3.185626e+000
2.483914e+003,-3.369403e+000
2.484878e+003,-2.793481e+000
2.485842e+003,-2.255182e+000
2.486806e+003,-2.071381e+000
2.487771e+003,-1.701154e+000
2.488735e+003,-5.086487e-001
2.489699e+003,1.984619e-001
2.490663e+003,-6.411377e-001
2.491627e+003,-1.042090e+000
2.492592e+003,6.003784e-001
2.493556e+003,1.459753e+000
2.494520e+003,-3.295227e-001
2.495484e+003,-2.411652e+000
2.496449e+003,-3.009406e+000
2.497413e+003,-2.434967e+000
2.498377e+003,-9.103577e-001
2.499341e+003,8.563477e-001
2.500306e+003,8.309448e-001
2.501270e+003,-5.152893e-001
2.502234e+003,-1.350574e+000
2.503198e+003,-1.585327e+000
2.504163e+003,-2.652527e-001
2.505127e+003,1.724963e+000
2.506091e+003,1.408344e+000
2.507055e+003,-6.019226e-001
2.508020e+003,-1.466248e+000
2.508984e+003,-8.270996e-001
2.509948e+003,5.670776e-002
2.510912e+003,6.919068e-001
2.511876e+003,6.135925e-001
2.512841e+003,-6.251526e-001
2.513805e+003,-1.429504e+000
2.514769e+003,-1.285327e+000
2.515733e+003,-6.624573e-001
2.516698e+003,1.289435e+000
2.517662e+003,2.139380e+000
2.518626e+003,4.104553e-001
2.519590e+003,-1.027643e+000
2.520554e+003,-7.432312e-001
2.521519e+003,3.887268e-001
2.522483e+003,1.804480e+000
2.523447e+003,2.910742e+000
2.524411e+003,2.835193e+000
2.525376e+003,2.040601e+000
2.526340e+003,1.468579e+000
2.527304e+003,1.088611e+000
2.528268e+003,1.067090e+000
2.529233e+003,1.168506e+000
2.530197e+003,2.844177e-001
2.531161e+003,-7.108704e-001
2.532125e+003,6.564514e-001
2.533090e+003,3.414093e+000
2.534054e+003,4.726923e+000
2.535018e+003,4.443744e+000
2.535982e+003,3.992200e+000
2.536947e+003,3.740485e+000
2.537911e+003,3.984650e+000
2.538875e+003,5.191986e+000
2.539839e+003,5.670001e+000
2.540803e+003,4.245410e+000
2.541768e+003,3.830481e+000
2.542732e+003,5.476776e+000
2.543696e+003,5.850360e+000
2.544660e+003,3.559332e+000
2.545625e+003,2.581610e+000
2.546589e+003,4.973071e+000
2.547553e+003,6.980029e+000
2.548517e+003,5.661328e+000
2.549482e+003,3.288690e+000
2.550446e+003,2.420532e+000
2.551410e+003,2.588184e+000
2.552374e+003,3.394360e+000
2.553339e+003,4.395953e+000
2.554303e+003,5.452100e+000
2.555267e+003,5.891235e+000
2.556231e+003,3.931103e+000
2.557196e+003,1.552905e+000
2.558160e+003,1.808044e+000
2.559124e+003,3.352228e+000
2.560088e+003,3.316242e+000
2.561052e+003,2.193286e+000
2.562017e+003,2.645294e+000
2.562981e+003,4.679090e+000
2.563945e+003,5.569403e+000
2.564909e+003,5.139099e+000
2.565874e+003,4.322314e+000
2.566838e+003,2.957507e+000
2.567802e+003,2.925098e+000
2.568766e+003,4.394031e+000
2.569730e+003,5.476819e+000
2.570695e+003,5.734754e+000
2.571659e+003,4.925287e+000
2.572623e+003,3.199396e+000
2.573587e+003,2.308142e+000
2.574552e+003,3.139923e+000
2.575516e+003,3.796887e+000
2.576480e+003,2.896851e+000
2.577444e+003,1.797565e+000
2.578409e+003,1.345160e+000
2.579373e+003,8.423767e-001
2.580337e+003,-9.573425e-001
2.581301e+003,-1.625873e+000
2.582266e+003,1.652753e+000
2.583230e+003,4.896063e+000
2.584194e+003,5.399170e+000
2.585158e+003,4.470050e+000
2.586123e+003,3.194232e+000
2.587087e+003,1.768268e+000
2.588051e+003,3.761169e-001
2.589015e+003,-6.748047e-001
2.589979e+003,-1.985474e-001
2.590944e+003,1.333008e+000
2.591908e+003,2.486017e+000
2.592872e+003,2.976709e+000
2.593836e+003,1.253626e+000
2.594801e+003,-1.242310e+000
2.595765e+003,-8.389465e-001
2.596729e+003,1.292230e+000
2.597693e+003,1.384833e+000
2.598657e+003,-5.667908e-001
2.599622e+003,-2.278381e+000
2.600586e+003,-3.264600e+000
2.601550e+003,-2.752429e+000
2.602514e+003,6.929443e-001
2.603479e+003,1.425885e+000
2.604443e+003,-2.135535e+000
2.605407e+003,-3.504864e+000
2.606371e+003,-1.670227e+000
2.607336e+003,-3.165039e-001
2.608300e+003,-2.722839e-001
2.609264e+003,-2.281189e-001
2.610228e+003,2.661072e-001
2.611193e+003,3.683777e-001
2.612157e+003,-3.717285e-001
2.613121e+003,-1.171088e+000
2.614085e+003,-1.436578e+000
2.615050e+003,-1.559137e+000
2.616014e+003,-1.907147e+000
2.616978e+003,-2.205804e+000
2.617942e+003,-2.476642e+000
2.618906e+003,-2.285663e+000
2.619871e+003,-2.501953e-001
2.620835e+003,9.673584e-001
2.621799e+003,-1.442145e+000
2.622763e+003,-4.338959e+000
2.623728e+003,-4.916675e+000
2.624692e+003,-3.945673e+000
2.625656e+003,-2.486877e+000
2.626620e+003,-8.810913e-001
2.627584e+003,6.607056e-002
2.628549e+003,3.546509e-001
2.629513e+003,-2.200439e-001
2.630477e+003,-1.317828e+000
2.631441e+003,-2.672522e+000
2.632406e+003,-3.683447e+000
2.633370e+003,-2.528400e+000
2.634334e+003,-5.899048e-001
2.635298e+003,-1.713818e+000
2.636263e+003,-4.691840e+000
2.637227e+003,-3.778986e+000
2.638191e+003,1.369623e+000
2.639155e+003,3.389386e+000
2.640120e+003,1.531061e+000
2.641084e+003,-1.549866e-001
2.642048e+003,-1.981256e+000
2.643012e+003,-1.645276e+000
2.643977e+003,1.035547e+000
2.644941e+003,2.237036e+000
2.645905e+003,1.460498e+000
2.646869e+003,1.246399e-001
2.647833e+003,-1.147430e+000
2.648798e+003,-1.359180e+000
2.649762e+003,-2.766785e-001
2.650726e+003,3.472900e-002
2.651690e+003,-1.746112e+000
2.652655e+003,-3.095428e+000
2.653619e+003,-2.791858e+000
2.654583e+003,-1.904956e+000
2.655547e+003,-1.169983e-001
2.656511e+003,1.246466e+000
2.657476e+003,1.707123e+000
2.658440e+003,1.923657e+000
2.659404e+003,2.223297e+000
2.660368e+003,2.090649e+000
2.661333e+003,1.186877e+000
2.662297e+003,1.170715e-001
2.663261e+003,-5.691223e-001
2.664225e+003,-1.158868e+000
2.665190e+003,-2.304547e+000
2.666154e+003,-3.091119e+000
2.667118e+003,-2.129596e+000
2.668082e+003,-6.236511e-001
2.669047e+003,5.687866e-001
2.670011e+003,1.425207e+000
2.670975e+003,2.259418e+000
2.671939e+003,2.443054e+000
2.672904e+003,7.368347e-001
2.673868e+003,-1.159399e+000
2.674832e+003,-7.081787e-001
2.675796e+003,8.756409e-001
2.676760e+003,2.869995e-001
2.677725e+003,-1.675207e+000
2.678689e+003,-1.485687e+000
2.679653e+003,4.073486e-002
2.680617e+003,3.105652e-001
2.681582e+003,1.635742e-002
2.682546e+003,1.249786e+000
2.683510e+003,3.029022e+000
2.684474e+003,2.905097e+000
2.685438e+003,1.399439e+000
2.686403e+003,5.911743e-001
2.687367e+003,5.749939e-001
2.688331e+003,4.252319e-002
2.689295e+003,-1.034082e+000
2.690260e+003,-5.641724e-001
2.691224e+003,1.837671e+000
2.692188e+003,1.670239e+000
2.693152e+003,-9.757873e-001
2.694117e+003,-1.756653e+000
2.695081e+003,-5.806519e-001
2.696045e+003,3.519043e-001
2.697009e+003,5.735596e-001
2.697974e+003,1.734924e-001
2.698938e+003,-5.640869e-001
2.699902e+003,-2.834839e-001
2.700866e+003,1.552240e+000
2.701831e+003,2.700043e+000
2.702795e+003,2.453961e+000
2.703759e+003,1.521246e+000
2.704723e+003,-6.896667e-001
2.705688e+003,-1.437824e+000
2.706652e+003,-1.502808e-001
2.707616e+003,4.750732e-001
2.708580e+003,-1.943420e-001
2.709544e+003,-3.087280e-001
2.710509e+003,7.548950e-001
2.711473e+003,1.044330e+000
2.712437e+003,-5.274658e-001
2.713401e+003,-1.495618e+000
2.714365e+003,-9.229736e-002
2.715330e+003,2.067719e+000
2.716294e+003,5.888086e+000
2.717258e+003,7.599072e+000
2.718222e+003,3.977332e+000
2.719187e+003,8.456970e-001
2.720151e+003,-1.616516e-001
2.721115e+003,8.260498e-002
2.722079e+003,1.362500e+000
2.723044e+003,1.662176e+000
2.724008e+003,-5.782715e-001
2.724972e+003,-2.536261e+000
2.725936e+003,-1.131689e+000
2.726901e+003,1.111792e+000
2.727865e+003,1.551556e+000
2.728829e+003,1.407904e+000
2.729793e+003,1.360968e+000
2.730758e+003,1.467181e+000
2.731722e+003,2.476984e+000
2.732686e+003,2.617712e+000
2.733650e+003,-1.995789e-001
2.734615e+003,-2.569604e+000
2.735579e+003,-1.380072e+000
2.736543e+003,7.831665e-001
2.737507e+003,4.153442e-001
2.738471e+003,-1.039099e+000
2.739436e+003,-1.021246e+000
2.740400e+003,-1.388001e-001
2.741364e+003,1.013226e+000
2.742328e+003,1.988409e+000
2.743292e+003,1.821356e+000
2.744257e+003,1.638898e+000
2.745221e+003,3.473547e+000
2.746185e+003,5.302741e+000
2.747149e+003,3.833258e+000
2.748114e+003,1.355225e+000
2.749078e+003,1.355182e+000
2.750042e+003,2.815839e+000
2.751006e+003,2.880475e+000
2.751971e+003,2.231415e+000
2.752935e+003,3.975147e+000
2.753899e+003,6.362226e+000
2.754863e+003,4.812433e+000
2.755828e+003,1.778149e+000
2.756792e+003,1.509607e+000
2.757756e+003,2.591919e+000
2.758720e+003,2.119495e+000
2.759685e+003,8.032349e-001
2.760649e+003,1.133191e+000
2.761613e+003,2.390125e+000
2.762577e+003,1.991241e+000
2.763542e+003,2.523865e-001
2.764506e+003,-1.099854e-001
2.765470e+003,6.456299e-001
2.766434e+003,1.455273e+000
2.767398e+003,2.028668e+000
2.768363e+003,1.124762e+000
2.769327e+003,-3.308105e-001
2.770291e+003,2.726196e-001
2.771255e+003,1.947607e+000
2.772219e+003,1.258875e+000
2.773184e+003,-1.397436e+000
2.774148e+003,-2.046515e+000
2.775112e+003,-7.823242e-001
2.776076e+003,1.028137e-001
2.777041e+003,6.227051e-001
2.778005e+003,4.575806e-002
2.778969e+003,-1.254004e+000
2.779933e+003,-1.156891e+000
2.780898e+003,9.674072e-003
2.781862e+003,1.214117e+000
2.782826e+003,1.920087e+000
2.783790e+003,8.277405e-001
2.784755e+003,-1.399731e+000
2.785719e+003,-1.312488e+000
2.786683e+003,1.543115e+000
2.787647e+003,2.706708e+000
2.788612e+003,1.876996e+000
2.789576e+003,1.397070e+000
2.790540e+003,1.295129e+000
2.791504e+003,2.405756e+000
2.792469e+003,4.144958e+000
2.793433e+003,3.045135e+000
2.794397e+003,-1.510010e-001
2.795361e+003,-1.656110e+000
2.796325e+003,-1.132501e+000
2.797290e+003,-3.747436e-001
2.798254e+003,2.349915e-001
2.799218e+003,4.517700e-001
2.800182e+003,6.329956e-002
2.801146e+003,6.548889e-001
2.802111e+003,2.446289e+000
2.803075e+003,3.519147e+000
2.804039e+003,3.762256e+000
2.805003e+003,3.668164e+000
2.805968e+003,3.285205e+000
2.806932e+003,2.716827e+000
2.807896e+003,2.171490e+000
2.808860e+003,1.676013e+000
2.809825e+003,1.338062e+000
2.810789e+003,2.193561e+000
2.811753e+003,4.840173e+000
2.812717e+003,5.363696e+000
2.813682e+003,3.090710e+000
2.814646e+003,2.139179e+000
2.815610e+003,2.587433e+000
2.816574e+003,3.003076e+000
2.817539e+003,3.207227e+000
2.818503e+003,3.212024e+000
2.819467e+003,3.111499e+000
2.820431e+003,3.584369e+000
2.821396e+003,4.514331e+000
2.822360e+003,3.941321e+000
2.823324e+003,1.172644e+000
2.824288e+003,4.885925e-001
2.825252e+003,2.902234e+000
2.826217e+003,3.722211e+000
2.827181e+003,2.915570e+000
2.828145e+003,3.512231e+000
2.829109e+003,5.302582e+000
2.830073e+003,5.553247e+000
2.831038e+003,4.267535e+000
2.832002e+003,3.151532e+000
2.832966e+003,2.612732e+000
2.833930e+003,2.238788e+000
2.834895e+003,1.921851e+000
2.835859e+003,2.113532e+000
2.836823e+003,2.863373e+000
2.837787e+003,4.206573e+000
2.838752e+003,6.279871e+000
2.839716e+003,6.487427e+000
2.840680e+003,4.929565e+000
2.841644e+003,2.976166e+000
2.842609e+003,1.202948e+000
2.843573e+003,9.230347e-001
2.844537e+003,1.873505e+000
2.845501e+003,1.971600e+000
2.846466e+003,8.912964e-001
2.847430e+003,1.047614e+000
2.848394e+003,2.989410e+000
2.849358e+003,2.545081e+000
2.850323e+003,-5.252441e-001
2.851287e+003,7.739258e-003
2.852251e+003,3.481946e+000
2.853215e+003,4.250812e+000
2.854179e+003,2.565997e+000
2.855144e+003,1.040265e+000
2.856108e+003,3.393616e-001
2.857072e+003,8.668823e-001
2.858036e+003,2.444275e+000
2.859000e+003,3.476959e+000
2.859965e+003,3.864539e+000
2.860929e+003,3.507611e+000
2.861893e+003,2.320398e+000
2.862857e+003,2.184094e+000
2.863822e+003,2.935364e+000
2.864786e+003,3.210254e+000
2.865750e+003,3.215552e+000
2.866714e+003,4.014728e+000
2.867679e+003,5.281512e+000
2.868643e+003,6.210693e+000
2.869607e+003,6.595294e+000
2.870571e+003,5.553088e+000
2.871536e+003,3.519495e+000
2.872500e+003,4.661383e+000
2.873464e+003,8.671863e+000
2.874428e+003,9.160998e+000
2.875393e+003,6.990912e+000
2.876357e+003,4.111438e+000
2.877321e+003,1.666895e+000
2.878285e+003,1.842462e+000
2.879250e+003,3.639539e+000
2.880214e+003,5.446210e+000
2.881178e+003,6.503931e+000
2.882142e+003,5.360071e+000
2.883106e+003,2.808588e+000
2.884071e+003,1.715314e+000
2.885035e+003,1.982074e+000
2.885999e+003,3.870685e+000
2.886963e+003,6.165851e+000
2.887927e+003,5.462110e+000
2.888892e+003,3.581635e+000
2.889856e+003,3.027350e+000
2.890820e+003,3.779413e+000
2.891784e+003,6.257514e+000
2.892749e+003,8.938581e+000
2.893713e+003,9.607569e+000
2.894677e+003,8.711115e+000
2.895641e+003,6.941657e+000
2.896606e+003,4.857733e+000
2.897570e+003,4.137506e+000
2.898534e+003,4.151709e+000
2.899498e+003,4.134131e+000
2.900463e+003,3.884320e+000
2.901427e+003,2.604565e+000
2.902391e+003,1.727264e+000
2.903355e+003,3.351019e+000
2.904320e+003,5.204529e+000
2.905284e+003,4.848486e+000
2.906248e+003,3.810998e+000
2.907212e+003,4.472754e+000
2.908177e+003,5.840454e+000
2.909141e+003,6.620184e+000
2.910105e+003,6.661975e+000
2.911069e+003,4.966388e+000
2.912033e+003,3.519763e+000
2.912998e+003,4.617133e+000
2.913962e+003,5.492883e+000
2.914926e+003,4.271070e+000
2.915890e+003,2.771698e+000
2.916854e+003,2.271808e+000
2.917819e+003,2.843127e+000
2.918783e+003,4.816650e+000
2.919747e+003,6.155676e+000
2.920711e+003,3.738397e+000
2.921676e+003,1.407550e+000
2.922640e+003,1.891681e+000
2.923604e+003,2.641303e+000
2.924568e+003,2.820563e+000
2.925533e+003,2.586328e+000
2.926497e+003,1.816046e+000
2.927461e+003,7.495178e-001
2.928425e+003,1.024231e-001
2.929390e+003,4.273150e+000
2.930354e+003,1.607381e+001
2.931318e+003,2.317139e+001
2.932282e+003,1.438813e+001
2.933247e+003,6.053687e+000
2.934211e+003,5.104980e+000
2.935175e+003,3.934711e+000
2.936139e+003,5.512207e-001
2.937104e+003,-7.216492e-001
2.938068e+003,1.040033e+000
2.939032e+003,2.835223e+000
2.939996e+003,3.590021e+000
2.940960e+003,3.898517e+000
2.941925e+003,3.979889e+000
2.942889e+003,4.069092e+000
2.943853e+003,4.499164e+000
2.944817e+003,4.147058e+000
2.945781e+003,2.702734e+000
2.946746e+003,2.325781e+000
2.947710e+003,2.982654e+000
2.948674e+003,3.010242e+000
2.949638e+003,2.367914e+000
2.950603e+003,1.519952e+000
2.951567e+003,9.424927e-001
2.952531e+003,2.109735e+000
2.953495e+003,4.894226e+000
2.954460e+003,5.701660e+000
2.955424e+003,4.467865e+000
2.956388e+003,2.652173e+000
2.957352e+003,4.864502e-001
2.958317e+003,1.167340e+000
2.959281e+003,3.302985e+000
2.960245e+003,2.265558e+000
2.961209e+003,-7.833862e-002
2.962174e+003,7.807312e-001
2.963138e+003,3.611401e+000
2.964102e+003,4.861255e+000
2.965066e+003,5.041034e+000
2.966031e+003,5.621576e+000
2.966995e+003,6.040326e+000
2.967959e+003,3.649939e+000
2.968923e+003,3.671509e-001
2.969887e+003,3.660766e-001
2.970852e+003,1.844189e+000
2.971816e+003,3.120569e+000
2.972780e+003,4.078387e+000
2.973744e+003,4.976361e+000
2.974708e+003,5.181415e+000
2.975673e+003,3.995807e+000
2.976637e+003,2.446136e+000
2.977601e+003,1.746008e+000
2.978565e+003,1.180792e+000
2.979530e+003,-7.200806e-001
2.980494e+003,-2.089221e+000
2.981458e+003,-7.788086e-001
2.982422e+003,6.385742e-001
2.983387e+003,9.497986e-001
2.984351e+003,7.625000e-001
2.985315e+003,3.235474e-001
2.986279e+003,-8.487121e-001
2.987244e+003,-2.931268e+000
2.988208e+003,-3.887250e+000
2.989172e+003,-2.387482e+000
2.990136e+003,-6.073731e-001
2.991101e+003,5.673340e-001
2.992065e+003,1.131543e+000
2.993029e+003,9.318237e-001
2.993993e+003,3.902283e-001
2.994958e+003,-5.351502e-001
2.995922e+003,-7.614380e-001
2.996886e+003,-1.290466e-001
2.997850e+003,9.379212e-001
2.998814e+003,2.087884e+000
2.999779e+003,2.289056e+000
3.000743e+003,1.269391e+000
3.001707e+003,1.043140e+000
3.002671e+003,2.080054e+000
3.003635e+003,1.215832e+000
3.004600e+003,-1.349213e+000
3.005564e+003,-1.520172e+000
3.006528e+003,-6.083984e-002
3.007492e+003,-1.949707e-001
3.008457e+003,-1.152893e+000
3.009421e+003,-1.227417e-001
3.010385e+003,2.027386e+000
3.011349e+003,2.428326e+000
3.012314e+003,1.414380e+000
3.013278e+003,-4.501160e-001
3.014242e+003,-2.224390e+000
3.015206e+003,4.654419e-001
3.016171e+003,4.228406e+000
3.017135e+003,2.561017e+000
3.018099e+003,-5.212768e-001
3.019063e+003,-6.212891e-001
3.020028e+003,2.511047e-001
3.020992e+003,3.835998e-001
3.021956e+003,-8.201294e-002
3.022920e+003,-1.119397e+000
3.023885e+003,-2.095386e+000
3.024849e+003,-2.314838e+000
3.025813e+003,-2.002094e+000
3.026777e+003,-9.521301e-001
3.027741e+003,-1.068359e-001
3.028706e+003,1.696777e-003
3.029670e+003,-6.280518e-002
3.030634e+003,-7.672729e-002
3.031598e+003,-1.043842e+000
3.032563e+003,-3.127283e+000
3.033527e+003,-2.581909e+000
3.034491e+003,1.756799e+000
3.035455e+003,3.884796e+000
3.036420e+003,5.906311e-001
3.037384e+003,-9.569885e-001
3.038348e+003,1.565741e+000
3.039312e+003,2.320709e+000
3.040277e+003,1.235364e+000
3.041241e+003,1.877503e-001
3.042205e+003,-6.221436e-001
3.043169e+003,-1.305750e+000
3.044134e+003,-1.862201e+000
3.045098e+003,-2.449090e+000
3.046062e+003,-2.853552e+000
3.047026e+003,-1.911743e+000
3.047990e+003,-4.606934e-002
3.048955e+003,1.030579e-001
3.049919e+003,-8.673706e-001
3.050883e+003,-1.731751e-001
3.051847e+003,1.146655e+000
3.052812e+003,1.486584e+000
3.053776e+003,1.251770e+000
3.054740e+003,3.967834e-001
3.055704e+003,1.851196e-002
3.056668e+003,1.310828e+000
3.057633e+003,2.951105e+000
3.058597e+003,3.507007e+000
3.059561e+003,3.211438e+000
3.060525e+003,1.644958e+000
3.061490e+003,5.686340e-001
3.062454e+003,2.259027e+000
3.063418e+003,3.359332e+000
3.064382e+003,2.114838e+000
3.065347e+003,1.494696e+000
3.066311e+003,2.358508e+000
3.067275e+003,2.601904e+000
3.068239e+003,1.547308e+000
3.069204e+003,7.767761e-001
3.070168e+003,9.356201e-001
3.071132e+003,8.295044e-001
3.072096e+003,-4.883972e-001
3.073061e+003,2.799560e-001
3.074025e+003,3.557281e+000
3.074989e+003,4.035895e+000
3.075953e+003,1.967181e+000
3.076917e+003,-3.097534e-002
3.077882e+003,-1.329700e+000
3.078846e+003,-1.264166e+000
3.079810e+003,-2.457947e-001
3.080774e+003,2.466003e-001
3.081739e+003,3.684509e-001
3.082703e+003,9.922791e-001
3.083667e+003,1.568079e+000
3.084631e+003,-6.291138e-001
3.085595e+003,-3.100778e+000
3.086560e+003,-8.463013e-001
3.087524e+003,2.216095e+000
3.088488e+003,2.223657e+000
3.089452e+003,7.341126e-001
3.090417e+003,-1.461182e+000
3.091381e+003,-2.874045e+000
3.092345e+003,-2.310467e+000
3.093309e+003,-1.471600e+000
3.094274e+003,-1.963181e+000
3.095238e+003,-2.534488e+000
3.096202e+003,-2.536224e+000
3.097166e+003,-1.980808e+000
3.098131e+003,-5.582825e-001
3.099095e+003,-3.372009e-001
3.100059e+003,-1.588547e+000
3.101023e+003,-2.719842e+000
3.101988e+003,-3.103552e+000
3.102952e+003,-1.753961e+000
3.103916e+003,1.168884e+000
3.104880e+003,1.947229e+000
3.105844e+003,1.538635e-001
3.106809e+003,-4.578491e-001
3.107773e+003,-8.759155e-002
3.108737e+003,-1.492657e+000
3.109701e+003,-3.722092e+000
3.110666e+003,-4.457776e+000
3.111630e+003,-3.993100e+000
3.112594e+003,-2.396112e+000
3.113558e+003,-1.007519e+000
3.114522e+003,-1.543909e+000
3.115487e+003,-2.649594e+000
3.116451e+003,-2.278039e+000
3.117415e+003,-1.629712e+000
3.118379e+003,-3.041849e+000
3.119344e+003,-4.101291e+000
3.120308e+003,-1.966669e+000
3.121272e+003,-7.441803e-001
3.122236e+003,-2.178815e+000
3.123201e+003,-3.182150e+000
3.124165e+003,-2.785907e+000
3.125129e+003,-2.140598e+000
3.126093e+003,-1.842602e+000
3.127058e+003,-2.636121e+000
3.128022e+003,-5.155896e+000
3.128986e+003,-5.198584e+000
3.129950e+003,-1.066595e+000
3.130915e+003,1.951904e-001
3.131879e+003,-1.154095e+000
3.132843e+003,-2.935434e+000
3.133807e+003,-4.409790e+000
3.134771e+003,-3.659268e+000
3.135736e+003,-1.920187e+000
3.136700e+003,-2.203821e+000
3.137664e+003,-3.928583e+000
3.138628e+003,-5.937030e+000
3.139593e+003,-7.453143e+000
3.140557e+003,-6.267227e+000
3.141521e+003,-3.932868e+000
3.142485e+003,-2.238461e+000
3.143449e+003,-1.206259e+000
3.144414e+003,-8.321716e-001
3.145378e+003,-1.393811e+000
3.146342e+003,-3.260745e+000
3.147306e+003,-4.160376e+000
3.148271e+003,-3.111432e+000
3.149235e+003,-2.450311e+000
3.150199e+003,-3.501956e+000
3.151163e+003,-4.852692e+000
3.152128e+003,-6.366040e+000
3.153092e+003,-6.600687e+000
3.154056e+003,-5.493570e+000
3.155020e+003,-3.668689e+000
3.155985e+003,-1.541351e+000
3.156949e+003,-2.981598e-001
3.157913e+003,-1.697693e-002
3.158877e+003,-9.159668e-001
3.159842e+003,-2.389542e+000
3.160806e+003,-2.821936e+000
3.161770e+003,-2.537866e+000
3.162734e+003,-2.470837e+000
3.163698e+003,-2.333560e+000
3.164663e+003,-1.110321e+000
3.165627e+003,-4.250183e-002
3.166591e+003,-5.848755e-001
3.167555e+003,-1.538690e+000
3.168520e+003,-2.430157e+000
3.169484e+003,-2.671503e+000
3.170448e+003,-1.975534e+000
3.171412e+003,-1.134714e+000
3.172376e+003,-6.224213e-001
3.173341e+003,-5.385407e-001
3.174305e+003,-1.027835e+000
3.175269e+003,-1.755209e+000
3.176233e+003,-2.815411e+000
3.177198e+003,-3.089984e+000
3.178162e+003,-2.662427e+000
3.179126e+003,-1.936319e+000
3.180090e+003,-1.554663e+000
3.181055e+003,-4.113523e+000
3.182019e+003,-7.648227e+000
3.182983e+003,-5.796319e+000
3.183947e+003,-1.310345e+000
3.184912e+003,-9.862427e-001
3.185876e+003,-2.824912e+000
3.186840e+003,-2.722729e+000
3.187804e+003,-1.842566e+000
3.188769e+003,-5.911865e-001
3.189733e+003,-3.162872e-001
3.190697e+003,-2.217438e+000
3.191661e+003,-3.645868e+000
3.192625e+003,-3.489575e+000
3.193590e+003,-2.364737e+000
3.194554e+003,-6.607391e-001
3.195518e+003,2.890015e-001
3.196482e+003,-4.322510e-001
3.197447e+003,-6.572815e-001
3.198411e+003,-4.956665e-002
3.199375e+003,-3.344177e-001
3.200339e+003,-1.321558e+000
3.201303e+003,-1.492056e+000
3.202268e+003,-1.161246e+000
3.203232e+003,-1.546658e+000
3.204196e+003,-2.309228e+000
3.205160e+003,-2.509442e+000
3.206125e+003,-2.251074e+000
3.207089e+003,-1.649792e+000
3.208053e+003,-9.290131e-001
3.209017e+003,-4.132568e-001
3.209982e+003,-8.204956e-002
3.210946e+003,8.850098e-004
3.211910e+003,4.295654e-002
3.212874e+003,2.113953e-002
3.213839e+003,6.694000e-001
3.214803e+003,2.040570e+000
3.215767e+003,1.551083e+000
3.216731e+003,-1.524722e+000
3.217696e+003,-3.392352e+000
3.218660e+003,-2.579883e+000
3.219624e+003,-2.221942e+000
3.220588e+003,-2.351523e+000
3.221552e+003,-1.580542e+000
3.222517e+003,-5.023316e-001
3.223481e+003,-1.797217e+000
3.224445e+003,-3.522595e+000
3.225409e+003,-1.189539e+000
3.226374e+003,1.946390e+000
3.227338e+003,1.846109e+000
3.228302e+003,3.625824e-001
3.229266e+003,-4.107147e-001
3.230230e+003,-5.325562e-001
3.231195e+003,5.582428e-001
3.232159e+003,1.342532e+000
3.233123e+003,9.924957e-001
3.234087e+003,2.901459e-001
3.235052e+003,-6.588867e-001
3.236016e+003,-8.814392e-001
3.236980e+003,-3.632477e-001
3.237944e+003,-4.124939e-001
3.238909e+003,-1.100839e+000
3.239873e+003,-1.583069e-001
3.240837e+003,2.097229e+000
3.241801e+003,1.740479e+000
3.242766e+003,-2.826416e-001
3.243730e+003,-1.816101e-001
3.244694e+003,9.879486e-001
3.245658e+003,2.442737e+000
3.246623e+003,3.030405e+000
3.247587e+003,1.724933e+000
3.248551e+003,-2.977295e-002
3.249515e+003,-1.371713e+000
3.250479e+003,-1.323456e+000
3.251444e+003,1.159210e+000
3.252408e+003,2.712646e+000
3.253372e+003,7.071594e-001
3.254336e+003,-1.020981e+000
3.255301e+003,-2.338745e+000
3.256265e+003,-1.020474e+000
3.257229e+003,2.068314e+000
3.258193e+003,2.417389e+000
3.259157e+003,6.727753e-001
3.260122e+003,2.459656e-001
3.261086e+003,9.447327e-001
3.262050e+003,1.553839e+000
3.263014e+003,1.857813e+000
3.263979e+003,8.596039e-001
3.264943e+003,-4.674683e-002
3.265907e+003,1.461154e+000
3.266871e+003,2.771466e+000
3.267836e+003,2.293048e+000
3.268800e+003,1.488391e+000
3.269764e+003,8.417358e-001
3.270728e+003,1.526660e+000
3.271693e+003,3.628561e+000
3.272657e+003,4.163055e+000
3.273621e+003,1.968829e+000
3.274585e+003,1.632379e+000
3.275550e+003,3.430463e+000
3.276514e+003,4.781332e+000
3.277478e+003,5.511624e+000
3.278442e+003,4.579779e+000
3.279406e+003,3.114880e+000
3.280371e+003,2.808383e+000
3.281335e+003,2.859348e+000
3.282299e+003,2.489572e+000
3.283263e+003,2.197034e+000
3.284228e+003,2.410919e+000
3.285192e+003,3.057095e+000
3.286156e+003,4.740311e+000
3.287120e+003,5.387680e+000
3.288084e+003,4.056586e+000
3.289049e+003,3.790628e+000
3.290013e+003,4.666080e+000
3.290977e+003,4.500787e+000
3.291941e+003,3.380798e+000
3.292906e+003,2.467990e+000
3.293870e+003,2.304688e+000
3.294834e+003,3.819168e+000
3.295798e+003,5.823316e+000
3.296763e+003,4.587649e+000
3.297727e+003,2.428912e+000
3.298691e+003,3.312085e+000
3.299655e+003,5.017294e+000
3.300620e+003,6.576889e+000
3.301584e+003,6.980044e+000
3.302548e+003,5.884012e+000
3.303512e+003,4.619043e+000
3.304477e+003,3.873273e+000
3.305441e+003,4.718430e+000
3.306405e+003,7.555878e+000
3.307369e+003,8.516248e+000
3.308333e+003,7.325925e+000
3.309298e+003,6.892535e+000
3.310262e+003,7.037259e+000
3.311226e+003,7.592041e+000
3.312190e+003,7.943170e+000
3.313155e+003,7.095578e+000
3.314119e+003,5.610022e+000
3.315083e+003,3.698105e+000
3.316047e+003,3.467545e+000
3.317011e+003,6.863965e+000
3.317976e+003,9.583514e+000
3.318940e+003,7.631546e+000
3.319904e+003,6.108887e+000
3.320868e+003,5.873538e+000
3.321833e+003,6.439588e+000
3.322797e+003,7.572305e+000
3.323761e+003,8.079687e+000
3.324725e+003,8.229300e+000
3.325690e+003,9.497195e+000
3.326654e+003,1.109854e+001
3.327618e+003,1.119607e+001
3.328582e+003,1.022316e+001
3.329547e+003,8.489120e+000
3.330511e+003,7.293985e+000
3.331475e+003,8.905231e+000
3.332439e+003,1.017290e+001
3.333404e+003,9.549814e+000
3.334368e+003,9.721354e+000
3.335332e+003,1.113120e+001
3.336296e+003,1.108469e+001
3.337260e+003,9.338565e+000
3.338225e+003,9.414395e+000
3.339189e+003,1.172069e+001
3.340153e+003,1.167323e+001
3.341117e+003,9.884091e+000
3.342082e+003,9.518286e+000
3.343046e+003,9.974051e+000
3.344010e+003,1.118895e+001
3.344974e+003,1.154655e+001
3.345938e+003,9.330045e+000
3.346903e+003,7.690134e+000
3.347867e+003,8.103613e+000
3.348831e+003,9.780271e+000
3.349795e+003,1.233321e+001
3.350760e+003,1.331861e+001
3.351724e+003,1.116383e+001
3.352688e+003,9.733084e+000
3.353652e+003,9.120026e+000
3.354617e+003,1.088790e+001
3.355581e+003,1.347704e+001
3.356545e+003,1.327256e+001
3.357509e+003,1.188549e+001
3.358474e+003,1.181796e+001
3.359438e+003,1.207747e+001
3.360402e+003,1.164396e+001
3.361366e+003,1.169873e+001
3.362331e+003,1.411852e+001
3.363295e+003,1.516742e+001
3.364259e+003,1.218153e+001
3.365223e+003,1.232131e+001
3.366188e+003,1.562937e+001
3.367152e+003,1.614657e+001
3.368116e+003,1.420360e+001
3.369080e+003,1.306832e+001
3.370044e+003,1.323804e+001
3.371009e+003,1.438908e+001
3.371973e+003,1.578687e+001
3.372937e+003,1.591721e+001
3.373901e+003,1.555576e+001
3.374865e+003,1.571899e+001
3.375830e+003,1.549046e+001
3.376794e+003,1.423959e+001
3.377758e+003,1.384018e+001
3.378722e+003,1.452929e+001
3.379687e+003,1.446631e+001
3.380651e+003,1.366444e+001
3.381615e+003,1.501082e+001
3.382579e+003,1.826069e+001
3.383544e+003,1.933249e+001
3.384508e+003,1.872095e+001
3.385472e+003,1.770416e+001
3.386436e+003,1.674313e+001
3.387401e+003,1.588711e+001
3.388365e+003,1.624403e+001
3.389329e+003,1.847698e+001
3.390293e+003,2.033629e+001
3.391258e+003,2.093819e+001
3.392222e+003,2.128448e+001
3.393186e+003,2.180968e+001
3.394150e+003,2.136141e+001
3.395115e+003,1.980526e+001
3.396079e+003,1.861485e+001
3.397043e+003,1.786089e+001
3.398007e+003,1.775123e+001
3.398971e+003,1.829940e+001
3.399936e+003,1.969212e+001
3.400900e+003,2.151139e+001
3.401864e+003,2.362570e+001
3.402828e+003,2.491551e+001
3.403792e+003,2.461714e+001
3.404757e+003,2.383184e+001
3.405721e+003,2.268953e+001
3.406685e+003,2.266939e+001
3.407649e+003,2.376065e+001
3.408614e+003,2.409609e+001
3.409578e+003,2.389030e+001
3.410542e+003,2.398126e+001
3.411506e+003,2.402081e+001
3.412471e+003,2.300842e+001
3.413435e+003,2.271244e+001
3.414399e+003,2.506487e+001
3.415363e+003,2.717944e+001
3.416328e+003,2.553563e+001
3.417292e+003,2.461623e+001
3.418256e+003,2.639568e+001
3.419220e+003,2.717745e+001
3.420185e+003,2.684711e+001
3.421149e+003,2.623366e+001
3.422113e+003,2.574902e+001
3.423077e+003,2.621126e+001
3.424042e+003,2.711229e+001
3.425006e+003,2.750913e+001
3.425970e+003,2.757325e+001
3.426934e+003,2.763122e+001
