7.140112e+001,1.870834e+002
7.236536e+001,1.792790e+002
7.332959e+001,1.764841e+002
7.429382e+001,1.812168e+002
7.525806e+001,1.945406e+002
7.622229e+001,2.016889e+002
7.718652e+001,1.930696e+002
7.815076e+001,1.610300e+002
7.911499e+001,1.362171e+002
8.007922e+001,1.123137e+002
8.104346e+001,9.639003e+001
8.200769e+001,9.586649e+001
8.297192e+001,1.223927e+002
8.393616e+001,1.527802e+002
8.490039e+001,1.901430e+002
8.586462e+001,2.263416e+002
8.682886e+001,2.486091e+002
8.779310e+001,2.294417e+002
8.875733e+001,1.956974e+002
8.972157e+001,1.596198e+002
9.068580e+001,1.267721e+002
9.165003e+001,9.874542e+001
9.261427e+001,8.790662e+001
9.357850e+001,8.874811e+001
9.454273e+001,9.295968e+001
9.550697e+001,9.513364e+001
9.647120e+001,9.518817e+001
9.743543e+001,9.361044e+001
9.839967e+001,9.048894e+001
9.936390e+001,8.592433e+001
1.003281e+002,7.964852e+001
1.012924e+002,6.762193e+001
1.022566e+002,5.944602e+001
1.032208e+002,5.764680e+001
1.041851e+002,6.090166e+001
1.051493e+002,6.581860e+001
1.061135e+002,7.294816e+001
1.070778e+002,7.792515e+001
1.080420e+002,7.784456e+001
1.090062e+002,7.224223e+001
1.099705e+002,6.338922e+001
1.109347e+002,5.491032e+001
1.118989e+002,4.759562e+001
1.128632e+002,4.461082e+001
1.138274e+002,4.835760e+001
1.147916e+002,6.039513e+001
1.157559e+002,6.623765e+001
1.167201e+002,6.425088e+001
1.176843e+002,5.946912e+001
1.186486e+002,5.807567e+001
1.196128e+002,6.342776e+001
1.205770e+002,6.775081e+001
1.215413e+002,7.247974e+001
1.225055e+002,7.592466e+001
1.234697e+002,7.467647e+001
1.244340e+002,5.958781e+001
1.253982e+002,4.437062e+001
1.263624e+002,3.121744e+001
1.273267e+002,2.187177e+001
1.282909e+002,1.823702e+001
1.292551e+002,3.191561e+001
1.302194e+002,5.095955e+001
1.311836e+002,6.492558e+001
1.321478e+002,6.714584e+001
1.331121e+002,5.731065e+001
1.340763e+002,4.659399e+001
1.350405e+002,3.395996e+001
1.360048e+002,2.420331e+001
1.369690e+002,2.308274e+001
1.379332e+002,3.934087e+001
1.388975e+002,5.056440e+001
1.398617e+002,5.594181e+001
1.408259e+002,5.670482e+001
1.417902e+002,5.477985e+001
1.427544e+002,4.852277e+001
1.437186e+002,4.199274e+001
1.446829e+002,3.542376e+001
1.456471e+002,2.934906e+001
1.466113e+002,2.451587e+001
1.475756e+002,2.078440e+001
1.485398e+002,1.976873e+001
1.495040e+002,2.558818e+001
1.504683e+002,3.881477e+001
1.514325e+002,5.629519e+001
1.523967e+002,5.814476e+001
1.533610e+002,4.807482e+001
1.543252e+002,3.657299e+001
1.552894e+002,3.130178e+001
1.562537e+002,3.527711e+001
1.572179e+002,3.613334e+001
1.581821e+002,3.099746e+001
1.591464e+002,2.523355e+001
1.601106e+002,2.497296e+001
1.610748e+002,3.735587e+001
1.620391e+002,4.497599e+001
1.630033e+002,4.094126e+001
1.639676e+002,3.054857e+001
1.649318e+002,2.229984e+001
1.658960e+002,2.714499e+001
1.668603e+002,3.418737e+001
1.678245e+002,3.560437e+001
1.687887e+002,3.142908e+001
1.697530e+002,2.514388e+001
1.707172e+002,2.689086e+001
1.716814e+002,3.367448e+001
1.726457e+002,3.873600e+001
1.736099e+002,3.957432e+001
1.745741e+002,3.606127e+001
1.755384e+002,3.104120e+001
1.765026e+002,2.222336e+001
1.774668e+002,1.470510e+001
1.784311e+002,1.177284e+001
1.793953e+002,1.542477e+001
1.803595e+002,1.798188e+001
1.813238e+002,1.716079e+001
1.822880e+002,1.544843e+001
1.832522e+002,1.537167e+001
1.842165e+002,1.979911e+001
1.851807e+002,2.238935e+001
1.861449e+002,1.684207e+001
1.871092e+002,7.248633e+000
1.880734e+002,-1.161487e+000
1.890376e+002,-1.037060e+000
1.900019e+002,5.790393e+000
1.909661e+002,1.314415e+001
1.919303e+002,2.047987e+001
1.928946e+002,2.695010e+001
1.938588e+002,2.937524e+001
1.948230e+002,2.475302e+001
1.957873e+002,2.273761e+001
1.967515e+002,2.568760e+001
1.977157e+002,3.351871e+001
1.986800e+002,4.130272e+001
1.996442e+002,4.797457e+001
2.006084e+002,5.467892e+001
2.015727e+002,6.333677e+001
2.025369e+002,7.438674e+001
2.035011e+002,8.156215e+001
2.044654e+002,7.935537e+001
2.054296e+002,7.300755e+001
2.063938e+002,6.412823e+001
2.073581e+002,5.392133e+001
2.083223e+002,4.428845e+001
2.092865e+002,3.823722e+001
2.102508e+002,3.557781e+001
2.112150e+002,3.816430e+001
2.121792e+002,4.815953e+001
2.131435e+002,6.858336e+001
2.141077e+002,7.785830e+001
2.150719e+002,7.082247e+001
2.160362e+002,5.721217e+001
2.170004e+002,5.169916e+001
2.179646e+002,6.266998e+001
2.189289e+002,7.091595e+001
2.198931e+002,7.243018e+001
2.208573e+002,7.018091e+001
2.218216e+002,7.020376e+001
2.227858e+002,7.894719e+001
2.237500e+002,8.841893e+001
2.247143e+002,9.880489e+001
2.256785e+002,1.077582e+002
2.266427e+002,1.110495e+002
2.276070e+002,9.518517e+001
2.285712e+002,7.023232e+001
2.295354e+002,4.879772e+001
2.304997e+002,3.462532e+001
2.314639e+002,2.691373e+001
2.324281e+002,2.108558e+001
2.333924e+002,1.712229e+001
2.343566e+002,1.443021e+001
2.353208e+002,1.322965e+001
2.362851e+002,1.384827e+001
2.372493e+002,1.374384e+001
2.382135e+002,1.206021e+001
2.391778e+002,1.037048e+001
2.401420e+002,9.592468e+000
2.411062e+002,1.018132e+001
2.420705e+002,1.057028e+001
2.430347e+002,9.758533e+000
2.439989e+002,8.371313e+000
2.449632e+002,6.803638e+000
2.459274e+002,5.356128e+000
2.468916e+002,4.080762e+000
2.478559e+002,2.851221e+000
2.488201e+002,1.715015e+000
2.497843e+002,7.043335e-001
2.507486e+002,-1.611450e-001
2.517128e+002,-8.684815e-001
2.526770e+002,3.184082e-001
2.536413e+002,3.989185e+000
2.546055e+002,8.756994e+000
2.555697e+002,1.252701e+001
2.565340e+002,1.488351e+001
2.574982e+002,1.661615e+001
2.584625e+002,1.819879e+001
2.594267e+002,1.939021e+001
2.603909e+002,1.964005e+001
2.613552e+002,1.773630e+001
2.623194e+002,1.535186e+001
2.632836e+002,1.313899e+001
2.642479e+002,1.119435e+001
2.652121e+002,9.397741e+000
2.661763e+002,7.312805e+000
2.671406e+002,5.535510e+000
2.681048e+002,5.071546e+000
2.690690e+002,6.062927e+000
2.700333e+002,8.147766e+000
2.709975e+002,1.000385e+001
2.719617e+002,1.208945e+001
2.729260e+002,1.274755e+001
2.738902e+002,1.083110e+001
2.748544e+002,6.389722e+000
2.758187e+002,3.173560e+000
2.767829e+002,1.981812e+000
2.777471e+002,1.173193e+000
2.787114e+002,7.714844e-003
2.796756e+002,-1.505164e+000
2.806398e+002,-1.634009e+000
2.816041e+002,2.281848e+000
2.825683e+002,6.792066e+000
2.835325e+002,1.027743e+001
2.844968e+002,1.195529e+001
2.854610e+002,1.228065e+001
2.864252e+002,1.192650e+001
2.873895e+002,1.116672e+001
2.883537e+002,1.050892e+001
2.893179e+002,1.030699e+001
2.902822e+002,1.067345e+001
2.912464e+002,9.432373e+000
2.922106e+002,5.735693e+000
2.931749e+002,2.233704e+000
2.941391e+002,9.029053e-001
2.951033e+002,2.718225e+000
2.960676e+002,3.247534e+000
2.970318e+002,1.154138e+000
2.979960e+002,-1.061987e+000
2.989603e+002,-1.725256e+000
2.999245e+002,-1.890869e-002
3.008887e+002,2.742334e+000
3.018530e+002,6.382154e+000
3.028172e+002,9.919080e+000
3.037814e+002,1.208926e+001
3.047457e+002,1.175171e+001
3.057099e+002,1.022388e+001
3.066741e+002,1.263572e+001
3.076384e+002,1.785742e+001
3.086026e+002,2.157434e+001
3.095668e+002,1.878807e+001
3.105311e+002,6.267652e+000
3.114953e+002,-1.288586e+000
3.124595e+002,-2.403601e+000
3.134238e+002,-3.279541e-001
3.143880e+002,1.283972e+000
3.153522e+002,1.888416e+000
3.163165e+002,2.529736e+000
3.172807e+002,3.329187e+000
3.182449e+002,4.493530e+000
3.192092e+002,6.344226e+000
3.201734e+002,9.460584e+000
3.211376e+002,1.225076e+001
3.221019e+002,1.352056e+001
3.230661e+002,1.376561e+001
3.240303e+002,1.373063e+001
3.249946e+002,1.429235e+001
3.259588e+002,1.525332e+001
3.269230e+002,1.567722e+001
3.278873e+002,1.555453e+001
3.288515e+002,1.491732e+001
3.298157e+002,1.379635e+001
3.307800e+002,1.137379e+001
3.317442e+002,1.037402e+001
3.327084e+002,1.049214e+001
3.336727e+002,1.184164e+001
3.346369e+002,1.503281e+001
3.356011e+002,2.357433e+001
3.365654e+002,2.906510e+001
3.375296e+002,2.837875e+001
3.384938e+002,2.381820e+001
3.394581e+002,1.871531e+001
3.404223e+002,1.477096e+001
3.413865e+002,1.320027e+001
3.423508e+002,1.541772e+001
3.433150e+002,2.068680e+001
3.442792e+002,2.741244e+001
3.452435e+002,3.322582e+001
3.462077e+002,3.801886e+001
3.471719e+002,4.245896e+001
3.481362e+002,4.576974e+001
3.491004e+002,4.978314e+001
3.500646e+002,5.862646e+001
3.510289e+002,7.300779e+001
3.519931e+002,9.353168e+001
3.529573e+002,1.220479e+002
3.539216e+002,1.561750e+002
3.548858e+002,1.933793e+002
3.558500e+002,2.448229e+002
3.568143e+002,2.804744e+002
3.577785e+002,2.893449e+002
3.587427e+002,2.761761e+002
3.597070e+002,2.488571e+002
3.606712e+002,2.094147e+002
3.616354e+002,1.666208e+002
3.625997e+002,1.306523e+002
3.635639e+002,1.023199e+002
3.645281e+002,8.121776e+001
3.654924e+002,6.648718e+001
3.664566e+002,6.004280e+001
3.674208e+002,5.355391e+001
3.683851e+002,4.691436e+001
3.693493e+002,4.017421e+001
3.703135e+002,3.341860e+001
3.712778e+002,2.536597e+001
3.722420e+002,1.980500e+001
3.732062e+002,1.752329e+001
3.741705e+002,1.761981e+001
3.751347e+002,1.894890e+001
3.760989e+002,2.207029e+001
3.770632e+002,2.461151e+001
3.780274e+002,2.502826e+001
3.789916e+002,2.393997e+001
3.799559e+002,2.243120e+001
3.809201e+002,2.172820e+001
3.818844e+002,2.154583e+001
3.828486e+002,2.068726e+001
3.838128e+002,1.923494e+001
3.847771e+002,1.781455e+001
3.857413e+002,1.736168e+001
3.867055e+002,1.839363e+001
3.876698e+002,1.937481e+001
3.886340e+002,1.932095e+001
3.895982e+002,1.948326e+001
3.905625e+002,2.200615e+001
3.915267e+002,2.972830e+001
3.924909e+002,3.500813e+001
3.934552e+002,3.617666e+001
3.944194e+002,3.481749e+001
3.953836e+002,3.236381e+001
3.963479e+002,2.916329e+001
3.973121e+002,2.627875e+001
3.982763e+002,2.440857e+001
3.992406e+002,2.347532e+001
4.002048e+002,2.338975e+001
4.011690e+002,2.405593e+001
4.021333e+002,2.546716e+001
4.030975e+002,2.735120e+001
4.040617e+002,2.973149e+001
4.050260e+002,3.231896e+001
4.059902e+002,3.472380e+001
4.069544e+002,3.652740e+001
4.079187e+002,3.941167e+001
4.088829e+002,4.450735e+001
4.098471e+002,4.947743e+001
4.108114e+002,5.177087e+001
4.117756e+002,4.961141e+001
4.127398e+002,5.038427e+001
4.137041e+002,5.948627e+001
4.146683e+002,7.026349e+001
4.156325e+002,7.864858e+001
4.165968e+002,8.244293e+001
4.175610e+002,8.192905e+001
4.185252e+002,7.629231e+001
4.194895e+002,6.798773e+001
4.204537e+002,5.904945e+001
4.214179e+002,5.086769e+001
4.223822e+002,4.370531e+001
4.233464e+002,4.364966e+001
4.243106e+002,5.154944e+001
4.252749e+002,5.896782e+001
4.262391e+002,6.062899e+001
4.272033e+002,5.570077e+001
4.281676e+002,5.601121e+001
4.291318e+002,6.410547e+001
4.300960e+002,7.513878e+001
4.310603e+002,8.758093e+001
4.320245e+002,1.010816e+002
4.329887e+002,1.167428e+002
4.339530e+002,1.360339e+002
4.349172e+002,1.577805e+002
4.358814e+002,1.856182e+002
4.368457e+002,2.175899e+002
4.378099e+002,2.468771e+002
4.387741e+002,2.590006e+002
4.397384e+002,2.563597e+002
4.407026e+002,2.450208e+002
4.416668e+002,2.252371e+002
4.426311e+002,1.999855e+002
4.435953e+002,1.793208e+002
4.445595e+002,1.661159e+002
4.455238e+002,1.546364e+002
4.464880e+002,1.446040e+002
4.474522e+002,1.361862e+002
4.484165e+002,1.302344e+002
4.493807e+002,1.302148e+002
4.503449e+002,1.285971e+002
4.513092e+002,1.225870e+002
4.522734e+002,1.135768e+002
4.532376e+002,1.036323e+002
4.542019e+002,9.420119e+001
4.551661e+002,8.528204e+001
4.561303e+002,7.637401e+001
4.570946e+002,6.776926e+001
4.580588e+002,5.987826e+001
4.590230e+002,5.310316e+001
4.599873e+002,4.768832e+001
4.609515e+002,4.483311e+001
4.619157e+002,4.457908e+001
4.628800e+002,4.586940e+001
4.638442e+002,4.810754e+001
4.648084e+002,5.193204e+001
4.657727e+002,5.467860e+001
4.667369e+002,5.511150e+001
4.677011e+002,5.583486e+001
4.686654e+002,5.906629e+001
4.696296e+002,6.554491e+001
4.705938e+002,7.095691e+001
4.715581e+002,7.222028e+001
4.725223e+002,7.106788e+001
4.734865e+002,6.772675e+001
4.744508e+002,6.271636e+001
4.754150e+002,5.713853e+001
4.763792e+002,5.423656e+001
4.773435e+002,5.298680e+001
4.783077e+002,5.054715e+001
4.792719e+002,4.586837e+001
4.802362e+002,3.949905e+001
4.812004e+002,3.439323e+001
4.821646e+002,3.104703e+001
4.831289e+002,2.830006e+001
4.840931e+002,2.553553e+001
4.850573e+002,2.316744e+001
4.860216e+002,2.254671e+001
4.869858e+002,2.656568e+001
4.879500e+002,2.966490e+001
4.889143e+002,2.970768e+001
4.898785e+002,2.768406e+001
4.908427e+002,2.510421e+001
4.918070e+002,2.281778e+001
4.927712e+002,2.143956e+001
4.937354e+002,2.200759e+001
4.946997e+002,2.394806e+001
4.956639e+002,2.574392e+001
4.966281e+002,2.582142e+001
4.975924e+002,2.396047e+001
4.985566e+002,2.415429e+001
4.995208e+002,2.667465e+001
5.004851e+002,3.006904e+001
5.014493e+002,3.360608e+001
5.024135e+002,3.748969e+001
5.033778e+002,4.055236e+001
5.043420e+002,4.239129e+001
5.053063e+002,4.409896e+001
5.062705e+002,4.669735e+001
5.072347e+002,5.005971e+001
5.081990e+002,5.186644e+001
5.091632e+002,4.816311e+001
5.101274e+002,4.296327e+001
5.110917e+002,3.830697e+001
5.120559e+002,3.477940e+001
5.130201e+002,3.198458e+001
5.139844e+002,2.918760e+001
5.149486e+002,2.630001e+001
5.159128e+002,2.313035e+001
5.168771e+002,1.959955e+001
5.178413e+002,1.595789e+001
5.188055e+002,1.267877e+001
5.197698e+002,9.221521e+000
5.207340e+002,7.191034e+000
5.216982e+002,7.388336e+000
5.226625e+002,8.490259e+000
5.236267e+002,9.031140e+000
5.245909e+002,8.402582e+000
5.255552e+002,7.673480e+000
5.265194e+002,7.587012e+000
5.274836e+002,7.631970e+000
5.284479e+002,7.408362e+000
5.294121e+002,6.707593e+000
5.303763e+002,5.670129e+000
5.313406e+002,3.823267e+000
5.323048e+002,1.738892e+000
5.332690e+002,1.076270e+000
5.342333e+002,2.738068e+000
5.351975e+002,6.310339e+000
5.361617e+002,8.339203e+000
5.371260e+002,7.848602e+000
5.380902e+002,7.477435e+000
5.390544e+002,7.903021e+000
5.400187e+002,8.722132e+000
5.409829e+002,8.690344e+000
5.419471e+002,6.558264e+000
5.429114e+002,4.956531e+000
5.438756e+002,5.357703e+000
5.448398e+002,6.516242e+000
5.458041e+002,6.252948e+000
5.467683e+002,2.479431e+000
5.477325e+002,-1.815259e+000
5.486968e+002,-2.362354e+000
5.496610e+002,-2.519348e-001
5.506252e+002,2.788434e+000
5.515895e+002,5.346918e+000
5.525537e+002,7.379840e+000
5.535179e+002,7.577783e+000
5.544822e+002,5.652350e+000
5.554464e+002,3.743451e+000
5.564106e+002,3.013275e+000
5.573749e+002,3.439874e+000
5.583391e+002,3.358057e+000
5.593033e+002,2.257361e+000
5.602676e+002,1.075623e+000
5.612318e+002,-5.142822e-001
5.621960e+002,-2.063788e+000
5.631603e+002,-2.312982e+000
5.641245e+002,9.648072e-001
5.650887e+002,4.348681e+000
5.660530e+002,4.566919e+000
5.670172e+002,2.501233e+000
5.679814e+002,4.215027e-001
5.689457e+002,8.052246e-001
5.699099e+002,3.402051e+000
5.708741e+002,4.201422e+000
5.718384e+002,3.139343e+000
5.728026e+002,1.571753e+000
5.737668e+002,4.841736e-001
5.747311e+002,-8.988037e-002
5.756953e+002,-4.339966e-001
5.766595e+002,-4.926636e-001
5.776238e+002,-4.190063e-001
5.785880e+002,-3.267822e-002
5.795522e+002,5.531921e-001
5.805165e+002,6.726013e-001
5.814807e+002,-9.141968e-001
5.824449e+002,-2.336780e+000
5.834092e+002,-2.479047e+000
5.843734e+002,-1.543213e+000
5.853376e+002,-3.311218e-001
5.863019e+002,2.273315e-001
5.872661e+002,2.969238e-001
5.882303e+002,9.174255e-001
5.891946e+002,2.115472e+000
5.901588e+002,3.445087e+000
5.911230e+002,4.452484e+000
5.920873e+002,5.067651e+000
5.930515e+002,5.491760e+000
5.940157e+002,6.323474e+000
5.949800e+002,6.526978e+000
5.959442e+002,5.122369e+000
5.969084e+002,2.150140e+000
5.978727e+002,-2.996094e-001
5.988369e+002,-6.673950e-001
5.998011e+002,-5.034485e-001
6.007654e+002,-1.553894e-001
6.017296e+002,1.901855e-001
6.026938e+002,3.312683e-001
6.036581e+002,-1.562561e-001
6.046223e+002,-7.361572e-001
6.055865e+002,5.222168e-001
6.065508e+002,3.457440e+000
6.075150e+002,5.850641e+000
6.084792e+002,5.076148e+000
6.094435e+002,-2.708130e-002
6.104077e+002,-2.126892e+000
6.113719e+002,1.634399e-001
6.123362e+002,2.887183e+000
6.133004e+002,4.052447e+000
6.142646e+002,3.590076e+000
6.152289e+002,3.139752e+000
6.161931e+002,3.094501e+000
6.171573e+002,3.405511e+000
6.181216e+002,4.201471e+000
6.190858e+002,5.455853e+000
6.200500e+002,7.112122e+000
6.210143e+002,9.256116e+000
6.219785e+002,1.140853e+001
6.229427e+002,1.286418e+001
6.239070e+002,1.362552e+001
6.248712e+002,1.373286e+001
6.258354e+002,1.318022e+001
6.267997e+002,1.184138e+001
6.277639e+002,1.223738e+001
6.287281e+002,1.581054e+001
6.296924e+002,1.862771e+001
6.306566e+002,1.843837e+001
6.316208e+002,1.554971e+001
6.325851e+002,1.347288e+001
6.335493e+002,1.422344e+001
6.345135e+002,1.518152e+001
6.354778e+002,1.547722e+001
6.364420e+002,1.536748e+001
6.374063e+002,1.573476e+001
6.383705e+002,1.757718e+001
6.393347e+002,1.944120e+001
6.402990e+002,1.884588e+001
6.412632e+002,1.656745e+001
6.422274e+002,1.427856e+001
6.431917e+002,1.322092e+001
6.441559e+002,1.330831e+001
6.451201e+002,1.300458e+001
6.460844e+002,1.206121e+001
6.470486e+002,1.126154e+001
6.480128e+002,1.091252e+001
6.489771e+002,1.093298e+001
6.499413e+002,1.095539e+001
6.509055e+002,1.107819e+001
6.518698e+002,1.088560e+001
6.528340e+002,1.015148e+001
6.537982e+002,9.169080e+000
6.547625e+002,8.214783e+000
6.557267e+002,7.404986e+000
6.566909e+002,6.847192e+000
6.576552e+002,6.840393e+000
6.586194e+002,7.091443e+000
6.595836e+002,7.109772e+000
6.605479e+002,6.700482e+000
6.615121e+002,6.182776e+000
6.624763e+002,6.807208e+000
6.634406e+002,9.304132e+000
6.644048e+002,1.098984e+001
6.653690e+002,1.090323e+001
6.663333e+002,9.834814e+000
6.672975e+002,9.432940e+000
6.682617e+002,1.045208e+001
6.692260e+002,1.110664e+001
6.701902e+002,1.093857e+001
6.711544e+002,1.034584e+001
6.721187e+002,9.425903e+000
6.730829e+002,8.232617e+000
6.740471e+002,7.144495e+000
6.750114e+002,6.678155e+000
6.759756e+002,6.782458e+000
6.769398e+002,7.809662e+000
6.779041e+002,9.678741e+000
6.788683e+002,1.165687e+001
6.798325e+002,1.241423e+001
6.807968e+002,1.154157e+001
6.817610e+002,1.069821e+001
6.827252e+002,9.820056e+000
6.836895e+002,9.022247e+000
6.846537e+002,8.286908e+000
6.856179e+002,7.501874e+000
6.865822e+002,7.312421e+000
6.875464e+002,8.723059e+000
6.885106e+002,9.919220e+000
6.894749e+002,9.564692e+000
6.904391e+002,8.101428e+000
6.914034e+002,7.458484e+000
6.923676e+002,1.000580e+001
6.933318e+002,1.360496e+001
6.942961e+002,1.500086e+001
6.952603e+002,1.462107e+001
6.962245e+002,1.412245e+001
6.971888e+002,1.502864e+001
6.981530e+002,1.733911e+001
6.991172e+002,1.841147e+001
7.000815e+002,1.783866e+001
7.010457e+002,1.713142e+001
7.020099e+002,1.668002e+001
7.029742e+002,1.656833e+001
7.039384e+002,1.702587e+001
7.049026e+002,1.853208e+001
7.058669e+002,1.996864e+001
7.068311e+002,2.090776e+001
7.077953e+002,2.161774e+001
7.087596e+002,2.261823e+001
7.097238e+002,2.426362e+001
7.106880e+002,2.578536e+001
7.116523e+002,2.530328e+001
7.126165e+002,2.390037e+001
7.135807e+002,2.343654e+001
7.145450e+002,2.461319e+001
7.155092e+002,2.655208e+001
7.164734e+002,2.677483e+001
7.174377e+002,2.409733e+001
7.184019e+002,2.202475e+001
7.193661e+002,2.077327e+001
7.203304e+002,1.986694e+001
7.212946e+002,1.881572e+001
7.222589e+002,1.754605e+001
7.232231e+002,1.657805e+001
7.241873e+002,1.580413e+001
7.251516e+002,1.554453e+001
7.261158e+002,1.627352e+001
7.270800e+002,1.774887e+001
7.280443e+002,1.914280e+001
7.290085e+002,1.963246e+001
7.299727e+002,1.949789e+001
7.309370e+002,1.955387e+001
7.319012e+002,1.972830e+001
7.328654e+002,1.941829e+001
7.338297e+002,1.798787e+001
7.347939e+002,1.533442e+001
7.357581e+002,1.365646e+001
7.367224e+002,1.379633e+001
7.376866e+002,1.364511e+001
7.386508e+002,1.196095e+001
7.396151e+002,9.556994e+000
7.405793e+002,8.841840e+000
7.415435e+002,1.147726e+001
7.425078e+002,1.433041e+001
7.434720e+002,1.633975e+001
7.444362e+002,1.757634e+001
7.454005e+002,1.787028e+001
7.463647e+002,1.725693e+001
7.473289e+002,1.648536e+001
7.482932e+002,1.750879e+001
7.492574e+002,1.954766e+001
7.502216e+002,2.045570e+001
7.511859e+002,1.965854e+001
7.521501e+002,1.777904e+001
7.531143e+002,1.590831e+001
7.540786e+002,1.378735e+001
7.550428e+002,1.261813e+001
7.560070e+002,1.277784e+001
7.569713e+002,1.327241e+001
7.579355e+002,1.338817e+001
7.588997e+002,1.311716e+001
7.598640e+002,1.332711e+001
7.608282e+002,1.564164e+001
7.617924e+002,1.746421e+001
7.627567e+002,1.630204e+001
7.637209e+002,1.365506e+001
7.646851e+002,1.256709e+001
7.656494e+002,1.553027e+001
7.666136e+002,2.137510e+001
7.675778e+002,2.608342e+001
7.685421e+002,2.985005e+001
7.695063e+002,3.166268e+001
7.704705e+002,3.060413e+001
7.714348e+002,2.736976e+001
7.723990e+002,2.470098e+001
7.733632e+002,2.255625e+001
7.743275e+002,2.113036e+001
7.752917e+002,2.053106e+001
7.762559e+002,2.057445e+001
7.772202e+002,2.120810e+001
7.781844e+002,2.240690e+001
7.791486e+002,2.378010e+001
7.801129e+002,2.583893e+001
7.810771e+002,2.732990e+001
7.820413e+002,2.663964e+001
7.830056e+002,2.423688e+001
7.839698e+002,2.209806e+001
7.849340e+002,2.250476e+001
7.858983e+002,2.538523e+001
7.868625e+002,2.763502e+001
7.878267e+002,2.929082e+001
7.887910e+002,3.037931e+001
7.897552e+002,3.067239e+001
7.907194e+002,3.032025e+001
7.916837e+002,3.037131e+001
7.926479e+002,3.110964e+001
7.936121e+002,3.195944e+001
7.945764e+002,3.282693e+001
7.955406e+002,3.368745e+001
7.965048e+002,3.460112e+001
7.974691e+002,3.563741e+001
7.984333e+002,3.677824e+001
7.993975e+002,3.764731e+001
8.003618e+002,3.855654e+001
8.013260e+002,4.016162e+001
8.022902e+002,4.247435e+001
8.032545e+002,4.467315e+001
8.042187e+002,4.548424e+001
8.051829e+002,4.444545e+001
8.061472e+002,4.512695e+001
8.071114e+002,4.792837e+001
8.080756e+002,5.146343e+001
8.090399e+002,5.534100e+001
8.100041e+002,5.952618e+001
8.109683e+002,6.362984e+001
8.119326e+002,6.743204e+001
8.128968e+002,7.118901e+001
8.138610e+002,7.444146e+001
8.148253e+002,7.791286e+001
8.157895e+002,8.260367e+001
8.167537e+002,8.899490e+001
8.177180e+002,9.611873e+001
8.186822e+002,1.028519e+002
8.196464e+002,1.089211e+002
8.206107e+002,1.131445e+002
8.215749e+002,1.150596e+002
8.225391e+002,1.159551e+002
8.235034e+002,1.182683e+002
8.244676e+002,1.237774e+002
8.254318e+002,1.245619e+002
8.263961e+002,1.185922e+002
8.273603e+002,1.120168e+002
8.283245e+002,1.075289e+002
8.292888e+002,1.047779e+002
8.302530e+002,1.016822e+002
8.312172e+002,9.704926e+001
8.321815e+002,9.230314e+001
8.331457e+002,8.836522e+001
8.341099e+002,8.510915e+001
8.350742e+002,8.244450e+001
8.360384e+002,8.024133e+001
8.370026e+002,7.813867e+001
8.379669e+002,7.521204e+001
8.389311e+002,7.137968e+001
8.398953e+002,6.744353e+001
8.408596e+002,6.316720e+001
8.418238e+002,5.922823e+001
8.427880e+002,5.657798e+001
8.437523e+002,5.546756e+001
8.447165e+002,5.448168e+001
8.456807e+002,5.322139e+001
8.466450e+002,5.232214e+001
8.476092e+002,5.285128e+001
8.485734e+002,5.374358e+001
8.495377e+002,5.253261e+001
8.505019e+002,4.728910e+001
8.514661e+002,4.148964e+001
8.524304e+002,4.004208e+001
8.533946e+002,4.112482e+001
8.543588e+002,4.236150e+001
8.553231e+002,4.278053e+001
8.562873e+002,4.256295e+001
8.572515e+002,4.209962e+001
8.582158e+002,4.126627e+001
8.591800e+002,4.051927e+001
8.601442e+002,3.963123e+001
8.611085e+002,3.892096e+001
8.620727e+002,3.878212e+001
8.630369e+002,3.921284e+001
8.640012e+002,3.952630e+001
8.649654e+002,3.926122e+001
8.659296e+002,3.902390e+001
8.668939e+002,3.928370e+001
8.678581e+002,3.967127e+001
8.688223e+002,3.949792e+001
8.697866e+002,3.847338e+001
8.707508e+002,3.730181e+001
8.717150e+002,3.762275e+001
8.726793e+002,3.911282e+001
8.736435e+002,4.055749e+001
8.746077e+002,4.201432e+001
8.755720e+002,4.267807e+001
8.765362e+002,4.106858e+001
8.775004e+002,3.633595e+001
8.784647e+002,3.311546e+001
8.794289e+002,3.196774e+001
8.803931e+002,3.157659e+001
8.813574e+002,3.212673e+001
8.823216e+002,3.302349e+001
8.832858e+002,3.331536e+001
8.842501e+002,3.260672e+001
8.852143e+002,3.130964e+001
8.861785e+002,2.955151e+001
8.871428e+002,2.752258e+001
8.881070e+002,2.522518e+001
8.890712e+002,2.280292e+001
8.900355e+002,2.076591e+001
8.909997e+002,1.997377e+001
8.919639e+002,2.064882e+001
8.929282e+002,2.143896e+001
8.938924e+002,2.290881e+001
8.948566e+002,2.376979e+001
8.958209e+002,2.310918e+001
8.967851e+002,2.125719e+001
8.977493e+002,1.956744e+001
8.987136e+002,1.818259e+001
8.996778e+002,1.713661e+001
9.006420e+002,1.641951e+001
9.016063e+002,1.602630e+001
9.025705e+002,1.628331e+001
9.035347e+002,1.709598e+001
9.044990e+002,1.757370e+001
9.054632e+002,1.625881e+001
9.064274e+002,1.366135e+001
9.073917e+002,1.243840e+001
9.083559e+002,1.272471e+001
9.093201e+002,1.320378e+001
9.102844e+002,1.273265e+001
9.112486e+002,1.138541e+001
9.122128e+002,1.080320e+001
9.131771e+002,1.220727e+001
9.141413e+002,1.278326e+001
9.151055e+002,1.173868e+001
9.160698e+002,1.014044e+001
9.170340e+002,9.054029e+000
9.179982e+002,8.685376e+000
9.189625e+002,8.226770e+000
9.199267e+002,6.550855e+000
9.208909e+002,4.940961e+000
9.218552e+002,4.955328e+000
9.228194e+002,6.236792e+000
9.237836e+002,7.441797e+000
9.247479e+002,7.503039e+000
9.257121e+002,6.653302e+000
9.266763e+002,6.270355e+000
9.276406e+002,6.616760e+000
9.286048e+002,6.813611e+000
9.295690e+002,6.616870e+000
9.305333e+002,6.348718e+000
9.314975e+002,6.506280e+000
9.324617e+002,7.199042e+000
9.334260e+002,7.451623e+000
9.343902e+002,6.110443e+000
9.353545e+002,4.880884e+000
9.363187e+002,4.451300e+000
9.372830e+002,4.701623e+000
9.382472e+002,5.416095e+000
9.392114e+002,6.464081e+000
9.401757e+002,7.619714e+000
9.411399e+002,8.170221e+000
9.421041e+002,8.154669e+000
9.430684e+002,8.001160e+000
9.440326e+002,7.642505e+000
9.449968e+002,7.339850e+000
9.459611e+002,7.491076e+000
9.469253e+002,8.215338e+000
9.478895e+002,9.133606e+000
9.488538e+002,1.102632e+001
9.498180e+002,1.210132e+001
9.507822e+002,1.089161e+001
9.517465e+002,8.854846e+000
9.527107e+002,8.313782e+000
9.536749e+002,1.025547e+001
9.546392e+002,1.281285e+001
9.556034e+002,1.373378e+001
9.565676e+002,1.373489e+001
9.575319e+002,1.349893e+001
9.584961e+002,1.323506e+001
9.594603e+002,1.328093e+001
9.604246e+002,1.399155e+001
9.613888e+002,1.533690e+001
9.623530e+002,1.637532e+001
9.633173e+002,1.625022e+001
9.642815e+002,1.695862e+001
9.652457e+002,1.835641e+001
9.662100e+002,2.106165e+001
9.671742e+002,2.584889e+001
9.681384e+002,3.286304e+001
9.691027e+002,4.120610e+001
9.700669e+002,4.994669e+001
9.710311e+002,6.033373e+001
9.719954e+002,7.723930e+001
9.729596e+002,9.641647e+001
9.739238e+002,1.084091e+002
9.748881e+002,1.068378e+002
9.758523e+002,9.495135e+001
9.768165e+002,8.285869e+001
9.777808e+002,7.021188e+001
9.787450e+002,5.974204e+001
9.797092e+002,5.227080e+001
9.806735e+002,4.666233e+001
9.816377e+002,4.209737e+001
9.826019e+002,3.860405e+001
9.835662e+002,3.555783e+001
9.845304e+002,3.298964e+001
9.854946e+002,3.073945e+001
9.864589e+002,2.863824e+001
9.874231e+002,2.688043e+001
9.883873e+002,2.527363e+001
9.893516e+002,2.389636e+001
9.903158e+002,2.390559e+001
9.912800e+002,2.766257e+001
9.922443e+002,3.424295e+001
9.932085e+002,3.827764e+001
9.941727e+002,3.937540e+001
9.951370e+002,4.090976e+001
9.961012e+002,4.484769e+001
9.970654e+002,5.102930e+001
9.980297e+002,5.922778e+001
9.989939e+002,6.678688e+001
9.999581e+002,8.201335e+001
1.000922e+003,1.025553e+002
1.001887e+003,1.329131e+002
1.002851e+003,1.818997e+002
1.003815e+003,2.457942e+002
1.004779e+003,3.104616e+002
1.005744e+003,3.745076e+002
1.006708e+003,4.171596e+002
1.007672e+003,4.042517e+002
1.008636e+003,3.519215e+002
1.009600e+003,2.920030e+002
1.010565e+003,2.377828e+002
1.011529e+003,1.896859e+002
1.012493e+003,1.494035e+002
1.013457e+003,1.176827e+002
1.014422e+003,9.403375e+001
1.015386e+003,8.073946e+001
1.016350e+003,7.046358e+001
1.017314e+003,6.065465e+001
1.018279e+003,5.166029e+001
1.019243e+003,4.480457e+001
1.020207e+003,4.075851e+001
1.021171e+003,3.795297e+001
1.022135e+003,3.539190e+001
1.023100e+003,3.325953e+001
1.024064e+003,3.203617e+001
1.025028e+003,3.146215e+001
1.025992e+003,3.058110e+001
1.026957e+003,2.853220e+001
1.027921e+003,2.565752e+001
1.028885e+003,2.394141e+001
1.029849e+003,2.416491e+001
1.030814e+003,2.374816e+001
1.031778e+003,2.139145e+001
1.032742e+003,1.891484e+001
1.033706e+003,1.847437e+001
1.034671e+003,2.016462e+001
1.035635e+003,2.138829e+001
1.036599e+003,2.078569e+001
1.037563e+003,1.993888e+001
1.038527e+003,1.958379e+001
1.039492e+003,1.953296e+001
1.040456e+003,1.946012e+001
1.041420e+003,1.928366e+001
1.042384e+003,1.926667e+001
1.043349e+003,1.981256e+001
1.044313e+003,2.090987e+001
1.045277e+003,2.191627e+001
1.046241e+003,2.293187e+001
1.047206e+003,2.358526e+001
1.048170e+003,2.353019e+001
1.049134e+003,2.302952e+001
1.050098e+003,2.263054e+001
1.051063e+003,2.225454e+001
1.052027e+003,2.259019e+001
1.052991e+003,2.470593e+001
1.053955e+003,2.653800e+001
1.054919e+003,2.689496e+001
1.055884e+003,2.600674e+001
1.056848e+003,2.457200e+001
1.057812e+003,2.305996e+001
1.058776e+003,2.174755e+001
1.059741e+003,2.116721e+001
1.060705e+003,2.117442e+001
1.061669e+003,2.111186e+001
1.062633e+003,2.081594e+001
1.063598e+003,2.056218e+001
1.064562e+003,2.069476e+001
1.065526e+003,2.124615e+001
1.066490e+003,2.183269e+001
1.067454e+003,2.237896e+001
1.068419e+003,2.300989e+001
1.069383e+003,2.366666e+001
1.070347e+003,2.432411e+001
1.071311e+003,2.500965e+001
1.072276e+003,2.575097e+001
1.073240e+003,2.668489e+001
1.074204e+003,2.806804e+001
1.075168e+003,2.926787e+001
1.076133e+003,2.824262e+001
1.077097e+003,2.568860e+001
1.078061e+003,2.424180e+001
1.079025e+003,2.487123e+001
1.079990e+003,2.635223e+001
1.080954e+003,2.675010e+001
1.081918e+003,2.573846e+001
1.082882e+003,2.593428e+001
1.083846e+003,2.982714e+001
1.084811e+003,3.201778e+001
1.085775e+003,3.007391e+001
1.086739e+003,2.672558e+001
1.087703e+003,2.490328e+001
1.088668e+003,2.527248e+001
1.089632e+003,2.632459e+001
1.090596e+003,2.683004e+001
1.091560e+003,2.701944e+001
1.092525e+003,2.729163e+001
1.093489e+003,2.766253e+001
1.094453e+003,2.848572e+001
1.095417e+003,3.007389e+001
1.096381e+003,3.178366e+001
1.097346e+003,3.220835e+001
1.098310e+003,3.094804e+001
1.099274e+003,2.978726e+001
1.100238e+003,2.830493e+001
1.101203e+003,2.751557e+001
1.102167e+003,2.825908e+001
1.103131e+003,2.956846e+001
1.104095e+003,3.009435e+001
1.105060e+003,2.947758e+001
1.106024e+003,2.862722e+001
1.106988e+003,2.826940e+001
1.107952e+003,2.840690e+001
1.108917e+003,2.915668e+001
1.109881e+003,3.026821e+001
1.110845e+003,3.067031e+001
1.111809e+003,2.965301e+001
1.112773e+003,2.811672e+001
1.113738e+003,2.837703e+001
1.114702e+003,3.134144e+001
1.115666e+003,3.375275e+001
1.116630e+003,3.620704e+001
1.117595e+003,3.740874e+001
1.118559e+003,3.586043e+001
1.119523e+003,3.323721e+001
1.120487e+003,3.209742e+001
1.121452e+003,3.316450e+001
1.122416e+003,3.483974e+001
1.123380e+003,3.612250e+001
1.124344e+003,3.672145e+001
1.125308e+003,3.603963e+001
1.126273e+003,3.447256e+001
1.127237e+003,3.332124e+001
1.128201e+003,3.329419e+001
1.129165e+003,3.399520e+001
1.130130e+003,3.454331e+001
1.131094e+003,3.494753e+001
1.132058e+003,3.489487e+001
1.133022e+003,3.377779e+001
1.133987e+003,3.309086e+001
1.134951e+003,3.354008e+001
1.135915e+003,3.470305e+001
1.136879e+003,3.616309e+001
1.137844e+003,3.775550e+001
1.138808e+003,3.873848e+001
1.139772e+003,3.796866e+001
1.140736e+003,3.656358e+001
1.141700e+003,3.623852e+001
1.142665e+003,3.681327e+001
1.143629e+003,3.752676e+001
1.144593e+003,3.803971e+001
1.145557e+003,3.843142e+001
1.146522e+003,3.877006e+001
1.147486e+003,3.891409e+001
1.148450e+003,3.902164e+001
1.149414e+003,3.856417e+001
1.150379e+003,3.898043e+001
1.151343e+003,4.180958e+001
1.152307e+003,4.507749e+001
1.153271e+003,4.604843e+001
1.154235e+003,4.431639e+001
1.155200e+003,4.237883e+001
1.156164e+003,4.222389e+001
1.157128e+003,4.278358e+001
1.158092e+003,4.186376e+001
1.159057e+003,4.027752e+001
1.160021e+003,4.033253e+001
1.160985e+003,4.290775e+001
1.161949e+003,4.647375e+001
1.162914e+003,4.886916e+001
1.163878e+003,5.008134e+001
1.164842e+003,5.084653e+001
1.165806e+003,4.994880e+001
1.166771e+003,5.007806e+001
1.167735e+003,5.281737e+001
1.168699e+003,5.579628e+001
1.169663e+003,5.665572e+001
1.170627e+003,5.547327e+001
1.171592e+003,5.420345e+001
1.172556e+003,5.398412e+001
1.173520e+003,5.440240e+001
1.174484e+003,5.483016e+001
1.175449e+003,5.533889e+001
1.176413e+003,5.627366e+001
1.177377e+003,5.769166e+001
1.178341e+003,5.894598e+001
1.179306e+003,5.921727e+001
1.180270e+003,5.871163e+001
1.181234e+003,5.945983e+001
1.182198e+003,6.258294e+001
1.183162e+003,6.487437e+001
1.184127e+003,6.579673e+001
1.185091e+003,6.610903e+001
1.186055e+003,6.627916e+001
1.187019e+003,6.635368e+001
1.187984e+003,6.613341e+001
1.188948e+003,6.547491e+001
1.189912e+003,6.451524e+001
1.190876e+003,6.325140e+001
1.191841e+003,6.198540e+001
1.192805e+003,6.155847e+001
1.193769e+003,6.201619e+001
1.194733e+003,6.227079e+001
1.195698e+003,6.141611e+001
1.196662e+003,6.003738e+001
1.197626e+003,5.992986e+001
1.198590e+003,6.172756e+001
1.199554e+003,6.236343e+001
1.200519e+003,6.020701e+001
1.201483e+003,5.850305e+001
1.202447e+003,5.857445e+001
1.203411e+003,5.952340e+001
1.204376e+003,6.022073e+001
1.205340e+003,6.024220e+001
1.206304e+003,5.974779e+001
1.207268e+003,5.897216e+001
1.208233e+003,5.812930e+001
1.209197e+003,5.714192e+001
1.210161e+003,5.598574e+001
1.211125e+003,5.587007e+001
1.212089e+003,5.759354e+001
1.213054e+003,5.943335e+001
1.214018e+003,5.914278e+001
1.214982e+003,5.708450e+001
1.215946e+003,5.677197e+001
1.216911e+003,5.951450e+001
1.217875e+003,6.203617e+001
1.218839e+003,6.374733e+001
1.219803e+003,6.445331e+001
1.220768e+003,6.378881e+001
1.221732e+003,6.220192e+001
1.222696e+003,6.024297e+001
1.223660e+003,5.827163e+001
1.224625e+003,5.698904e+001
1.225589e+003,5.785874e+001
1.226553e+003,6.088546e+001
1.227517e+003,6.294439e+001
1.228481e+003,6.401443e+001
1.229446e+003,6.445184e+001
1.230410e+003,6.415243e+001
1.231374e+003,6.339082e+001
1.232338e+003,6.234581e+001
1.233303e+003,6.100323e+001
1.234267e+003,6.104304e+001
1.235231e+003,6.464996e+001
1.236195e+003,6.758952e+001
1.237160e+003,6.678792e+001
1.238124e+003,6.434737e+001
1.239088e+003,6.286129e+001
1.240052e+003,6.290294e+001
1.241016e+003,6.339617e+001
1.241981e+003,6.328420e+001
1.242945e+003,6.279816e+001
1.243909e+003,6.307887e+001
1.244873e+003,6.473794e+001
1.245838e+003,6.582420e+001
1.246802e+003,6.602953e+001
1.247766e+003,6.593370e+001
1.248730e+003,6.570302e+001
1.249695e+003,6.543709e+001
1.250659e+003,6.525529e+001
1.251623e+003,6.516759e+001
1.252587e+003,6.547974e+001
1.253552e+003,6.654385e+001
1.254516e+003,6.794070e+001
1.255480e+003,6.970831e+001
1.256444e+003,7.142218e+001
1.257408e+003,7.195644e+001
1.258373e+003,7.093346e+001
1.259337e+003,6.946582e+001
1.260301e+003,6.915900e+001
1.261265e+003,7.007277e+001
1.262230e+003,7.041144e+001
1.263194e+003,6.857534e+001
1.264158e+003,6.817222e+001
1.265122e+003,7.127638e+001
1.266087e+003,7.411975e+001
1.267051e+003,7.358180e+001
1.268015e+003,7.084190e+001
1.268979e+003,6.930412e+001
1.269943e+003,7.033937e+001
1.270908e+003,7.196289e+001
1.271872e+003,7.194489e+001
1.272836e+003,7.110496e+001
1.273800e+003,7.159896e+001
1.274765e+003,7.333723e+001
1.275729e+003,7.472565e+001
1.276693e+003,7.500999e+001
1.277657e+003,7.460182e+001
1.278622e+003,7.387254e+001
1.279586e+003,7.272284e+001
1.280550e+003,7.231044e+001
1.281514e+003,7.332979e+001
1.282479e+003,7.454659e+001
1.283443e+003,7.588601e+001
1.284407e+003,7.696542e+001
1.285371e+003,7.705330e+001
1.286335e+003,7.656557e+001
1.287300e+003,7.703475e+001
1.288264e+003,7.923579e+001
1.289228e+003,8.136005e+001
1.290192e+003,8.020699e+001
1.291157e+003,7.597482e+001
1.292121e+003,7.394578e+001
1.293085e+003,7.423267e+001
1.294049e+003,7.542415e+001
1.295014e+003,7.830473e+001
1.295978e+003,8.115550e+001
1.296942e+003,8.135681e+001
1.297906e+003,7.922656e+001
1.298870e+003,7.828111e+001
1.299835e+003,7.983376e+001
1.300799e+003,8.166547e+001
1.301763e+003,8.209145e+001
1.302727e+003,8.226308e+001
1.303692e+003,8.367903e+001
1.304656e+003,8.606714e+001
1.305620e+003,8.781560e+001
1.306584e+003,8.795241e+001
1.307549e+003,8.733955e+001
1.308513e+003,8.775863e+001
1.309477e+003,8.943748e+001
1.310441e+003,8.987168e+001
1.311406e+003,8.726668e+001
1.312370e+003,8.618340e+001
1.313334e+003,8.884029e+001
1.314298e+003,9.193959e+001
1.315263e+003,9.235996e+001
1.316227e+003,9.067529e+001
1.317191e+003,8.965974e+001
1.318155e+003,9.050600e+001
1.319120e+003,9.173607e+001
1.320084e+003,9.133085e+001
1.321048e+003,9.042289e+001
1.322012e+003,9.201955e+001
1.322976e+003,9.589724e+001
1.323941e+003,9.877551e+001
1.324905e+003,9.921305e+001
1.325869e+003,9.818187e+001
1.326833e+003,9.681570e+001
1.327798e+003,9.508301e+001
1.328762e+003,9.305997e+001
1.329726e+003,8.916589e+001
1.330690e+003,8.803746e+001
1.331655e+003,9.427694e+001
1.332619e+003,1.001202e+002
1.333583e+003,9.893842e+001
1.334547e+003,9.352777e+001
1.335511e+003,9.029619e+001
1.336476e+003,9.182693e+001
1.337440e+003,9.503043e+001
1.338404e+003,9.611357e+001
1.339368e+003,9.540318e+001
1.340333e+003,9.524239e+001
1.341297e+003,9.591426e+001
1.342261e+003,9.596792e+001
1.343225e+003,9.431116e+001
1.344190e+003,9.302842e+001
1.345154e+003,9.381167e+001
1.346118e+003,9.600907e+001
1.347082e+003,9.828080e+001
1.348047e+003,1.003825e+002
1.349011e+003,1.012457e+002
1.349975e+003,9.938762e+001
1.350939e+003,9.707174e+001
1.351903e+003,9.704374e+001
1.352868e+003,9.827989e+001
1.353832e+003,9.838792e+001
1.354796e+003,9.682118e+001
1.355760e+003,9.565318e+001
1.356725e+003,9.709560e+001
1.357689e+003,1.004055e+002
1.358653e+003,1.020706e+002
1.359617e+003,1.013635e+002
1.360582e+003,1.010830e+002
1.361546e+003,1.018905e+002
1.362510e+003,1.025402e+002
1.363474e+003,1.026480e+002
1.364438e+003,1.026048e+002
1.365403e+003,1.027701e+002
1.366367e+003,1.030481e+002
1.367331e+003,1.031068e+002
1.368295e+003,1.027622e+002
1.369260e+003,1.019784e+002
1.370224e+003,1.005180e+002
1.371188e+003,9.861629e+001
1.372152e+003,9.848262e+001
1.373117e+003,1.004953e+002
1.374081e+003,1.024904e+002
1.375045e+003,1.038239e+002
1.376009e+003,1.047573e+002
1.376974e+003,1.056857e+002
1.377938e+003,1.065968e+002
1.378902e+003,1.069079e+002
1.379866e+003,1.061392e+002
1.380830e+003,1.055564e+002
1.381795e+003,1.063501e+002
1.382759e+003,1.075395e+002
1.383723e+003,1.084374e+002
1.384687e+003,1.090667e+002
1.385652e+003,1.094430e+002
1.386616e+003,1.095738e+002
1.387580e+003,1.097831e+002
1.388544e+003,1.104064e+002
1.389509e+003,1.113854e+002
1.390473e+003,1.128972e+002
1.391437e+003,1.160992e+002
1.392401e+003,1.175423e+002
1.393365e+003,1.156751e+002
1.394330e+003,1.135369e+002
1.395294e+003,1.119733e+002
1.396258e+003,1.109522e+002
1.397222e+003,1.102604e+002
1.398187e+003,1.101181e+002
1.399151e+003,1.113703e+002
1.400115e+003,1.145417e+002
1.401079e+003,1.180888e+002
1.402044e+003,1.191319e+002
1.403008e+003,1.176198e+002
1.403972e+003,1.169493e+002
1.404936e+003,1.175637e+002
1.405901e+003,1.181448e+002
1.406865e+003,1.174191e+002
1.407829e+003,1.170613e+002
1.408793e+003,1.197147e+002
1.409757e+003,1.245557e+002
1.410722e+003,1.273833e+002
1.411686e+003,1.267500e+002
1.412650e+003,1.251794e+002
1.413614e+003,1.242427e+002
1.414579e+003,1.236572e+002
1.415543e+003,1.227889e+002
1.416507e+003,1.220523e+002
1.417471e+003,1.228814e+002
1.418436e+003,1.256184e+002
1.419400e+003,1.275981e+002
1.420364e+003,1.256375e+002
1.421328e+003,1.212223e+002
1.422292e+003,1.206999e+002
1.423257e+003,1.254690e+002
1.424221e+003,1.285053e+002
1.425185e+003,1.271580e+002
1.426149e+003,1.257444e+002
1.427114e+003,1.253912e+002
1.428078e+003,1.259899e+002
1.429042e+003,1.275910e+002
1.430006e+003,1.296984e+002
1.430971e+003,1.313270e+002
1.431935e+003,1.320274e+002
1.432899e+003,1.324610e+002
1.433863e+003,1.336542e+002
1.434828e+003,1.355947e+002
1.435792e+003,1.369276e+002
1.436756e+003,1.368190e+002
1.437720e+003,1.371540e+002
1.438684e+003,1.393036e+002
1.439649e+003,1.408878e+002
1.440613e+003,1.397544e+002
1.441577e+003,1.375242e+002
1.442541e+003,1.368820e+002
1.443506e+003,1.380980e+002
1.444470e+003,1.397739e+002
1.445434e+003,1.414009e+002
1.446398e+003,1.427614e+002
1.447363e+003,1.431066e+002
1.448327e+003,1.428271e+002
1.449291e+003,1.432453e+002
1.450255e+003,1.445307e+002
1.451219e+003,1.453863e+002
1.452184e+003,1.447531e+002
1.453148e+003,1.437969e+002
1.454112e+003,1.442480e+002
1.455076e+003,1.457966e+002
1.456041e+003,1.463878e+002
1.457005e+003,1.453248e+002
1.457969e+003,1.455037e+002
1.458933e+003,1.502595e+002
1.459898e+003,1.543176e+002
1.460862e+003,1.534254e+002
1.461826e+003,1.500034e+002
1.462790e+003,1.474556e+002
1.463755e+003,1.466991e+002
1.464719e+003,1.474902e+002
1.465683e+003,1.497608e+002
1.466647e+003,1.527399e+002
1.467611e+003,1.546302e+002
1.468576e+003,1.553163e+002
1.469540e+003,1.552528e+002
1.470504e+003,1.538536e+002
1.471468e+003,1.528039e+002
1.472433e+003,1.522748e+002
1.473397e+003,1.521361e+002
1.474361e+003,1.528600e+002
1.475325e+003,1.537188e+002
1.476290e+003,1.531718e+002
1.477254e+003,1.511589e+002
1.478218e+003,1.496875e+002
1.479182e+003,1.504495e+002
1.480146e+003,1.524676e+002
1.481111e+003,1.534211e+002
1.482075e+003,1.531417e+002
1.483039e+003,1.525811e+002
1.484003e+003,1.510898e+002
1.484968e+003,1.503623e+002
1.485932e+003,1.516148e+002
1.486896e+003,1.532571e+002
1.487860e+003,1.536576e+002
1.488825e+003,1.532126e+002
1.489789e+003,1.534231e+002
1.490753e+003,1.546667e+002
1.491717e+003,1.557524e+002
1.492682e+003,1.559612e+002
1.493646e+003,1.553296e+002
1.494610e+003,1.531715e+002
1.495574e+003,1.501989e+002
1.496538e+003,1.491269e+002
1.497503e+003,1.505771e+002
1.498467e+003,1.516006e+002
1.499431e+003,1.492608e+002
1.500395e+003,1.467198e+002
1.501360e+003,1.490914e+002
1.502324e+003,1.552379e+002
1.503288e+003,1.590955e+002
1.504252e+003,1.593937e+002
1.505217e+003,1.582762e+002
1.506181e+003,1.559533e+002
1.507145e+003,1.536167e+002
1.508109e+003,1.521763e+002
1.509073e+003,1.514057e+002
1.510038e+003,1.509455e+002
1.511002e+003,1.507158e+002
1.511966e+003,1.508337e+002
1.512930e+003,1.515022e+002
1.513895e+003,1.522725e+002
1.514859e+003,1.518504e+002
1.515823e+003,1.501472e+002
1.516787e+003,1.503876e+002
1.517752e+003,1.542144e+002
1.518716e+003,1.564752e+002
1.519680e+003,1.540561e+002
1.520644e+003,1.515539e+002
1.521609e+003,1.513385e+002
1.522573e+003,1.519717e+002
1.523537e+003,1.519171e+002
1.524501e+003,1.509893e+002
1.525465e+003,1.493459e+002
1.526430e+003,1.470669e+002
1.527394e+003,1.450155e+002
1.528358e+003,1.447606e+002
1.529322e+003,1.462017e+002
1.530287e+003,1.468627e+002
1.531251e+003,1.465907e+002
1.532215e+003,1.460125e+002
1.533179e+003,1.440839e+002
1.534144e+003,1.430549e+002
1.535108e+003,1.453409e+002
1.536072e+003,1.477546e+002
1.537036e+003,1.460003e+002
1.538000e+003,1.412865e+002
1.538965e+003,1.385515e+002
1.539929e+003,1.398108e+002
1.540893e+003,1.418191e+002
1.541857e+003,1.409154e+002
1.542822e+003,1.379808e+002
1.543786e+003,1.361350e+002
1.544750e+003,1.353258e+002
1.545714e+003,1.356505e+002
1.546679e+003,1.384533e+002
1.547643e+003,1.403865e+002
1.548607e+003,1.403124e+002
1.549571e+003,1.391786e+002
1.550536e+003,1.370622e+002
1.551500e+003,1.345922e+002
1.552464e+003,1.335050e+002
1.553428e+003,1.343405e+002
1.554392e+003,1.356038e+002
1.555357e+003,1.361342e+002
1.556321e+003,1.357875e+002
1.557285e+003,1.341962e+002
1.558249e+003,1.315212e+002
1.559214e+003,1.293519e+002
1.560178e+003,1.276005e+002
1.561142e+003,1.267854e+002
1.562106e+003,1.277256e+002
1.563071e+003,1.287608e+002
1.564035e+003,1.285674e+002
1.564999e+003,1.275690e+002
1.565963e+003,1.263299e+002
1.566927e+003,1.249878e+002
1.567892e+003,1.247026e+002
1.568856e+003,1.264578e+002
1.569820e+003,1.282302e+002
1.570784e+003,1.278004e+002
1.571749e+003,1.255551e+002
1.572713e+003,1.218980e+002
1.573677e+003,1.170470e+002
1.574641e+003,1.144088e+002
1.575606e+003,1.159039e+002
1.576570e+003,1.179088e+002
1.577534e+003,1.177031e+002
1.578498e+003,1.161423e+002
1.579463e+003,1.148096e+002
1.580427e+003,1.136787e+002
1.581391e+003,1.114857e+002
1.582355e+003,1.073389e+002
1.583319e+003,1.044321e+002
1.584284e+003,1.060426e+002
1.585248e+003,1.090598e+002
1.586212e+003,1.094102e+002
1.587176e+003,1.076817e+002
1.588141e+003,1.056199e+002
1.589105e+003,1.036782e+002
1.590069e+003,1.028351e+002
1.591033e+003,1.044570e+002
1.591998e+003,1.064220e+002
1.592962e+003,1.051374e+002
1.593926e+003,1.013048e+002
1.594890e+003,9.906467e+001
1.595854e+003,9.915672e+001
1.596819e+003,9.913576e+001
1.597783e+003,9.805508e+001
1.598747e+003,9.645197e+001
1.599711e+003,9.403316e+001
1.600676e+003,9.177805e+001
1.601640e+003,9.157484e+001
1.602604e+003,9.294807e+001
1.603568e+003,9.304390e+001
1.604533e+003,9.060360e+001
1.605497e+003,8.785919e+001
1.606461e+003,8.740299e+001
1.607425e+003,8.820174e+001
1.608390e+003,8.714763e+001
1.609354e+003,8.426083e+001
1.610318e+003,8.221291e+001
1.611282e+003,8.157018e+001
1.612246e+003,8.085636e+001
1.613211e+003,7.923141e+001
1.614175e+003,7.748055e+001
1.615139e+003,7.604578e+001
1.616103e+003,7.503636e+001
1.617068e+003,7.459628e+001
1.618032e+003,7.468343e+001
1.618996e+003,7.519346e+001
1.619960e+003,7.620003e+001
1.620925e+003,7.647379e+001
1.621889e+003,7.355430e+001
1.622853e+003,6.827914e+001
1.623817e+003,6.585155e+001
1.624781e+003,6.684688e+001
1.625746e+003,6.774451e+001
1.626710e+003,6.808156e+001
1.627674e+003,6.761913e+001
1.628638e+003,6.563367e+001
1.629603e+003,6.322889e+001
1.630567e+003,6.102240e+001
1.631531e+003,5.931393e+001
1.632495e+003,5.875181e+001
1.633460e+003,5.937107e+001
1.634424e+003,6.000973e+001
1.635388e+003,5.984780e+001
1.636352e+003,5.895565e+001
1.637317e+003,5.714948e+001
1.638281e+003,5.453353e+001
1.639245e+003,5.313469e+001
1.640209e+003,5.337479e+001
1.641173e+003,5.329424e+001
1.642138e+003,5.251494e+001
1.643102e+003,5.128477e+001
1.644066e+003,4.926220e+001
1.645030e+003,4.722784e+001
1.645995e+003,4.591141e+001
1.646959e+003,4.523682e+001
1.647923e+003,4.480610e+001
1.648887e+003,4.450903e+001
1.649852e+003,4.464400e+001
1.650816e+003,4.564439e+001
1.651780e+003,4.681130e+001
1.652744e+003,4.652493e+001
1.653708e+003,4.483685e+001
1.654673e+003,4.350386e+001
1.655637e+003,4.283470e+001
1.656601e+003,4.166360e+001
1.657565e+003,3.892026e+001
1.658530e+003,3.665268e+001
1.659494e+003,3.613957e+001
1.660458e+003,3.647241e+001
1.661422e+003,3.707620e+001
1.662387e+003,3.760817e+001
1.663351e+003,3.730872e+001
1.664315e+003,3.597020e+001
1.665279e+003,3.472221e+001
1.666244e+003,3.473521e+001
1.667208e+003,3.518383e+001
1.668172e+003,3.413010e+001
1.669136e+003,3.167031e+001
1.670100e+003,2.965087e+001
1.671065e+003,2.815808e+001
1.672029e+003,2.731974e+001
1.672993e+003,2.752964e+001
1.673957e+003,2.806152e+001
1.674922e+003,2.862194e+001
1.675886e+003,2.902570e+001
1.676850e+003,2.896863e+001
1.677814e+003,2.857814e+001
1.678779e+003,2.844483e+001
1.679743e+003,2.876628e+001
1.680707e+003,2.862979e+001
1.681671e+003,2.705516e+001
1.682635e+003,2.485260e+001
1.683600e+003,2.335082e+001
1.684564e+003,2.254116e+001
1.685528e+003,2.228638e+001
1.686492e+003,2.261856e+001
1.687457e+003,2.258931e+001
1.688421e+003,2.173962e+001
1.689385e+003,2.082810e+001
1.690349e+003,2.028294e+001
1.691314e+003,2.018076e+001
1.692278e+003,2.102586e+001
1.693242e+003,2.235130e+001
1.694206e+003,2.244138e+001
1.695171e+003,2.079859e+001
1.696135e+003,1.897240e+001
1.697099e+003,1.766105e+001
1.698063e+003,1.694874e+001
1.699027e+003,1.727459e+001
1.699992e+003,1.826826e+001
1.700956e+003,1.873843e+001
1.701920e+003,1.854631e+001
1.702884e+003,1.808767e+001
1.703849e+003,1.750129e+001
1.704813e+003,1.657048e+001
1.705777e+003,1.467571e+001
1.706741e+003,1.281947e+001
1.707706e+003,1.302174e+001
1.708670e+003,1.472415e+001
1.709634e+003,1.568637e+001
1.710598e+003,1.554415e+001
1.711563e+003,1.518921e+001
1.712527e+003,1.503290e+001
1.713491e+003,1.473718e+001
1.714455e+003,1.396375e+001
1.715419e+003,1.292559e+001
1.716384e+003,1.170030e+001
1.717348e+003,1.049090e+001
1.718312e+003,1.043463e+001
1.719276e+003,1.188119e+001
1.720241e+003,1.283357e+001
1.721205e+003,1.178575e+001
1.722169e+003,9.748883e+000
1.723133e+003,8.202664e+000
1.724098e+003,7.189780e+000
1.725062e+003,6.579801e+000
1.726026e+003,6.215472e+000
1.726990e+003,6.619354e+000
1.727954e+003,8.878088e+000
1.728919e+003,1.059850e+001
1.729883e+003,1.038794e+001
1.730847e+003,9.424505e+000
1.731811e+003,8.860321e+000
1.732776e+003,8.543063e+000
1.733740e+003,7.684024e+000
1.734704e+003,6.295068e+000
1.735668e+003,5.550488e+000
1.736633e+003,6.117889e+000
1.737597e+003,6.832297e+000
1.738561e+003,6.089725e+000
1.739525e+003,4.428595e+000
1.740490e+003,4.366187e+000
1.741454e+003,6.718448e+000
1.742418e+003,7.483856e+000
1.743382e+003,5.118378e+000
1.744346e+003,3.563885e+000
1.745311e+003,4.081296e+000
1.746275e+003,4.843936e+000
1.747239e+003,4.753043e+000
1.748203e+003,4.341562e+000
1.749168e+003,4.328864e+000
1.750132e+003,4.722055e+000
1.751096e+003,5.135943e+000
1.752060e+003,5.417239e+000
1.753025e+003,5.855700e+000
1.753989e+003,6.772620e+000
1.754953e+003,7.673184e+000
1.755917e+003,7.357834e+000
1.756881e+003,5.804025e+000
1.757846e+003,3.965814e+000
1.758810e+003,1.456384e+000
1.759774e+003,-1.249664e-001
1.760738e+003,-3.614319e-001
1.761703e+003,3.479004e-002
1.762667e+003,1.642322e+000
1.763631e+003,2.982422e+000
1.764595e+003,2.484140e+000
1.765560e+003,1.079190e+000
1.766524e+003,5.586609e-001
1.767488e+003,1.088474e+000
1.768452e+003,1.444623e+000
1.769417e+003,9.648163e-001
1.770381e+003,5.601898e-001
1.771345e+003,1.579755e+000
1.772309e+003,3.247699e+000
1.773273e+003,3.522913e+000
1.774238e+003,2.494800e+000
1.775202e+003,1.325992e+000
1.776166e+003,9.253235e-002
1.777130e+003,-4.736755e-001
1.778095e+003,2.084778e-001
1.779059e+003,1.036023e+000
1.780023e+003,7.600708e-001
1.780987e+003,2.369263e-001
1.781952e+003,1.333981e+000
1.782916e+003,3.520633e+000
1.783880e+003,4.032519e+000
1.784844e+003,2.158426e+000
1.785808e+003,2.894531e-001
1.786773e+003,-8.658081e-001
1.787737e+003,-1.369739e+000
1.788701e+003,-9.162811e-001
1.789665e+003,-9.654541e-002
1.790630e+003,3.160706e-001
1.791594e+003,2.986633e-001
1.792558e+003,1.032105e-002
1.793522e+003,-4.836090e-001
1.794487e+003,-1.118747e+000
1.795451e+003,-1.883078e+000
1.796415e+003,-2.025644e+000
1.797379e+003,-3.265961e-001
1.798344e+003,2.546939e+000
1.799308e+003,3.356467e+000
1.800272e+003,1.282871e+000
1.801236e+003,1.828003e-001
1.802201e+003,9.794617e-001
1.803165e+003,1.347479e+000
1.804129e+003,4.765655e-001
1.805093e+003,-3.354523e-001
1.806057e+003,-4.486481e-001
1.807022e+003,-1.135040e-001
1.807986e+003,5.251740e-001
1.808950e+003,1.285736e+000
1.809914e+003,2.068008e+000
1.810879e+003,2.699884e+000
1.811843e+003,2.518704e+000
1.812807e+003,9.927307e-001
1.813771e+003,-9.045075e-001
1.814736e+003,-1.631131e+000
1.815700e+003,-1.305563e+000
1.816664e+003,-4.936951e-001
1.817628e+003,9.322693e-001
1.818593e+003,1.388815e+000
1.819557e+003,4.181488e-001
1.820521e+003,-5.894775e-001
1.821485e+003,-1.419522e+000
1.822449e+003,-1.793677e+000
1.823414e+003,-1.196359e+000
1.824378e+003,-3.163177e-001
1.825342e+003,-6.628418e-002
1.826306e+003,-2.772552e-001
1.827271e+003,-1.318695e-001
1.828235e+003,5.826019e-001
1.829199e+003,1.197418e+000
1.830163e+003,1.640588e+000
1.831128e+003,1.558496e+000
1.832092e+003,-1.352570e-001
1.833056e+003,-2.079062e+000
1.834020e+003,-1.539508e+000
1.834984e+003,6.600464e-001
1.835949e+003,1.106287e+000
1.836913e+003,-7.022675e-001
1.837877e+003,-1.987946e+000
1.838841e+003,-1.246997e+000
1.839806e+003,9.011840e-003
1.840770e+003,1.148499e-001
1.841734e+003,-6.368683e-001
1.842698e+003,-1.428796e+000
1.843663e+003,-2.369650e+000
1.844627e+003,-1.979617e+000
1.845591e+003,1.138672e+000
1.846555e+003,3.351199e+000
1.847520e+003,4.309814e+000
1.848484e+003,4.597110e+000
1.849448e+003,4.324319e+000
1.850412e+003,3.674475e+000
1.851376e+003,2.249411e+000
1.852341e+003,7.803314e-001
1.853305e+003,6.067718e-001
1.854269e+003,1.608371e+000
1.855233e+003,2.291458e+000
1.856198e+003,2.007428e+000
1.857162e+003,1.897977e+000
1.858126e+003,3.297928e+000
1.859090e+003,5.232816e+000
1.860055e+003,5.727005e+000
1.861019e+003,4.865420e+000
1.861983e+003,2.948596e+000
1.862947e+003,-6.848450e-002
1.863911e+003,-1.001993e+000
1.864876e+003,1.442856e+000
1.865840e+003,3.716428e+000
1.866804e+003,3.811948e+000
1.867768e+003,2.885681e+000
1.868733e+003,1.592374e+000
1.869697e+003,5.126251e-001
1.870661e+003,1.970947e+000
1.871625e+003,5.992746e+000
1.872590e+003,7.638602e+000
1.873554e+003,4.598264e+000
1.874518e+003,2.864484e+000
1.875482e+003,5.524176e+000
1.876447e+003,8.258041e+000
1.877411e+003,8.439127e+000
1.878375e+003,7.351850e+000
1.879339e+003,6.095096e+000
1.880303e+003,4.981232e+000
1.881268e+003,4.340045e+000
1.882232e+003,4.143442e+000
1.883196e+003,3.913406e+000
1.884160e+003,3.407861e+000
1.885125e+003,2.867779e+000
1.886089e+003,2.475082e+000
1.887053e+003,2.443951e+000
1.888017e+003,3.634540e+000
1.888982e+003,6.081589e+000
1.889946e+003,8.061850e+000
1.890910e+003,9.671295e+000
1.891874e+003,1.029381e+001
1.892839e+003,9.420474e+000
1.893803e+003,8.361734e+000
1.894767e+003,7.678458e+000
1.895731e+003,7.158227e+000
1.896695e+003,6.378034e+000
1.897660e+003,5.702646e+000
1.898624e+003,6.185452e+000
1.899588e+003,7.572238e+000
1.900552e+003,7.435132e+000
1.901517e+003,4.660230e+000
1.902481e+003,2.732416e+000
1.903445e+003,3.513196e+000
1.904409e+003,5.055380e+000
1.905374e+003,6.779260e+000
1.906338e+003,8.049616e+000
1.907302e+003,7.601916e+000
1.908266e+003,6.225946e+000
1.909230e+003,5.913348e+000
1.910195e+003,6.676813e+000
1.911159e+003,6.489548e+000
1.912123e+003,4.626565e+000
1.913087e+003,3.391022e+000
1.914052e+003,5.022507e+000
1.915016e+003,7.898721e+000
1.915980e+003,8.672766e+000
1.916944e+003,7.493472e+000
1.917909e+003,6.153647e+000
1.918873e+003,4.524335e+000
1.919837e+003,3.632596e+000
1.920801e+003,3.621820e+000
1.921766e+003,4.223645e+000
1.922730e+003,5.886169e+000
1.923694e+003,7.278699e+000
1.924658e+003,6.985406e+000
1.925622e+003,6.277258e+000
1.926587e+003,7.100736e+000
1.927551e+003,8.835355e+000
1.928515e+003,8.955420e+000
1.929479e+003,7.011771e+000
1.930444e+003,5.780212e+000
1.931408e+003,6.550470e+000
1.932372e+003,7.342868e+000
1.933336e+003,7.210754e+000
1.934301e+003,6.787796e+000
1.935265e+003,6.257138e+000
1.936229e+003,6.022265e+000
1.937193e+003,7.037061e+000
1.938157e+003,8.670496e+000
1.939122e+003,9.045166e+000
1.940086e+003,7.904852e+000
1.941050e+003,6.843753e+000
1.942014e+003,6.809586e+000
1.942979e+003,7.172662e+000
1.943943e+003,7.183957e+000
1.944907e+003,7.033051e+000
1.945871e+003,7.253717e+000
1.946836e+003,7.852835e+000
1.947800e+003,8.396701e+000
1.948764e+003,8.821960e+000
1.949728e+003,9.272143e+000
1.950693e+003,9.811548e+000
1.951657e+003,1.018358e+001
1.952621e+003,1.030812e+001
1.953585e+003,1.026694e+001
1.954549e+003,1.007183e+001
1.955514e+003,9.763623e+000
1.956478e+003,9.431125e+000
1.957442e+003,9.073855e+000
1.958406e+003,8.623606e+000
1.959371e+003,7.816751e+000
1.960335e+003,7.604340e+000
1.961299e+003,8.747766e+000
1.962263e+003,9.661856e+000
1.963228e+003,9.508380e+000
1.964192e+003,9.236163e+000
1.965156e+003,9.686963e+000
1.966120e+003,1.028552e+001
1.967084e+003,1.014776e+001
1.968049e+003,9.549069e+000
1.969013e+003,9.279175e+000
1.969977e+003,9.534640e+000
1.970941e+003,1.023026e+001
1.971906e+003,1.140184e+001
1.972870e+003,1.208130e+001
1.973834e+003,1.093867e+001
1.974798e+003,8.960342e+000
1.975763e+003,7.571012e+000
1.976727e+003,6.773761e+000
1.977691e+003,6.731936e+000
1.978655e+003,7.382394e+000
1.979620e+003,8.565152e+000
1.980584e+003,1.021437e+001
1.981548e+003,1.107071e+001
1.982512e+003,1.038678e+001
1.983476e+003,9.406766e+000
1.984441e+003,9.436404e+000
1.985405e+003,1.011514e+001
1.986369e+003,1.063157e+001
1.987333e+003,1.101449e+001
1.988298e+003,1.110953e+001
1.989262e+003,1.075966e+001
1.990226e+003,1.037243e+001
1.991190e+003,9.700140e+000
1.992155e+003,9.535797e+000
1.993119e+003,1.081263e+001
1.994083e+003,1.177037e+001
1.995047e+003,1.084229e+001
1.996011e+003,9.640180e+000
1.996976e+003,1.021141e+001
1.997940e+003,1.176114e+001
1.998904e+003,1.222992e+001
1.999868e+003,1.145720e+001
2.000833e+003,1.061833e+001
2.001797e+003,9.755386e+000
2.002761e+003,9.445636e+000
2.003725e+003,1.010053e+001
2.004690e+003,1.117527e+001
2.005654e+003,1.245291e+001
2.006618e+003,1.385140e+001
2.007582e+003,1.605843e+001
2.008547e+003,1.794127e+001
2.009511e+003,1.707686e+001
2.010475e+003,1.406396e+001
2.011439e+003,1.179001e+001
2.012403e+003,1.129344e+001
2.013368e+003,1.163606e+001
2.014332e+003,1.220909e+001
2.015296e+003,1.281165e+001
2.016260e+003,1.327069e+001
2.017225e+003,1.351035e+001
2.018189e+003,1.301429e+001
2.019153e+003,1.211276e+001
2.020117e+003,1.239269e+001
2.021082e+003,1.382149e+001
2.022046e+003,1.501236e+001
2.023010e+003,1.562095e+001
2.023974e+003,1.519810e+001
2.024938e+003,1.335898e+001
2.025903e+003,1.173576e+001
2.026867e+003,1.216721e+001
2.027831e+003,1.355367e+001
2.028795e+003,1.321628e+001
2.029760e+003,1.129109e+001
2.030724e+003,1.061465e+001
2.031688e+003,1.157582e+001
2.032652e+003,1.214295e+001
2.033617e+003,1.233527e+001
2.034581e+003,1.190419e+001
2.035545e+003,9.977124e+000
2.036509e+003,8.829336e+000
2.037474e+003,1.031832e+001
2.038438e+003,1.244426e+001
2.039402e+003,1.310114e+001
2.040366e+003,1.289556e+001
2.041330e+003,1.336492e+001
2.042295e+003,1.450944e+001
2.043259e+003,1.440946e+001
2.044223e+003,1.192969e+001
2.045187e+003,1.060242e+001
2.046152e+003,1.208638e+001
2.047116e+003,1.344000e+001
2.048080e+003,1.348229e+001
2.049044e+003,1.303700e+001
2.050009e+003,1.266553e+001
2.050973e+003,1.226276e+001
2.051937e+003,1.155980e+001
2.052901e+003,1.070221e+001
2.053865e+003,9.851443e+000
2.054830e+003,9.138361e+000
2.055794e+003,9.181686e+000
2.056758e+003,1.036429e+001
2.057722e+003,1.128690e+001
2.058687e+003,1.038160e+001
2.059651e+003,9.438501e+000
2.060615e+003,1.068218e+001
2.061579e+003,1.249206e+001
2.062544e+003,1.258639e+001
2.063508e+003,1.161800e+001
2.064472e+003,1.106569e+001
2.065436e+003,1.108640e+001
2.066401e+003,1.134477e+001
2.067365e+003,1.162709e+001
2.068329e+003,1.156772e+001
2.069293e+003,1.095510e+001
2.070258e+003,1.015527e+001
2.071222e+003,9.449414e+000
2.072186e+003,9.239224e+000
2.073150e+003,1.101616e+001
2.074115e+003,1.401079e+001
2.075079e+003,1.461998e+001
2.076043e+003,1.298958e+001
2.077007e+003,1.116357e+001
2.077971e+003,9.576221e+000
2.078936e+003,9.781088e+000
2.079900e+003,1.238467e+001
2.080864e+003,1.428292e+001
2.081828e+003,1.316711e+001
2.082792e+003,1.114460e+001
2.083757e+003,1.116879e+001
2.084721e+003,1.264256e+001
2.085685e+003,1.354976e+001
2.086649e+003,1.390001e+001
2.087614e+003,1.384288e+001
2.088578e+003,1.315720e+001
2.089542e+003,1.328767e+001
2.090506e+003,1.477507e+001
2.091471e+003,1.557244e+001
2.092435e+003,1.475264e+001
2.093399e+003,1.383660e+001
2.094363e+003,1.399904e+001
2.095328e+003,1.429523e+001
2.096292e+003,1.320681e+001
2.097256e+003,1.132705e+001
2.098220e+003,1.092797e+001
2.099185e+003,1.222836e+001
2.100149e+003,1.329718e+001
2.101113e+003,1.415593e+001
2.102077e+003,1.464259e+001
2.103042e+003,1.460220e+001
2.104006e+003,1.439280e+001
2.104970e+003,1.365548e+001
2.105934e+003,1.331847e+001
2.106898e+003,1.457393e+001
2.107863e+003,1.584657e+001
2.108827e+003,1.535236e+001
2.109791e+003,1.374144e+001
2.110755e+003,1.207662e+001
2.111719e+003,1.053458e+001
2.112684e+003,1.074960e+001
2.113648e+003,1.393919e+001
2.114612e+003,1.608317e+001
2.115576e+003,1.576480e+001
2.116541e+003,1.501082e+001
2.117505e+003,1.403179e+001
2.118469e+003,1.347666e+001
2.119433e+003,1.418391e+001
2.120398e+003,1.514727e+001
2.121362e+003,1.532526e+001
2.122326e+003,1.488531e+001
2.123290e+003,1.405242e+001
2.124255e+003,1.316235e+001
2.125219e+003,1.342817e+001
2.126183e+003,1.530432e+001
2.127147e+003,1.655024e+001
2.128112e+003,1.568908e+001
2.129076e+003,1.473047e+001
2.130040e+003,1.468834e+001
2.131004e+003,1.501023e+001
2.131969e+003,1.557960e+001
2.132933e+003,1.594494e+001
2.133897e+003,1.545858e+001
2.134861e+003,1.459004e+001
2.135825e+003,1.403662e+001
2.136790e+003,1.394131e+001
2.137754e+003,1.437520e+001
2.138718e+003,1.530387e+001
2.139682e+003,1.618044e+001
2.140646e+003,1.680151e+001
2.141611e+003,1.690856e+001
2.142575e+003,1.577175e+001
2.143539e+003,1.448674e+001
2.144503e+003,1.436602e+001
2.145468e+003,1.472944e+001
2.146432e+003,1.452974e+001
2.147396e+003,1.403189e+001
2.148360e+003,1.401830e+001
2.149325e+003,1.440289e+001
2.150289e+003,1.453017e+001
2.151253e+003,1.420787e+001
2.152217e+003,1.361826e+001
2.153182e+003,1.287062e+001
2.154146e+003,1.271738e+001
2.155110e+003,1.421090e+001
2.156074e+003,1.613864e+001
2.157039e+003,1.731241e+001
2.158003e+003,1.751668e+001
2.158967e+003,1.547128e+001
2.159931e+003,1.270964e+001
2.160896e+003,1.301670e+001
2.161860e+003,1.574710e+001
2.162824e+003,1.735823e+001
2.163788e+003,1.710288e+001
2.164752e+003,1.670080e+001
2.165717e+003,1.702717e+001
2.166681e+003,1.755021e+001
2.167645e+003,1.788294e+001
2.168609e+003,1.782234e+001
2.169573e+003,1.673707e+001
2.170538e+003,1.535277e+001
2.171502e+003,1.518842e+001
2.172466e+003,1.570861e+001
2.173430e+003,1.567654e+001
2.174395e+003,1.518246e+001
2.175359e+003,1.494507e+001
2.176323e+003,1.499922e+001
2.177287e+003,1.463475e+001
2.178252e+003,1.364907e+001
2.179216e+003,1.286445e+001
2.180180e+003,1.289618e+001
2.181144e+003,1.336037e+001
2.182109e+003,1.380054e+001
2.183073e+003,1.422798e+001
2.184037e+003,1.486689e+001
2.185001e+003,1.546351e+001
2.185966e+003,1.531913e+001
2.186930e+003,1.463376e+001
2.187894e+003,1.380487e+001
2.188858e+003,1.305330e+001
2.189823e+003,1.294243e+001
2.190787e+003,1.355390e+001
2.191751e+003,1.474633e+001
2.192715e+003,1.639286e+001
2.193679e+003,1.714766e+001
2.194644e+003,1.552191e+001
2.195608e+003,1.324504e+001
2.196572e+003,1.330523e+001
2.197536e+003,1.473772e+001
2.198500e+003,1.545066e+001
2.199465e+003,1.548486e+001
2.200429e+003,1.446749e+001
2.201393e+003,1.288062e+001
2.202357e+003,1.289977e+001
2.203322e+003,1.449305e+001
2.204286e+003,1.489608e+001
2.205250e+003,1.327291e+001
2.206214e+003,1.224999e+001
2.207179e+003,1.362695e+001
2.208143e+003,1.523342e+001
2.209107e+003,1.428632e+001
2.210071e+003,1.238030e+001
2.211036e+003,1.243871e+001
2.212000e+003,1.379001e+001
2.212964e+003,1.499344e+001
2.213928e+003,1.597885e+001
2.214893e+003,1.678275e+001
2.215857e+003,1.748868e+001
2.216821e+003,1.840972e+001
2.217785e+003,1.944523e+001
2.218750e+003,1.965056e+001
2.219714e+003,1.870294e+001
2.220678e+003,1.792990e+001
2.221642e+003,1.841555e+001
2.222606e+003,1.969601e+001
2.223571e+003,2.157142e+001
2.224535e+003,2.335913e+001
2.225499e+003,2.363580e+001
2.226463e+003,2.304235e+001
2.227427e+003,2.252069e+001
2.228392e+003,2.243564e+001
2.229356e+003,2.388273e+001
2.230320e+003,2.640881e+001
2.231284e+003,2.786413e+001
2.232249e+003,2.784425e+001
2.233213e+003,2.807414e+001
2.234177e+003,2.945616e+001
2.235141e+003,3.116920e+001
2.236106e+003,3.246020e+001
2.237070e+003,3.388459e+001
2.238034e+003,3.611371e+001
2.238998e+003,3.879387e+001
2.239963e+003,4.199702e+001
2.240927e+003,4.501879e+001
2.241891e+003,4.651326e+001
2.242855e+003,4.695351e+001
2.243820e+003,4.703970e+001
2.244784e+003,4.736037e+001
2.245748e+003,4.921347e+001
2.246712e+003,5.269812e+001
2.247677e+003,5.611624e+001
2.248641e+003,5.863315e+001
2.249605e+003,6.049681e+001
2.250569e+003,6.154885e+001
2.251533e+003,6.247536e+001
2.252498e+003,6.425713e+001
2.253462e+003,6.584316e+001
2.254426e+003,6.598899e+001
2.255390e+003,6.538971e+001
2.256354e+003,6.533772e+001
2.257319e+003,6.512843e+001
2.258283e+003,6.303157e+001
2.259247e+003,5.938906e+001
2.260211e+003,5.605521e+001
2.261176e+003,5.349027e+001
2.262140e+003,5.071091e+001
2.263104e+003,4.720690e+001
2.264068e+003,4.356075e+001
2.265033e+003,3.933353e+001
2.265997e+003,3.610325e+001
2.266961e+003,3.545161e+001
2.267925e+003,3.541860e+001
2.268890e+003,3.531955e+001
2.269854e+003,3.425904e+001
2.270818e+003,3.025892e+001
2.271782e+003,2.539553e+001
2.272747e+003,2.355339e+001
2.273711e+003,2.422396e+001
2.274675e+003,2.368079e+001
2.275639e+003,2.118172e+001
2.276604e+003,1.959410e+001
2.277568e+003,2.053462e+001
2.278532e+003,2.057142e+001
2.279496e+003,1.771979e+001
2.280460e+003,1.530005e+001
2.281425e+003,1.485270e+001
2.282389e+003,1.475994e+001
2.283353e+003,1.436064e+001
2.284317e+003,1.371391e+001
2.285281e+003,1.264421e+001
2.286246e+003,1.150511e+001
2.287210e+003,1.087415e+001
2.288174e+003,1.071274e+001
2.289138e+003,1.082571e+001
2.290103e+003,1.135299e+001
2.291067e+003,1.137816e+001
2.292031e+003,1.065821e+001
2.292995e+003,9.916550e+000
2.293960e+003,8.883258e+000
2.294924e+003,8.341791e+000
2.295888e+003,8.928470e+000
2.296852e+003,9.170239e+000
2.297817e+003,7.988611e+000
2.298781e+003,6.895554e+000
2.299745e+003,7.502478e+000
2.300709e+003,8.697391e+000
2.301674e+003,8.468323e+000
2.302638e+003,7.116254e+000
2.303602e+003,6.213605e+000
2.304566e+003,5.725934e+000
2.305531e+003,5.996305e+000
2.306495e+003,7.292926e+000
2.307459e+003,7.464258e+000
2.308423e+003,6.110284e+000
2.309387e+003,5.315338e+000
2.310352e+003,5.622205e+000
2.311316e+003,6.511221e+000
2.312280e+003,7.821344e+000
2.313244e+003,8.510867e+000
2.314208e+003,7.612292e+000
2.315173e+003,6.269675e+000
2.316137e+003,6.333740e+000
2.317101e+003,6.902377e+000
2.318065e+003,4.946143e+000
2.319030e+003,1.493878e+000
2.319994e+003,9.655517e-001
2.320958e+003,2.683023e+000
2.321922e+003,3.814072e+000
2.322887e+003,4.159579e+000
2.323851e+003,4.393884e+000
2.324815e+003,4.672739e+000
2.325779e+003,5.042825e+000
2.326744e+003,5.422513e+000
2.327708e+003,4.917630e+000
2.328672e+003,2.901038e+000
2.329636e+003,1.238882e+000
2.330601e+003,2.118030e+000
2.331565e+003,3.533936e+000
2.332529e+003,3.342178e+000
2.333493e+003,2.330701e+000
2.334458e+003,9.820434e-001
2.335422e+003,-2.448975e-001
2.336386e+003,-9.271027e-001
2.337350e+003,-9.533356e-001
2.338314e+003,3.857605e-001
2.339279e+003,2.264008e+000
2.340243e+003,2.081033e+000
2.341207e+003,-3.579926e-001
2.342171e+003,-1.928143e+000
2.343135e+003,-1.549298e+000
2.344100e+003,-6.629394e-001
2.345064e+003,9.665680e-001
2.346028e+003,1.814798e+000
2.346992e+003,7.891846e-001
2.347957e+003,-3.181122e-001
2.348921e+003,-8.498413e-001
2.349885e+003,-9.395782e-001
2.350849e+003,-3.239227e-001
2.351814e+003,3.146393e-001
2.352778e+003,1.797974e-001
2.353742e+003,-5.446717e-001
2.354706e+003,-1.454498e+000
2.355671e+003,-2.494663e+000
2.356635e+003,-3.281754e+000
2.357599e+003,-3.974606e+000
2.358563e+003,-3.751977e+000
2.359528e+003,-2.259647e+000
2.360492e+003,-9.592346e-001
2.361456e+003,2.655670e-001
2.362420e+003,9.342346e-002
2.363385e+003,-2.266299e+000
2.364349e+003,-4.101462e+000
2.365313e+003,-3.933795e+000
2.366277e+003,-2.934000e+000
2.367241e+003,-2.116754e+000
2.368206e+003,-1.614249e+000
2.369170e+003,-1.682086e+000
2.370134e+003,-2.127844e+000
2.371098e+003,-2.584259e+000
2.372063e+003,-2.887549e+000
2.373027e+003,-1.859708e+000
2.373991e+003,-7.005920e-002
2.374955e+003,-2.029327e-001
2.375919e+003,-1.816281e+000
2.376884e+003,-2.172449e+000
2.377848e+003,-1.001358e+000
2.378812e+003,3.280029e-001
2.379776e+003,1.163589e+000
2.380741e+003,8.782226e-001
2.381705e+003,-9.130157e-001
2.382669e+003,-2.667639e+000
2.383633e+003,-3.609946e+000
2.384598e+003,-3.386819e+000
2.385562e+003,-2.477173e-001
2.386526e+003,2.346399e+000
2.387490e+003,5.163299e-001
2.388455e+003,-2.084625e+000
2.389419e+003,-1.225427e+000
2.390383e+003,6.265228e-001
2.391347e+003,-5.654724e-001
2.392312e+003,-3.549793e+000
2.393276e+003,-4.757059e+000
2.394240e+003,-4.072311e+000
2.395204e+003,-3.683630e+000
2.396168e+003,-3.959403e+000
2.397133e+003,-3.755972e+000
2.398097e+003,-3.068472e+000
2.399061e+003,-1.759592e+000
2.400025e+003,1.140952e+000
2.400990e+003,2.481012e+000
2.401954e+003,8.101807e-001
2.402918e+003,-6.637665e-001
2.403882e+003,-3.813232e-001
2.404846e+003,3.491699e-001
2.405811e+003,5.352356e-001
2.406775e+003,4.001221e-001
2.407739e+003,2.111938e-001
2.408703e+003,-3.090210e-002
2.409668e+003,-3.399414e-001
2.410632e+003,-6.167511e-001
2.411596e+003,-2.259583e-001
2.412560e+003,5.739807e-001
2.413525e+003,6.303436e-001
2.414489e+003,9.040527e-002
2.415453e+003,-9.300537e-002
2.416417e+003,1.126404e-001
2.417382e+003,1.593323e-002
2.418346e+003,-5.253418e-001
2.419310e+003,-1.146558e+000
2.420274e+003,-1.640265e+000
2.421239e+003,-1.492908e+000
2.422203e+003,-2.166260e-001
2.423167e+003,1.240628e+000
2.424131e+003,2.650412e+000
2.425095e+003,3.419235e+000
2.426060e+003,2.718582e+000
2.427024e+003,1.744498e+000
2.427988e+003,1.331433e+000
2.428952e+003,1.148645e+000
2.429917e+003,6.681153e-001
2.430881e+003,3.003754e-001
2.431845e+003,8.278168e-001
2.432809e+003,1.980698e+000
2.433773e+003,2.848746e+000
2.434738e+003,3.431515e+000
2.435702e+003,3.446838e+000
2.436666e+003,2.565131e+000
2.437630e+003,2.421603e+000
2.438595e+003,3.279608e+000
2.439559e+003,3.484656e+000
2.440523e+003,2.679428e+000
2.441487e+003,2.726016e+000
2.442452e+003,4.202615e+000
2.443416e+003,5.509692e+000
2.444380e+003,5.839129e+000
2.445344e+003,5.434537e+000
2.446309e+003,4.448752e+000
2.447273e+003,3.877286e+000
2.448237e+003,5.061105e+000
2.449201e+003,7.284201e+000
2.450166e+003,1.060250e+001
2.451130e+003,1.319237e+001
2.452094e+003,1.085640e+001
2.453058e+003,6.621054e+000
2.454022e+003,5.183719e+000
2.454987e+003,5.620175e+000
2.455951e+003,5.716446e+000
2.456915e+003,5.329867e+000
2.457879e+003,5.116504e+000
2.458844e+003,5.174853e+000
2.459808e+003,5.207294e+000
2.460772e+003,5.137613e+000
2.461736e+003,4.911994e+000
2.462700e+003,3.241785e+000
2.463665e+003,3.555618e+000
2.464629e+003,8.480039e+000
2.465593e+003,1.171973e+001
2.466557e+003,1.162553e+001
2.467522e+003,1.049167e+001
2.468486e+003,8.739795e+000
2.469450e+003,7.751868e+000
2.470414e+003,8.716809e+000
2.471379e+003,1.010404e+001
2.472343e+003,1.004224e+001
2.473307e+003,9.221991e+000
2.474271e+003,9.058420e+000
2.475236e+003,9.392331e+000
2.476200e+003,9.918798e+000
2.477164e+003,1.042179e+001
2.478128e+003,9.796503e+000
2.479093e+003,8.787549e+000
2.480057e+003,9.757327e+000
2.481021e+003,1.200610e+001
2.481985e+003,1.335003e+001
2.482949e+003,1.338259e+001
2.483914e+003,1.217406e+001
2.484878e+003,1.004051e+001
2.485842e+003,8.922132e+000
2.486806e+003,9.629562e+000
2.487771e+003,1.080290e+001
2.488735e+003,1.252972e+001
2.489699e+003,1.373330e+001
2.490663e+003,1.386336e+001
2.491627e+003,1.372104e+001
2.492592e+003,1.370740e+001
2.493556e+003,1.334169e+001
2.494520e+003,1.208754e+001
2.495484e+003,1.097465e+001
2.496449e+003,1.076862e+001
2.497413e+003,1.131225e+001
2.498377e+003,1.250123e+001
2.499341e+003,1.401689e+001
2.500306e+003,1.510715e+001
2.501270e+003,1.574439e+001
2.502234e+003,1.546934e+001
2.503198e+003,1.460352e+001
2.504163e+003,1.420465e+001
2.505127e+003,1.425399e+001
2.506091e+003,1.453912e+001
2.507055e+003,1.506805e+001
2.508020e+003,1.635494e+001
2.508984e+003,1.804150e+001
2.509948e+003,1.822228e+001
2.510912e+003,1.650884e+001
2.511876e+003,1.567136e+001
2.512841e+003,1.700190e+001
2.513805e+003,1.832624e+001
2.514769e+003,1.848246e+001
2.515733e+003,1.921156e+001
2.516698e+003,2.132083e+001
2.517662e+003,2.352696e+001
2.518626e+003,2.627401e+001
2.519590e+003,2.762860e+001
2.520554e+003,2.589202e+001
2.521519e+003,2.403095e+001
2.522483e+003,2.463071e+001
2.523447e+003,2.637269e+001
2.524411e+003,2.741996e+001
2.525376e+003,2.810549e+001
2.526340e+003,2.909468e+001
2.527304e+003,3.031629e+001
2.528268e+003,3.180722e+001
2.529233e+003,3.338764e+001
2.530197e+003,3.432420e+001
2.531161e+003,3.509715e+001
2.532125e+003,3.691057e+001
2.533090e+003,3.944049e+001
2.534054e+003,4.189484e+001
2.535018e+003,4.395980e+001
2.535982e+003,4.512545e+001
2.536947e+003,4.531574e+001
2.537911e+003,4.543382e+001
2.538875e+003,4.552190e+001
2.539839e+003,4.601646e+001
2.540803e+003,4.679496e+001
2.541768e+003,4.843428e+001
2.542732e+003,5.193278e+001
2.543696e+003,5.369793e+001
2.544660e+003,5.244790e+001
2.545625e+003,5.119191e+001
2.546589e+003,5.131619e+001
2.547553e+003,5.175201e+001
2.548517e+003,5.163722e+001
2.549482e+003,5.170707e+001
2.550446e+003,5.295489e+001
2.551410e+003,5.453152e+001
2.552374e+003,5.532612e+001
2.553339e+003,5.532810e+001
2.554303e+003,5.391734e+001
2.555267e+003,5.238417e+001
2.556231e+003,5.284594e+001
2.557196e+003,5.380124e+001
2.558160e+003,5.304554e+001
2.559124e+003,5.125629e+001
2.560088e+003,5.015019e+001
2.561052e+003,4.945464e+001
2.562017e+003,4.716295e+001
2.562981e+003,4.327128e+001
2.563945e+003,4.140131e+001
2.564909e+003,4.215789e+001
2.565874e+003,4.138969e+001
2.566838e+003,3.884079e+001
2.567802e+003,3.723765e+001
2.568766e+003,3.682701e+001
2.569730e+003,3.567338e+001
2.570695e+003,3.353522e+001
2.571659e+003,3.273102e+001
2.572623e+003,3.373212e+001
2.573587e+003,3.383039e+001
2.574552e+003,3.171157e+001
2.575516e+003,2.943678e+001
2.576480e+003,2.842551e+001
2.577444e+003,2.762630e+001
2.578409e+003,2.620997e+001
2.579373e+003,2.469472e+001
2.580337e+003,2.332273e+001
2.581301e+003,2.218043e+001
2.582266e+003,2.180999e+001
2.583230e+003,2.109975e+001
2.584194e+003,1.865214e+001
2.585158e+003,1.639031e+001
2.586123e+003,1.631520e+001
2.587087e+003,1.755227e+001
2.588051e+003,1.881002e+001
2.589015e+003,1.973393e+001
2.589979e+003,1.892300e+001
2.590944e+003,1.692164e+001
2.591908e+003,1.620561e+001
2.592872e+003,1.595109e+001
2.593836e+003,1.346089e+001
2.594801e+003,1.006843e+001
2.595765e+003,9.148596e+000
2.596729e+003,9.984067e+000
2.597693e+003,9.949634e+000
2.598657e+003,8.902597e+000
2.599622e+003,8.169040e+000
2.600586e+003,8.008862e+000
2.601550e+003,8.309443e+000
2.602514e+003,9.628738e+000
2.603479e+003,9.470102e+000
2.604443e+003,6.755527e+000
2.605407e+003,6.142715e+000
2.606371e+003,8.698221e+000
2.607336e+003,9.072711e+000
2.608300e+003,6.033902e+000
2.609264e+003,3.320117e+000
2.610228e+003,2.343976e+000
2.611193e+003,2.101990e+000
2.612157e+003,2.021002e+000
2.613121e+003,2.471652e+000
2.614085e+003,3.936807e+000
2.615050e+003,5.141092e+000
2.616014e+003,4.900818e+000
2.616978e+003,4.145651e+000
2.617942e+003,3.164972e+000
2.618906e+003,2.344772e+000
2.619871e+003,1.740417e+000
2.620835e+003,1.585117e+000
2.621799e+003,2.319028e+000
2.622763e+003,3.115530e+000
2.623728e+003,3.257535e+000
2.624692e+003,2.957999e+000
2.625656e+003,2.439844e+000
2.626620e+003,1.966690e+000
2.627584e+003,2.371777e+000
2.628549e+003,3.358615e+000
2.629513e+003,4.155185e+000
2.630477e+003,4.628201e+000
2.631441e+003,4.016104e+000
2.632406e+003,3.129852e+000
2.633370e+003,3.914444e+000
2.634334e+003,5.498172e+000
2.635298e+003,5.738684e+000
2.636263e+003,4.757727e+000
2.637227e+003,3.862869e+000
2.638191e+003,3.262616e+000
2.639155e+003,3.012561e+000
2.640120e+003,3.245029e+000
2.641084e+003,2.820215e+000
2.642048e+003,1.376718e+000
2.643012e+003,1.553601e+000
2.643977e+003,3.544101e+000
2.644941e+003,4.341333e+000
2.645905e+003,3.579736e+000
2.646869e+003,2.595175e+000
2.647833e+003,1.902325e+000
2.648798e+003,2.082968e+000
2.649762e+003,3.215234e+000
2.650726e+003,3.526321e+000
2.651690e+003,1.861453e+000
2.652655e+003,5.330261e-001
2.653619e+003,8.229645e-001
2.654583e+003,1.314267e+000
2.655547e+003,1.353259e+000
2.656511e+003,2.101297e+000
2.657476e+003,4.697858e+000
2.658440e+003,5.694833e+000
2.659404e+003,3.382846e+000
2.660368e+003,5.588196e-001
2.661333e+003,-9.621948e-001
2.662297e+003,-1.562518e+000
2.663261e+003,-1.642032e+000
2.664225e+003,-1.047919e+000
2.665190e+003,1.163870e+000
2.666154e+003,3.116894e+000
2.667118e+003,2.097495e+000
2.668082e+003,4.768952e-001
2.669047e+003,8.178405e-002
2.670011e+003,3.780151e-001
2.670975e+003,1.187320e+000
2.671939e+003,1.973431e+000
2.672904e+003,2.266110e+000
2.673868e+003,2.264472e+000
2.674832e+003,2.243893e+000
2.675796e+003,2.027228e+000
2.676760e+003,1.101807e+000
2.677725e+003,-3.358642e-001
2.678689e+003,-1.861685e+000
2.679653e+003,-2.969144e+000
2.680617e+003,-1.516852e+000
2.681582e+003,1.031784e+000
2.682546e+003,1.644327e+000
2.683510e+003,9.929687e-001
2.684474e+003,7.570923e-001
2.685438e+003,9.378815e-001
2.686403e+003,8.212494e-001
2.687367e+003,4.406128e-001
2.688331e+003,5.755280e-001
2.689295e+003,1.288593e+000
2.690260e+003,2.223657e+000
2.691224e+003,3.500198e+000
2.692188e+003,3.771857e+000
2.693152e+003,3.005527e+000
2.694117e+003,1.294299e+000
2.695081e+003,-8.584350e-001
2.696045e+003,-9.436249e-001
2.697009e+003,8.320953e-001
2.697974e+003,1.500052e+000
2.698938e+003,5.237915e-001
2.699902e+003,2.218964e-001
2.700866e+003,1.420950e+000
2.701831e+003,2.092597e+000
2.702795e+003,9.723175e-001
2.703759e+003,8.404449e-001
2.704723e+003,2.392197e+000
2.705688e+003,3.548236e+000
2.706652e+003,4.150464e+000
2.707616e+003,3.075009e+000
2.708580e+003,1.420258e-001
2.709544e+003,-1.555887e+000
2.710509e+003,-9.019958e-001
2.711473e+003,-2.456787e-001
2.712437e+003,-9.060272e-001
2.713401e+003,-1.161795e+000
2.714365e+003,4.106506e-001
2.715330e+003,1.968710e+000
2.716294e+003,2.959042e+000
2.717258e+003,3.125449e+000
2.718222e+003,1.848175e+000
2.719187e+003,4.097260e-001
2.720151e+003,-1.314929e+000
2.721115e+003,-1.456888e+000
2.722079e+003,1.138336e+000
2.723044e+003,3.430393e+000
2.724008e+003,3.140509e+000
2.724972e+003,1.735883e+000
2.725936e+003,5.286987e-001
2.726901e+003,-2.512360e-001
2.727865e+003,-2.486847e-001
2.728829e+003,1.850037e-001
2.729793e+003,1.427893e+000
2.730758e+003,2.124808e+000
2.731722e+003,5.555542e-001
2.732686e+003,-9.980347e-001
2.733650e+003,-9.938904e-001
2.734615e+003,-3.070068e-002
2.735579e+003,1.735214e+000
2.736543e+003,2.799759e+000
2.737507e+003,8.939972e-001
2.738471e+003,-1.889093e+000
2.739436e+003,-1.180737e+000
2.740400e+003,8.117462e-001
2.741364e+003,1.814117e-001
2.742328e+003,-1.132324e+000
2.743292e+003,-9.894897e-001
2.744257e+003,-1.199951e-001
2.745221e+003,9.279297e-001
2.746185e+003,1.828180e+000
2.747149e+003,2.245154e+000
2.748114e+003,2.327368e+000
2.749078e+003,2.248840e+000
2.750042e+003,2.105752e+000
2.751006e+003,2.107129e+000
2.751971e+003,2.222244e+000
2.752935e+003,2.560706e+000
2.753899e+003,2.821075e+000
2.754863e+003,2.131827e+000
2.755828e+003,1.095380e+000
2.756792e+003,5.753296e-001
2.757756e+003,4.869537e-001
2.758720e+003,9.094055e-001
2.759685e+003,1.343579e+000
2.760649e+003,5.976318e-001
2.761613e+003,-8.615204e-001
2.762577e+003,-1.678116e+000
2.763542e+003,-1.919623e+000
2.764506e+003,-2.031165e+000
2.765470e+003,-1.824649e+000
2.766434e+003,4.436279e-001
2.767398e+003,3.511838e+000
2.768363e+003,3.577774e+000
2.769327e+003,1.878726e+000
2.770291e+003,1.713763e+000
2.771255e+003,2.672574e+000
2.772219e+003,2.299246e+000
2.773184e+003,9.205353e-001
2.774148e+003,1.997147e+000
2.775112e+003,5.193182e+000
2.776076e+003,4.220209e+000
2.777041e+003,-9.988769e-001
2.778005e+003,-2.663437e+000
2.778969e+003,-1.368069e+000
2.779933e+003,-4.690857e-002
2.780898e+003,8.018158e-001
2.781862e+003,4.098511e-001
2.782826e+003,-7.163635e-001
2.783790e+003,-1.205255e+000
2.784755e+003,-9.067780e-001
2.785719e+003,-2.158630e-001
2.786683e+003,8.011383e-001
2.787647e+003,1.367010e+000
2.788612e+003,1.509027e+000
2.789576e+003,3.252625e-001
2.790540e+003,-2.066535e+000
2.791504e+003,-2.307654e+000
2.792469e+003,-8.126801e-001
2.793433e+003,-8.823059e-001
2.794397e+003,-2.169296e+000
2.795361e+003,-1.555466e+000
2.796325e+003,6.857910e-001
2.797290e+003,1.068033e+000
2.798254e+003,-8.919342e-001
2.799218e+003,-1.696695e+000
2.800182e+003,-9.057465e-001
2.801146e+003,-1.891113e-001
2.802111e+003,3.917297e-001
2.803075e+003,2.652594e+000
2.804039e+003,6.238586e+000
2.805003e+003,7.493814e+000
2.805968e+003,6.349747e+000
2.806932e+003,4.647092e+000
2.807896e+003,2.962393e+000
2.808860e+003,9.513214e-001
2.809825e+003,-1.272848e+000
2.810789e+003,-2.219861e+000
2.811753e+003,-1.407465e+000
2.812717e+003,-4.617248e-001
2.813682e+003,8.554748e-001
2.814646e+003,5.327484e-001
2.815610e+003,-1.348315e+000
2.816574e+003,-1.099432e+000
2.817539e+003,1.081628e+000
2.818503e+003,2.408643e+000
2.819467e+003,2.313162e+000
2.820431e+003,7.920288e-001
2.821396e+003,-1.578519e+000
2.822360e+003,-2.438370e+000
2.823324e+003,-1.190619e+000
2.824288e+003,9.723450e-001
2.825252e+003,4.996600e+000
2.826217e+003,4.988278e+000
2.827181e+003,8.105561e-001
2.828145e+003,-4.876404e-001
2.829109e+003,1.040280e+000
2.830073e+003,1.028720e+000
2.831038e+003,-6.680023e-001
2.832002e+003,-1.605304e+000
2.832966e+003,-1.313654e+000
2.833930e+003,-6.284240e-001
2.834895e+003,2.406586e-001
2.835859e+003,1.253445e+000
2.836823e+003,2.623206e+000
2.837787e+003,2.801343e+000
2.838752e+003,1.675046e+000
2.839716e+003,1.994788e+000
2.840680e+003,3.515244e+000
2.841644e+003,3.199127e+000
2.842609e+003,1.266840e+000
2.843573e+003,-7.897339e-002
2.844537e+003,-3.128174e-001
2.845501e+003,5.875885e-001
2.846466e+003,2.424725e+000
2.847430e+003,3.180786e+000
2.848394e+003,2.616202e+000
2.849358e+003,1.487024e+000
2.850323e+003,-2.931519e-001
2.851287e+003,-1.567261e-001
2.852251e+003,1.500183e+000
2.853215e+003,1.485046e+000
2.854179e+003,1.372314e-001
2.855144e+003,-2.747620e-001
2.856108e+003,2.968201e-001
2.857072e+003,7.293274e-001
2.858036e+003,8.153412e-001
2.859000e+003,5.375274e-001
2.859965e+003,-1.003571e-001
2.860929e+003,4.274750e-001
2.861893e+003,2.141922e+000
2.862857e+003,2.183450e+000
2.863822e+003,9.641693e-001
2.864786e+003,3.783356e-001
2.865750e+003,4.424530e-001
2.866714e+003,9.622467e-001
2.867679e+003,1.457651e+000
2.868643e+003,7.931091e-001
2.869607e+003,-6.979736e-001
2.870571e+003,-1.160315e+000
2.871536e+003,-6.032715e-001
2.872500e+003,7.630615e-001
2.873464e+003,2.791858e+000
2.874428e+003,2.275095e+000
2.875393e+003,1.250977e-001
2.876357e+003,-8.578827e-001
2.877321e+003,-6.453857e-001
2.878285e+003,7.614349e-001
2.879250e+003,2.614578e+000
2.880214e+003,3.966110e+000
2.881178e+003,4.492560e+000
2.882142e+003,3.746329e+000
2.883106e+003,2.036691e+000
2.884071e+003,1.938385e-001
2.885035e+003,-1.469122e+000
2.885999e+003,-7.569824e-001
2.886963e+003,1.187582e+000
2.887927e+003,1.702225e+000
2.888892e+003,1.440607e+000
2.889856e+003,1.390887e+000
2.890820e+003,1.596747e+000
2.891784e+003,2.292691e+000
2.892749e+003,2.807507e+000
2.893713e+003,2.016641e+000
2.894677e+003,5.430237e-001
2.895641e+003,-3.832916e-001
2.896606e+003,-6.206024e-001
2.897570e+003,8.173370e-001
2.898534e+003,2.679852e+000
2.899498e+003,3.000052e+000
2.900463e+003,2.411273e+000
2.901427e+003,9.162781e-001
2.902391e+003,-1.451599e-001
2.903355e+003,1.214978e+000
2.904320e+003,2.676236e+000
2.905284e+003,1.731049e+000
2.906248e+003,3.600159e-002
2.907212e+003,6.546021e-002
2.908177e+003,1.077548e+000
2.909141e+003,2.528451e+000
2.910105e+003,3.383310e+000
2.911069e+003,1.789252e+000
2.912033e+003,6.968994e-002
2.912998e+003,2.805359e-001
2.913962e+003,6.869354e-001
2.914926e+003,1.450012e-001
2.915890e+003,-4.059021e-001
2.916854e+003,-2.662384e-001
2.917819e+003,-2.113342e-002
2.918783e+003,-3.516449e-001
2.919747e+003,-3.201599e-001
2.920711e+003,1.935211e+000
2.921676e+003,3.637897e+000
2.922640e+003,2.085678e+000
2.923604e+003,1.058063e+000
2.924568e+003,2.721887e+000
2.925533e+003,3.291092e+000
2.926497e+003,1.176624e+000
2.927461e+003,-2.478638e-002
2.928425e+003,1.688498e+000
2.929390e+003,2.883597e+000
2.930354e+003,5.381439e-001
2.931318e+003,-1.291394e+000
2.932282e+003,1.317423e+000
2.933247e+003,2.761896e+000
2.934211e+003,1.833127e+000
2.935175e+003,1.031070e+000
2.936139e+003,6.133423e-002
2.937104e+003,-6.737366e-001
2.938068e+003,-9.682739e-001
2.939032e+003,-4.525971e-001
2.939996e+003,8.414704e-001
2.940960e+003,2.288757e+000
2.941925e+003,3.587506e+000
2.942889e+003,3.408151e+000
2.943853e+003,5.988770e-001
2.944817e+003,-1.304373e+000
2.945781e+003,-2.199591e+000
2.946746e+003,-2.028299e+000
2.947710e+003,-9.110687e-001
2.948674e+003,3.549682e-001
2.949638e+003,1.344077e+000
2.950603e+003,5.308502e-001
2.951567e+003,-1.443781e+000
2.952531e+003,-1.321497e+000
2.953495e+003,1.251828e+000
2.954460e+003,3.328766e+000
2.955424e+003,4.801749e+000
2.956388e+003,3.939004e+000
2.957352e+003,1.062799e+000
2.958317e+003,-8.466370e-001
2.959281e+003,-1.677490e+000
2.960245e+003,-7.314972e-001
2.961209e+003,7.192963e-001
2.962174e+003,-2.624115e-001
2.963138e+003,-2.313834e+000
2.964102e+003,-1.559006e+000
2.965066e+003,6.566193e-001
2.966031e+003,1.125189e+000
2.966995e+003,4.619568e-001
2.967959e+003,7.010071e-001
2.968923e+003,1.233218e+000
2.969887e+003,4.607056e-001
2.970852e+003,-4.353821e-001
2.971816e+003,2.494141e-001
2.972780e+003,1.341486e+000
2.973744e+003,1.643356e+000
2.974708e+003,1.634631e+000
2.975673e+003,1.740192e+000
2.976637e+003,1.620840e+000
2.977601e+003,7.840301e-001
2.978565e+003,-1.216614e-001
2.979530e+003,-1.009796e-001
2.980494e+003,1.273743e-001
2.981458e+003,7.940674e-003
2.982422e+003,-9.925842e-002
2.983387e+003,1.271851e-001
2.984351e+003,4.840088e-003
2.985315e+003,-7.320557e-001
2.986279e+003,-1.419308e+000
2.987244e+003,-1.728632e+000
2.988208e+003,-2.071106e+000
2.989172e+003,-2.754276e+000
2.990136e+003,-2.907660e+000
2.991101e+003,-1.563577e+000
2.992065e+003,-5.018463e-001
2.993029e+003,-3.717895e-001
2.993993e+003,4.867706e-001
2.994958e+003,2.322095e+000
2.995922e+003,2.213422e+000
2.996886e+003,2.822876e-002
2.997850e+003,-1.530997e+000
2.998814e+003,-1.709201e+000
2.999779e+003,-8.479767e-001
3.000743e+003,9.031006e-001
3.001707e+003,1.849496e+000
3.002671e+003,1.872586e+000
3.003635e+003,1.272015e+000
3.004600e+003,7.178955e-002
3.005564e+003,-1.513220e+000
3.006528e+003,-2.888516e+000
3.007492e+003,-1.969638e+000
3.008457e+003,3.484497e-001
3.009421e+003,2.161469e+000
3.010385e+003,3.102182e+000
3.011349e+003,3.101514e+000
3.012314e+003,2.346927e+000
3.013278e+003,9.845489e-001
3.014242e+003,-4.656494e-001
3.015206e+003,1.721039e-001
3.016171e+003,1.510403e+000
3.017135e+003,9.663910e-001
3.018099e+003,3.887939e-002
3.019063e+003,7.880768e-001
3.020028e+003,1.479877e+000
3.020992e+003,4.441711e-001
3.021956e+003,-7.741241e-001
3.022920e+003,-8.725647e-001
3.023885e+003,-3.517334e-001
3.024849e+003,4.375916e-001
3.025813e+003,9.175720e-001
3.026777e+003,3.540527e-001
3.027741e+003,-4.123566e-001
3.028706e+003,-1.592105e+000
3.029670e+003,-1.504288e+000
3.030634e+003,7.057739e-001
3.031598e+003,1.197330e+000
3.032563e+003,-1.114761e+000
3.033527e+003,-2.075992e+000
3.034491e+003,-8.920898e-002
3.035455e+003,1.281815e+000
3.036420e+003,3.283051e-001
3.037384e+003,-2.868988e-001
3.038348e+003,1.098022e-001
3.039312e+003,7.240906e-002
3.040277e+003,-4.027893e-001
3.041241e+003,2.780060e-001
3.042205e+003,1.607748e+000
3.043169e+003,4.644135e-001
3.044134e+003,-2.295126e+000
3.045098e+003,-2.768613e+000
3.046062e+003,-1.120749e+000
3.047026e+003,-8.398651e-001
3.047990e+003,-1.602185e+000
3.048955e+003,-1.105008e+000
3.049919e+003,1.056427e-001
3.050883e+003,-7.419617e-001
3.051847e+003,-2.256873e+000
3.052812e+003,-2.092105e+000
3.053776e+003,-1.136118e+000
3.054740e+003,-4.072418e-001
3.055704e+003,1.644226e-001
3.056668e+003,8.419555e-001
3.057633e+003,1.207098e+000
3.058597e+003,7.250763e-001
3.059561e+003,4.985351e-002
3.060525e+003,1.825439e-001
3.061490e+003,1.571899e-001
3.062454e+003,-1.706015e+000
3.063418e+003,-2.281433e+000
3.064382e+003,2.572754e-001
3.065347e+003,2.332336e+000
3.066311e+003,3.005542e+000
3.067275e+003,2.145499e+000
3.068239e+003,9.335327e-003
3.069204e+003,-1.038791e+000
3.070168e+003,2.193298e-002
3.071132e+003,1.003711e+000
3.072096e+003,1.414679e+000
3.073061e+003,8.011872e-001
3.074025e+003,-9.929627e-001
3.074989e+003,-1.169949e+000
3.075953e+003,-2.371826e-002
3.076917e+003,3.630432e-001
3.077882e+003,2.227478e-002
3.078846e+003,-1.413483e-001
3.079810e+003,-5.637817e-002
3.080774e+003,-1.926788e-001
3.081739e+003,-3.409363e-001
3.082703e+003,3.506775e-001
3.083667e+003,1.402643e+000
3.084631e+003,1.211136e+000
3.085595e+003,3.528107e-001
3.086560e+003,-6.827881e-001
3.087524e+003,-1.343314e+000
3.088488e+003,-7.405396e-001
3.089452e+003,-1.145874e-001
3.090417e+003,-3.520904e-001
3.091381e+003,-3.251068e-001
3.092345e+003,8.957794e-001
3.093309e+003,1.316147e+000
3.094274e+003,-1.494052e+000
3.095238e+003,-3.542822e+000
3.096202e+003,-1.166809e+000
3.097166e+003,3.703583e-001
3.098131e+003,-1.172546e-001
3.099095e+003,-3.054535e-001
3.100059e+003,1.230927e-001
3.101023e+003,-6.864380e-001
3.101988e+003,-2.662033e+000
3.102952e+003,-2.986066e+000
3.103916e+003,-1.167590e+000
3.104880e+003,-3.234283e-001
3.105844e+003,-8.433716e-001
3.106809e+003,-1.116782e+000
3.107773e+003,-1.167960e+000
3.108737e+003,-1.418543e+000
3.109701e+003,-1.662286e+000
3.110666e+003,-1.100809e+000
3.111630e+003,-2.810150e-001
3.112594e+003,-4.112549e-002
3.113558e+003,-3.482544e-001
3.114522e+003,-1.182986e+000
3.115487e+003,-1.935941e+000
3.116451e+003,-1.684692e+000
3.117415e+003,-9.369720e-001
3.118379e+003,-2.238495e-001
3.119344e+003,3.506714e-001
3.120308e+003,9.842651e-001
3.121272e+003,7.916412e-001
3.122236e+003,-8.088043e-001
3.123201e+003,-1.817398e+000
3.124165e+003,-1.605762e+000
3.125129e+003,-8.062622e-001
3.126093e+003,1.764710e-001
3.127058e+003,4.536835e-001
3.128022e+003,-4.449951e-001
3.128986e+003,-1.123315e+000
3.129950e+003,-1.382840e+000
3.130915e+003,-1.124753e+000
3.131879e+003,-4.931702e-001
3.132843e+003,-1.644922e+000
3.133807e+003,-3.598038e+000
3.134771e+003,-2.920456e+000
3.135736e+003,-7.239258e-001
3.136700e+003,-9.033813e-002
3.137664e+003,-7.354706e-001
3.138628e+003,-1.805786e+000
3.139593e+003,-2.990811e+000
3.140557e+003,-3.719974e+000
3.141521e+003,-3.901816e+000
3.142485e+003,-3.065640e+000
3.143449e+003,-2.036166e+000
3.144414e+003,-1.056512e+000
3.145378e+003,-8.503205e-001
3.146342e+003,-1.828571e+000
3.147306e+003,-2.833734e+000
3.148271e+003,-3.270938e+000
3.149235e+003,-2.371225e+000
3.150199e+003,4.083740e-001
3.151163e+003,1.875342e+000
3.152128e+003,-2.115509e-001
3.153092e+003,-1.540372e+000
3.154056e+003,-1.992810e+000
3.155020e+003,-1.178964e+000
3.155985e+003,3.798187e-001
3.156949e+003,3.447723e-001
3.157913e+003,-9.565033e-001
3.158877e+003,-2.288382e+000
3.159842e+003,-3.205615e+000
3.160806e+003,-3.302768e+000
3.161770e+003,-2.611258e+000
3.162734e+003,-8.669952e-001
3.163698e+003,1.100027e+000
3.164663e+003,1.495828e+000
3.165627e+003,1.047260e+000
3.166591e+003,4.256592e-002
3.167555e+003,-7.925720e-001
3.168520e+003,-1.012717e+000
3.169484e+003,-1.318173e+000
3.170448e+003,-2.033374e+000
3.171412e+003,-2.769031e+000
3.172376e+003,-3.302194e+000
3.173341e+003,-2.956494e+000
3.174305e+003,-7.963135e-001
3.175269e+003,3.477905e-001
3.176233e+003,8.193970e-003
3.177198e+003,1.907288e-001
3.178162e+003,8.865082e-001
3.179126e+003,1.526962e+000
3.180090e+003,1.791190e+000
3.181055e+003,8.218811e-001
3.182019e+003,-8.972412e-001
3.182983e+003,-1.941617e+000
3.183947e+003,-2.368900e+000
3.184912e+003,-2.393274e+000
3.185876e+003,-2.043228e+000
3.186840e+003,-9.976104e-001
3.187804e+003,-1.214478e-001
3.188769e+003,-5.648621e-001
3.189733e+003,-1.174225e+000
3.190697e+003,-1.462942e+000
3.191661e+003,-1.189630e+000
3.192625e+003,-2.545746e-001
3.193590e+003,-1.087341e-001
3.194554e+003,-1.433878e+000
3.195518e+003,-1.852817e+000
3.196482e+003,2.458832e-001
3.197447e+003,1.212509e+000
3.198411e+003,6.125854e-001
3.199375e+003,-4.122467e-001
3.200339e+003,-1.455084e+000
3.201303e+003,2.843323e-002
3.202268e+003,2.647699e+000
3.203232e+003,2.561319e+000
3.204196e+003,7.578888e-001
3.205160e+003,8.476257e-002
3.206125e+003,4.843445e-001
3.207089e+003,2.131946e+000
3.208053e+003,3.615033e+000
3.209017e+003,1.812161e+000
3.209982e+003,-4.121094e-001
3.210946e+003,-8.478699e-001
3.211910e+003,-5.477142e-001
3.212874e+003,1.484344e-001
3.213839e+003,1.014868e+000
3.214803e+003,1.877539e+000
3.215767e+003,1.567657e+000
3.216731e+003,-1.937256e-001
3.217696e+003,-1.338272e+000
3.218660e+003,-1.163489e+000
3.219624e+003,-1.727295e-003
3.220588e+003,2.173422e+000
3.221552e+003,2.087409e+000
3.222517e+003,7.016876e-001
3.223481e+003,1.250189e+000
3.224445e+003,2.424625e+000
3.225409e+003,1.401816e+000
3.226374e+003,-2.953979e-001
3.227338e+003,-8.328949e-001
3.228302e+003,-5.557251e-001
3.229266e+003,2.528778e-001
3.230230e+003,1.023346e+000
3.231195e+003,8.902923e-001
3.232159e+003,9.956573e-001
3.233123e+003,2.267838e+000
3.234087e+003,2.808603e+000
3.235052e+003,2.330261e+000
3.236016e+003,1.575055e+000
3.236980e+003,9.017914e-001
3.237944e+003,1.186545e+000
3.238909e+003,2.366208e+000
3.239873e+003,2.332129e+000
3.240837e+003,1.199701e+000
3.241801e+003,1.219250e+000
3.242766e+003,2.054868e+000
3.243730e+003,2.709430e+000
3.244694e+003,2.776974e+000
3.245658e+003,8.763550e-001
3.246623e+003,-8.477508e-001
3.247587e+003,-4.547470e-001
3.248551e+003,2.479095e-001
3.249515e+003,1.057007e-001
3.250479e+003,2.054413e-001
3.251444e+003,1.448193e+000
3.252408e+003,2.373404e+000
3.253372e+003,2.066760e+000
3.254336e+003,1.403699e+000
3.255301e+003,3.763824e-001
3.256265e+003,5.854187e-001
3.257229e+003,1.726205e+000
3.258193e+003,1.922385e+000
3.259157e+003,1.289545e+000
3.260122e+003,6.100556e-001
3.261086e+003,4.840240e-001
3.262050e+003,2.130594e+000
3.263014e+003,4.082407e+000
3.263979e+003,2.312421e+000
3.264943e+003,-1.998718e-001
3.265907e+003,2.514084e-001
3.266871e+003,1.282312e+000
3.267836e+003,1.564279e+000
3.268800e+003,2.285470e+000
3.269764e+003,3.781628e+000
3.270728e+003,3.941513e+000
3.271693e+003,2.219229e+000
3.272657e+003,8.455078e-001
3.273621e+003,5.963699e-001
3.274585e+003,1.357248e+000
3.275550e+003,3.136484e+000
3.276514e+003,4.128128e+000
3.277478e+003,4.374884e+000
3.278442e+003,3.489032e+000
3.279406e+003,2.369302e+000
3.280371e+003,2.562924e+000
3.281335e+003,2.820190e+000
3.282299e+003,1.938950e+000
3.283263e+003,1.119753e+000
3.284228e+003,1.426094e+000
3.285192e+003,2.596210e+000
3.286156e+003,5.396192e+000
3.287120e+003,6.901514e+000
3.288084e+003,6.058191e+000
3.289049e+003,5.564154e+000
3.290013e+003,5.587875e+000
3.290977e+003,4.886527e+000
3.291941e+003,3.772049e+000
3.292906e+003,3.957184e+000
3.293870e+003,5.207498e+000
3.294834e+003,5.968408e+000
3.295798e+003,6.173193e+000
3.296763e+003,5.253497e+000
3.297727e+003,4.207169e+000
3.298691e+003,5.248706e+000
3.299655e+003,6.241015e+000
3.300620e+003,5.176535e+000
3.301584e+003,4.225189e+000
3.302548e+003,3.982996e+000
3.303512e+003,3.937112e+000
3.304477e+003,3.935834e+000
3.305441e+003,4.379498e+000
3.306405e+003,5.412094e+000
3.307369e+003,6.133224e+000
3.308333e+003,6.468808e+000
3.309298e+003,7.018967e+000
3.310262e+003,7.763434e+000
3.311226e+003,8.718378e+000
3.312190e+003,9.694989e+000
3.313155e+003,1.088753e+001
3.314119e+003,1.113255e+001
3.315083e+003,9.413244e+000
3.316047e+003,7.651459e+000
3.317011e+003,7.424951e+000
3.317976e+003,7.636447e+000
3.318940e+003,7.459924e+000
3.319904e+003,7.568194e+000
3.320868e+003,8.167539e+000
3.321833e+003,8.595907e+000
3.322797e+003,8.803339e+000
3.323761e+003,8.811243e+000
3.324725e+003,8.617319e+000
3.325690e+003,8.052258e+000
3.326654e+003,7.433209e+000
3.327618e+003,7.400708e+000
3.328582e+003,7.585971e+000
3.329547e+003,7.147818e+000
3.330511e+003,6.870044e+000
3.331475e+003,8.056671e+000
3.332439e+003,9.014505e+000
3.333404e+003,9.280924e+000
3.334368e+003,8.054739e+000
3.335332e+003,5.459537e+000
3.336296e+003,5.090189e+000
3.337260e+003,7.358466e+000
3.338225e+003,8.781909e+000
3.339189e+003,8.557355e+000
3.340153e+003,7.628915e+000
3.341117e+003,6.247180e+000
3.342082e+003,5.638408e+000
3.343046e+003,5.690645e+000
3.344010e+003,7.171649e+000
3.344974e+003,7.909894e+000
3.345938e+003,5.805823e+000
3.346903e+003,4.045410e+000
3.347867e+003,4.130658e+000
3.348831e+003,5.484084e+000
3.349795e+003,7.834656e+000
3.350760e+003,8.594409e+000
3.351724e+003,5.890549e+000
3.352688e+003,5.466533e+000
3.353652e+003,7.082700e+000
3.354617e+003,8.189496e+000
3.355581e+003,8.974561e+000
3.356545e+003,1.086478e+001
3.357509e+003,1.205631e+001
3.358474e+003,1.000511e+001
3.359438e+003,7.180481e+000
3.360402e+003,5.749150e+000
3.361366e+003,6.175896e+000
3.362331e+003,1.040105e+001
3.363295e+003,1.266919e+001
3.364259e+003,9.712275e+000
3.365223e+003,8.177988e+000
3.366188e+003,8.442782e+000
3.367152e+003,8.978909e+000
3.368116e+003,9.354895e+000
3.369080e+003,9.091711e+000
3.370044e+003,8.483624e+000
3.371009e+003,8.432653e+000
3.371973e+003,8.630636e+000
3.372937e+003,8.573980e+000
3.373901e+003,8.140796e+000
3.374865e+003,6.300145e+000
3.375830e+003,5.665080e+000
3.376794e+003,7.824513e+000
3.377758e+003,8.663813e+000
3.378722e+003,7.587474e+000
3.379687e+003,7.502373e+000
3.380651e+003,8.998935e+000
3.381615e+003,1.116047e+001
3.382579e+003,1.325473e+001
3.383544e+003,1.225682e+001
3.384508e+003,9.553034e+000
3.385472e+003,1.044471e+001
3.386436e+003,1.231176e+001
3.387401e+003,1.188599e+001
3.388365e+003,1.113349e+001
3.389329e+003,1.104753e+001
3.390293e+003,1.135388e+001
3.391258e+003,1.191985e+001
3.392222e+003,1.263428e+001
3.393186e+003,1.346898e+001
3.394150e+003,1.418413e+001
3.395115e+003,1.472225e+001
3.396079e+003,1.546169e+001
3.397043e+003,1.628664e+001
3.398007e+003,1.683168e+001
3.398971e+003,1.729528e+001
3.399936e+003,1.812375e+001
3.400900e+003,1.859407e+001
3.401864e+003,1.827193e+001
3.402828e+003,1.735719e+001
3.403792e+003,1.595360e+001
3.404757e+003,1.577329e+001
3.405721e+003,1.838886e+001
3.406685e+003,2.035186e+001
3.407649e+003,2.149463e+001
3.408614e+003,2.218698e+001
3.409578e+003,2.273388e+001
3.410542e+003,2.395486e+001
3.411506e+003,2.520634e+001
3.412471e+003,2.508720e+001
3.413435e+003,2.557168e+001
3.414399e+003,2.881549e+001
3.415363e+003,3.168941e+001
3.416328e+003,3.075463e+001
3.417292e+003,2.936046e+001
3.418256e+003,2.795332e+001
3.419220e+003,2.953010e+001
3.420185e+003,3.352675e+001
3.421149e+003,3.363462e+001
3.422113e+003,3.082826e+001
3.423077e+003,2.936294e+001
3.424042e+003,2.961052e+001
3.425006e+003,3.134492e+001
3.425970e+003,3.303395e+001
3.426934e+003,3.207081e+001
