7.140112e+001,5.695995e+001
7.236536e+001,5.696944e+001
7.332959e+001,5.853183e+001
7.429382e+001,5.957565e+001
7.525806e+001,6.053644e+001
7.622229e+001,5.961975e+001
7.718652e+001,5.491811e+001
7.815076e+001,4.374429e+001
7.911499e+001,3.767422e+001
8.007922e+001,3.611536e+001
8.104346e+001,3.815477e+001
8.200769e+001,4.359727e+001
8.297192e+001,5.577177e+001
8.393616e+001,6.622604e+001
8.490039e+001,7.407909e+001
8.586462e+001,7.874114e+001
8.682886e+001,7.958072e+001
8.779310e+001,7.274516e+001
8.875733e+001,6.338998e+001
8.972157e+001,5.381980e+001
9.068580e+001,4.512807e+001
9.165003e+001,3.766899e+001
9.261427e+001,3.417501e+001
9.357850e+001,3.339297e+001
9.454273e+001,3.382424e+001
9.550697e+001,3.461583e+001
9.647120e+001,3.629279e+001
9.743543e+001,3.643456e+001
9.839967e+001,3.424300e+001
9.936390e+001,3.117190e+001
1.003281e+002,2.887822e+001
1.012924e+002,2.768425e+001
1.022566e+002,2.722074e+001
1.032208e+002,2.798445e+001
1.041851e+002,2.952563e+001
1.051493e+002,3.087929e+001
1.061135e+002,3.140290e+001
1.070778e+002,3.109487e+001
1.080420e+002,2.953679e+001
1.090062e+002,2.676854e+001
1.099705e+002,2.339409e+001
1.109347e+002,2.034880e+001
1.118989e+002,1.779970e+001
1.128632e+002,1.664172e+001
1.138274e+002,1.754786e+001
1.147916e+002,2.097311e+001
1.157559e+002,2.322102e+001
1.167201e+002,2.440474e+001
1.176843e+002,2.480339e+001
1.186486e+002,2.469715e+001
1.196128e+002,2.354807e+001
1.205770e+002,2.245855e+001
1.215413e+002,2.145044e+001
1.225055e+002,2.055951e+001
1.234697e+002,1.984997e+001
1.244340e+002,2.020565e+001
1.253982e+002,1.995651e+001
1.263624e+002,1.739499e+001
1.273267e+002,1.285942e+001
1.282909e+002,8.931763e+000
1.292551e+002,1.279772e+001
1.302194e+002,1.946437e+001
1.311836e+002,2.491817e+001
1.321478e+002,2.655972e+001
1.331121e+002,2.421711e+001
1.340763e+002,2.091737e+001
1.350405e+002,1.648540e+001
1.360048e+002,1.242045e+001
1.369690e+002,1.026553e+001
1.379332e+002,1.100008e+001
1.388975e+002,1.275967e+001
1.398617e+002,1.632675e+001
1.408259e+002,2.051045e+001
1.417902e+002,2.350753e+001
1.427544e+002,2.448162e+001
1.437186e+002,2.403985e+001
1.446829e+002,2.147178e+001
1.456471e+002,1.740619e+001
1.466113e+002,1.341308e+001
1.475756e+002,1.130916e+001
1.485398e+002,1.063181e+001
1.495040e+002,1.214575e+001
1.504683e+002,1.582407e+001
1.514325e+002,2.080599e+001
1.523967e+002,2.161685e+001
1.533610e+002,1.923248e+001
1.543252e+002,1.653461e+001
1.552894e+002,1.568129e+001
1.562537e+002,1.768385e+001
1.572179e+002,1.818503e+001
1.581821e+002,1.556981e+001
1.591464e+002,1.276259e+001
1.601106e+002,1.310737e+001
1.610748e+002,2.054083e+001
1.620391e+002,2.553577e+001
1.630033e+002,2.538944e+001
1.639676e+002,2.181401e+001
1.649318e+002,1.746160e+001
1.658960e+002,1.387251e+001
1.668603e+002,1.154285e+001
1.678245e+002,1.119128e+001
1.687887e+002,1.254517e+001
1.697530e+002,1.480530e+001
1.707172e+002,1.604382e+001
1.716814e+002,1.651083e+001
1.726457e+002,1.666647e+001
1.736099e+002,1.665188e+001
1.745741e+002,1.646317e+001
1.755384e+002,1.586603e+001
1.765026e+002,1.462052e+001
1.774668e+002,1.336670e+001
1.784311e+002,1.250006e+001
1.793953e+002,1.223824e+001
1.803595e+002,1.187792e+001
1.813238e+002,1.079255e+001
1.822880e+002,9.725805e+000
1.832522e+002,9.608063e+000
1.842165e+002,1.173436e+001
1.851807e+002,1.292877e+001
1.861449e+002,1.001010e+001
1.871092e+002,5.061304e+000
1.880734e+002,7.609680e-001
1.890376e+002,9.052795e-001
1.900019e+002,4.474060e+000
1.909661e+002,7.958655e+000
1.919303e+002,1.108270e+001
1.928946e+002,1.374603e+001
1.938588e+002,1.547583e+001
1.948230e+002,1.576230e+001
1.957873e+002,1.620391e+001
1.967515e+002,1.612643e+001
1.977157e+002,1.567917e+001
1.986800e+002,1.883024e+001
1.996442e+002,2.623327e+001
2.006084e+002,3.645353e+001
2.015727e+002,5.313204e+001
2.025369e+002,7.694160e+001
2.035011e+002,9.316428e+001
2.044654e+002,8.729060e+001
2.054296e+002,7.365535e+001
2.063938e+002,5.871132e+001
2.073581e+002,4.691108e+001
2.083223e+002,3.930864e+001
2.092865e+002,3.766309e+001
2.102508e+002,4.045651e+001
2.112150e+002,4.611556e+001
2.121792e+002,5.312991e+001
2.131435e+002,6.221771e+001
2.141077e+002,6.693251e+001
2.150719e+002,6.581067e+001
2.160362e+002,6.185531e+001
2.170004e+002,5.931548e+001
2.179646e+002,5.813285e+001
2.189289e+002,5.905764e+001
2.198931e+002,6.152054e+001
2.208573e+002,6.591560e+001
2.218216e+002,7.331451e+001
2.227858e+002,8.916414e+001
2.237500e+002,1.032211e+002
2.247143e+002,1.132316e+002
2.256785e+002,1.179806e+002
2.266427e+002,1.163951e+002
2.276070e+002,1.014445e+002
2.285712e+002,8.003682e+001
2.295354e+002,6.053907e+001
2.304997e+002,4.552182e+001
2.314639e+002,3.471182e+001
2.324281e+002,2.731027e+001
2.333924e+002,2.362741e+001
2.343566e+002,2.089202e+001
2.353208e+002,1.820526e+001
2.362851e+002,1.552206e+001
2.372493e+002,1.317319e+001
2.382135e+002,1.112699e+001
2.391778e+002,9.295178e+000
2.401420e+002,7.671594e+000
2.411062e+002,6.272296e+000
2.420705e+002,5.003290e+000
2.430347e+002,3.817481e+000
2.439989e+002,2.647742e+000
2.449632e+002,1.316809e+000
2.459274e+002,-3.464355e-001
2.468916e+002,-1.711298e+000
2.478559e+002,-1.300977e+000
2.488201e+002,2.376831e-001
2.497843e+002,1.556177e+000
2.507486e+002,1.047528e+000
2.517128e+002,-1.918524e+000
2.526770e+002,-2.672870e+000
2.536413e+002,-3.482849e-001
2.546055e+002,3.289783e+000
2.555697e+002,5.469409e+000
2.565340e+002,4.893701e+000
2.574982e+002,4.476080e+000
2.584625e+002,4.331763e+000
2.594267e+002,4.587830e+000
2.603909e+002,5.474860e+000
2.613552e+002,8.172785e+000
2.623194e+002,1.008139e+001
2.632836e+002,9.573400e+000
2.642479e+002,7.252832e+000
2.652121e+002,4.597101e+000
2.661763e+002,3.789008e+000
2.671406e+002,4.199768e+000
2.681048e+002,5.117200e+000
2.690690e+002,6.337420e+000
2.700333e+002,7.555371e+000
2.709975e+002,7.410559e+000
2.719617e+002,5.417175e+000
2.729260e+002,3.856641e+000
2.738902e+002,3.384058e+000
2.748544e+002,3.988031e+000
2.758187e+002,4.411841e+000
2.767829e+002,4.733191e+000
2.777471e+002,4.655688e+000
2.787114e+002,3.995233e+000
2.796756e+002,2.778449e+000
2.806398e+002,1.476080e+000
2.816041e+002,-1.950073e-001
2.825683e+002,-1.503125e+000
2.835325e+002,-1.755890e+000
2.844968e+002,-7.532837e-001
2.854610e+002,7.777405e-001
2.864252e+002,6.678955e-001
2.873895e+002,-1.857178e-001
2.883537e+002,-2.149963e-001
2.893179e+002,1.603565e+000
2.902822e+002,5.456726e+000
2.912464e+002,7.540497e+000
2.922106e+002,8.017713e+000
2.931749e+002,7.426538e+000
2.941391e+002,5.670117e+000
2.951033e+002,1.895795e+000
2.960676e+002,-3.503601e-001
2.970318e+002,1.263916e-001
2.979960e+002,1.254309e+000
2.989603e+002,1.460150e+000
2.999245e+002,-2.240662e-001
3.008887e+002,-1.694592e+000
3.018530e+002,-1.604767e+000
3.028172e+002,-5.552124e-001
3.037814e+002,1.263226e+000
3.047457e+002,3.763544e+000
3.057099e+002,6.203430e+000
3.066741e+002,6.300421e+000
3.076384e+002,4.485315e+000
3.086026e+002,2.175824e+000
3.095668e+002,9.730530e-001
3.105311e+002,1.460333e+000
3.114953e+002,1.470801e+000
3.124595e+002,6.672485e-001
3.134238e+002,-4.275330e-001
3.143880e+002,-1.271094e+000
3.153522e+002,-2.011444e+000
3.163165e+002,-2.104962e+000
3.172807e+002,-1.247491e+000
3.182449e+002,1.977966e-001
3.192092e+002,1.894177e+000
3.201734e+002,3.793738e+000
3.211376e+002,5.389472e+000
3.221019e+002,6.569891e+000
3.230661e+002,7.286878e+000
3.240303e+002,7.370227e+000
3.249946e+002,6.496588e+000
3.259588e+002,4.867493e+000
3.269230e+002,4.075976e+000
3.278873e+002,4.143225e+000
3.288515e+002,4.682794e+000
3.298157e+002,4.997839e+000
3.307800e+002,4.460327e+000
3.317442e+002,5.178186e+000
3.327084e+002,7.721442e+000
3.336727e+002,1.123895e+001
3.346369e+002,1.438868e+001
3.356011e+002,1.725444e+001
3.365654e+002,1.909594e+001
3.375296e+002,1.933755e+001
3.384938e+002,1.864016e+001
3.394581e+002,1.776847e+001
3.404223e+002,1.665985e+001
3.413865e+002,1.680862e+001
3.423508e+002,1.983902e+001
3.433150e+002,2.519482e+001
3.442792e+002,3.144630e+001
3.452435e+002,3.630244e+001
3.462077e+002,3.989101e+001
3.471719e+002,4.528538e+001
3.481362e+002,5.221387e+001
3.491004e+002,6.149721e+001
3.500646e+002,7.498981e+001
3.510289e+002,9.161892e+001
3.519931e+002,1.161600e+002
3.529573e+002,1.511231e+002
3.539216e+002,1.933557e+002
3.548858e+002,2.392685e+002
3.558500e+002,3.020182e+002
3.568143e+002,3.458998e+002
3.577785e+002,3.584066e+002
3.587427e+002,3.445905e+002
3.597070e+002,3.128661e+002
3.606712e+002,2.643215e+002
3.616354e+002,2.103415e+002
3.625997e+002,1.641927e+002
3.635639e+002,1.269939e+002
3.645281e+002,9.845624e+001
3.654924e+002,7.788071e+001
3.664566e+002,6.771501e+001
3.674208e+002,5.865474e+001
3.683851e+002,5.064775e+001
3.693493e+002,4.370189e+001
3.703135e+002,3.794439e+001
3.712778e+002,3.435465e+001
3.722420e+002,3.111464e+001
3.732062e+002,2.783134e+001
3.741705e+002,2.483308e+001
3.751347e+002,2.265762e+001
3.760989e+002,2.177714e+001
3.770632e+002,2.170475e+001
3.780274e+002,2.284377e+001
3.789916e+002,2.431323e+001
3.799559e+002,2.473823e+001
3.809201e+002,2.228700e+001
3.818844e+002,1.828782e+001
3.828486e+002,1.646550e+001
3.838128e+002,1.674083e+001
3.847771e+002,1.817814e+001
3.857413e+002,1.937201e+001
3.867055e+002,2.015383e+001
3.876698e+002,2.130823e+001
3.886340e+002,2.311937e+001
3.895982e+002,2.506137e+001
3.905625e+002,2.657137e+001
3.915267e+002,2.797033e+001
3.924909e+002,2.808227e+001
3.934552e+002,2.582764e+001
3.944194e+002,2.278939e+001
3.953836e+002,2.067484e+001
3.963479e+002,2.066388e+001
3.973121e+002,2.145192e+001
3.982763e+002,2.180324e+001
3.992406e+002,2.190488e+001
4.002048e+002,2.187996e+001
4.011690e+002,2.180865e+001
4.021333e+002,2.185361e+001
4.030975e+002,2.310418e+001
4.040617e+002,2.558399e+001
4.050260e+002,2.815905e+001
4.059902e+002,2.942454e+001
4.069544e+002,2.809039e+001
4.079187e+002,2.935021e+001
4.088829e+002,3.365237e+001
4.098471e+002,3.937889e+001
4.108114e+002,4.542443e+001
4.117756e+002,5.155474e+001
4.127398e+002,5.829600e+001
4.137041e+002,6.792176e+001
4.146683e+002,7.685958e+001
4.156325e+002,8.263924e+001
4.165968e+002,8.394267e+001
4.175610e+002,8.141978e+001
4.185252e+002,7.418920e+001
4.194895e+002,6.512968e+001
4.204537e+002,5.792529e+001
4.214179e+002,5.488256e+001
4.223822e+002,5.574199e+001
4.233464e+002,5.565618e+001
4.243106e+002,5.371024e+001
4.252749e+002,5.331972e+001
4.262391e+002,5.634331e+001
4.272033e+002,6.309404e+001
4.281676e+002,7.094746e+001
4.291318e+002,7.854846e+001
4.300960e+002,8.830505e+001
4.310603e+002,9.999834e+001
4.320245e+002,1.139339e+002
4.329887e+002,1.326107e+002
4.339530e+002,1.637666e+002
4.349172e+002,1.969586e+002
4.358814e+002,2.303140e+002
4.368457e+002,2.613026e+002
4.378099e+002,2.864629e+002
4.387741e+002,2.975305e+002
4.397384e+002,2.960807e+002
4.407026e+002,2.860052e+002
4.416668e+002,2.673160e+002
4.426311e+002,2.423281e+002
4.435953e+002,2.188180e+002
4.445595e+002,1.952374e+002
4.455238e+002,1.758626e+002
4.464880e+002,1.614596e+002
4.474522e+002,1.513246e+002
4.484165e+002,1.446289e+002
4.493807e+002,1.456761e+002
4.503449e+002,1.443295e+002
4.513092e+002,1.367148e+002
4.522734e+002,1.249742e+002
4.532376e+002,1.121815e+002
4.542019e+002,1.004288e+002
4.551661e+002,8.992231e+001
4.561303e+002,7.998128e+001
4.570946e+002,7.095476e+001
4.580588e+002,6.355426e+001
4.590230e+002,5.856605e+001
4.599873e+002,5.631469e+001
4.609515e+002,5.479016e+001
4.619157e+002,5.390208e+001
4.628800e+002,5.353791e+001
4.638442e+002,5.355684e+001
4.648084e+002,5.385072e+001
4.657727e+002,5.501971e+001
4.667369e+002,5.716412e+001
4.677011e+002,5.996465e+001
4.686654e+002,6.394957e+001
4.696296e+002,6.936189e+001
4.705938e+002,7.297377e+001
4.715581e+002,7.113499e+001
4.725223e+002,6.746297e+001
4.734865e+002,6.414060e+001
4.744508e+002,6.208143e+001
4.754150e+002,6.061123e+001
4.763792e+002,5.787141e+001
4.773435e+002,5.426655e+001
4.783077e+002,5.080965e+001
4.792719e+002,4.786508e+001
4.802362e+002,4.533483e+001
4.812004e+002,4.256280e+001
4.821646e+002,3.853819e+001
4.831289e+002,3.542512e+001
4.840931e+002,3.388309e+001
4.850573e+002,3.334196e+001
4.860216e+002,3.230085e+001
4.869858e+002,3.003986e+001
4.879500e+002,2.790261e+001
4.889143e+002,2.613694e+001
4.898785e+002,2.475428e+001
4.908427e+002,2.370062e+001
4.918070e+002,2.289460e+001
4.927712e+002,2.247924e+001
4.937354e+002,2.270414e+001
4.946997e+002,2.338981e+001
4.956639e+002,2.398685e+001
4.966281e+002,2.390931e+001
4.975924e+002,2.306234e+001
4.985566e+002,2.386483e+001
4.995208e+002,2.647462e+001
5.004851e+002,2.987655e+001
5.014493e+002,3.362700e+001
5.024135e+002,3.794694e+001
5.033778e+002,4.155997e+001
5.043420e+002,4.443172e+001
5.053063e+002,4.685496e+001
5.062705e+002,4.929124e+001
5.072347e+002,5.160557e+001
5.081990e+002,5.236156e+001
5.091632e+002,4.903975e+001
5.101274e+002,4.418250e+001
5.110917e+002,3.841227e+001
5.120559e+002,3.236889e+001
5.130201e+002,2.693962e+001
5.139844e+002,2.410135e+001
5.149486e+002,2.363809e+001
5.159128e+002,2.257986e+001
5.168771e+002,2.052470e+001
5.178413e+002,1.787610e+001
5.188055e+002,1.550380e+001
5.197698e+002,1.361339e+001
5.207340e+002,1.166497e+001
5.216982e+002,9.497333e+000
5.226625e+002,7.326593e+000
5.236267e+002,5.289649e+000
5.245909e+002,3.222638e+000
5.255552e+002,1.981915e+000
5.265194e+002,2.183875e+000
5.274836e+002,3.038354e+000
5.284479e+002,4.037561e+000
5.294121e+002,4.878168e+000
5.303763e+002,5.457489e+000
5.313406e+002,5.230841e+000
5.323048e+002,4.508075e+000
5.332690e+002,3.849414e+000
5.342333e+002,3.517169e+000
5.351975e+002,3.527069e+000
5.361617e+002,3.961591e+000
5.371260e+002,5.493567e+000
5.380902e+002,6.508191e+000
5.390544e+002,6.322180e+000
5.400187e+002,5.290790e+000
5.409829e+002,4.681872e+000
5.419471e+002,5.417047e+000
5.429114e+002,5.926886e+000
5.438756e+002,5.593713e+000
5.448398e+002,4.770495e+000
5.458041e+002,3.999902e+000
5.467683e+002,3.641443e+000
5.477325e+002,3.660034e+000
5.486968e+002,4.014935e+000
5.496610e+002,4.551904e+000
5.506252e+002,4.972327e+000
5.515895e+002,5.028528e+000
5.525537e+002,4.720685e+000
5.535179e+002,4.596875e+000
5.544822e+002,4.772345e+000
5.554464e+002,4.889038e+000
5.564106e+002,4.867822e+000
5.573749e+002,4.684705e+000
5.583391e+002,3.885425e+000
5.593033e+002,1.528424e+000
5.602676e+002,-4.499939e-001
5.612318e+002,-1.617822e+000
5.621960e+002,-1.962042e+000
5.631603e+002,-1.577478e+000
5.641245e+002,1.718323e-001
5.650887e+002,1.795349e+000
5.660530e+002,1.836810e+000
5.670172e+002,7.319275e-001
5.679814e+002,-4.435669e-001
5.689457e+002,-5.218811e-001
5.699099e+002,3.944885e-001
5.708741e+002,6.601440e-001
5.718384e+002,3.068848e-001
5.728026e+002,-3.828735e-001
5.737668e+002,-1.472797e+000
5.747311e+002,-3.301746e+000
5.756953e+002,-3.797498e+000
5.766595e+002,-1.797382e+000
5.776238e+002,1.082642e-001
5.785880e+002,7.389526e-001
5.795522e+002,1.621704e-001
5.805165e+002,-2.484863e-001
5.814807e+002,1.073608e+000
5.824449e+002,2.253937e+000
5.834092e+002,1.911023e+000
5.843734e+002,3.995056e-001
5.853376e+002,-1.062286e+000
5.863019e+002,-9.794312e-001
5.872661e+002,3.522156e-001
5.882303e+002,7.252442e-001
5.891946e+002,1.092590e-001
5.901588e+002,-4.378357e-001
5.911230e+002,4.222351e-001
5.920873e+002,3.597907e+000
5.930515e+002,4.333051e+000
5.940157e+002,8.870972e-001
5.949800e+002,-2.371192e+000
5.959442e+002,-2.912848e+000
5.969084e+002,-6.911133e-001
5.978727e+002,1.135657e+000
5.988369e+002,2.138611e-001
5.998011e+002,-1.020184e+000
6.007654e+002,-1.958044e+000
6.017296e+002,-2.347748e+000
6.026938e+002,-1.986804e+000
6.036581e+002,-3.853272e-001
6.046223e+002,1.815692e+000
6.055865e+002,2.765845e+000
6.065508e+002,2.539502e+000
6.075150e+002,1.939911e+000
6.084792e+002,1.841296e+000
6.094435e+002,2.443347e+000
6.104077e+002,2.593231e+000
6.113719e+002,1.455463e+000
6.123362e+002,7.838501e-001
6.133004e+002,1.925287e+000
6.142646e+002,4.861829e+000
6.152289e+002,6.986115e+000
6.161931e+002,5.993256e+000
6.171573e+002,5.045129e+000
6.181216e+002,5.494800e+000
6.190858e+002,7.085797e+000
6.200500e+002,8.661896e+000
6.210143e+002,9.002478e+000
6.219785e+002,8.714765e+000
6.229427e+002,9.115692e+000
6.239070e+002,1.013408e+001
6.248712e+002,1.150136e+001
6.258354e+002,1.299580e+001
6.267997e+002,1.469371e+001
6.277639e+002,1.642510e+001
6.287281e+002,1.855476e+001
6.296924e+002,2.016319e+001
6.306566e+002,2.078864e+001
6.316208e+002,2.048129e+001
6.325851e+002,1.982815e+001
6.335493e+002,1.849113e+001
6.345135e+002,1.742899e+001
6.354778e+002,1.682888e+001
6.364420e+002,1.668198e+001
6.374063e+002,1.704217e+001
6.383705e+002,1.819556e+001
6.393347e+002,1.929740e+001
6.402990e+002,1.891809e+001
6.412632e+002,1.752891e+001
6.422274e+002,1.615314e+001
6.431917e+002,1.555154e+001
6.441559e+002,1.566188e+001
6.451201e+002,1.534861e+001
6.460844e+002,1.456186e+001
6.470486e+002,1.356743e+001
6.480128e+002,1.214028e+001
6.489771e+002,1.050056e+001
6.499413e+002,9.647394e+000
6.509055e+002,1.091780e+001
6.518698e+002,1.138619e+001
6.528340e+002,9.464984e+000
6.537982e+002,6.700995e+000
6.547625e+002,5.215600e+000
6.557267e+002,6.360816e+000
6.566909e+002,8.348267e+000
6.576552e+002,8.407995e+000
6.586194e+002,7.432220e+000
6.595836e+002,6.755798e+000
6.605479e+002,7.050488e+000
6.615121e+002,8.010839e+000
6.624763e+002,8.219086e+000
6.634406e+002,7.244977e+000
6.644048e+002,6.589063e+000
6.653690e+002,6.358032e+000
6.663333e+002,6.486743e+000
6.672975e+002,6.953803e+000
6.682617e+002,7.992340e+000
6.692260e+002,9.110242e+000
6.701902e+002,1.068500e+001
6.711544e+002,1.194629e+001
6.721187e+002,1.207547e+001
6.730829e+002,1.082227e+001
6.740471e+002,9.056726e+000
6.750114e+002,7.215863e+000
6.759756e+002,5.979877e+000
6.769398e+002,6.829309e+000
6.779041e+002,9.786432e+000
6.788683e+002,1.318019e+001
6.798325e+002,1.394601e+001
6.807968e+002,1.106451e+001
6.817610e+002,9.087402e+000
6.827252e+002,8.063977e+000
6.836895e+002,7.818823e+000
6.846537e+002,8.408972e+000
6.856179e+002,1.000941e+001
6.865822e+002,1.132946e+001
6.875464e+002,1.237877e+001
6.885106e+002,1.284384e+001
6.894749e+002,1.205600e+001
6.904391e+002,1.042544e+001
6.914034e+002,9.233130e+000
6.923676e+002,9.759875e+000
6.933318e+002,1.134270e+001
6.942961e+002,1.321569e+001
6.952603e+002,1.516442e+001
6.962245e+002,1.661068e+001
6.971888e+002,1.699496e+001
6.981530e+002,1.626495e+001
6.991172e+002,1.609213e+001
7.000815e+002,1.627479e+001
7.010457e+002,1.704550e+001
7.020099e+002,1.896860e+001
7.029742e+002,2.175262e+001
7.039384e+002,2.384096e+001
7.049026e+002,2.420789e+001
7.058669e+002,2.471079e+001
7.068311e+002,2.609309e+001
7.077953e+002,2.777076e+001
7.087596e+002,2.912090e+001
7.097238e+002,2.986585e+001
7.106880e+002,2.998965e+001
7.116523e+002,2.884044e+001
7.126165e+002,2.713350e+001
7.135807e+002,2.604046e+001
7.145450e+002,2.602212e+001
7.155092e+002,2.666698e+001
7.164734e+002,2.678928e+001
7.174377e+002,2.589249e+001
7.184019e+002,2.555591e+001
7.193661e+002,2.674691e+001
7.203304e+002,2.779710e+001
7.212946e+002,2.656732e+001
7.222589e+002,2.225248e+001
7.232231e+002,1.890143e+001
7.241873e+002,1.838035e+001
7.251516e+002,1.857515e+001
7.261158e+002,1.849789e+001
7.270800e+002,1.797911e+001
7.280443e+002,1.743243e+001
7.290085e+002,1.732166e+001
7.299727e+002,1.753237e+001
7.309370e+002,1.784225e+001
7.319012e+002,1.819977e+001
7.328654e+002,1.832180e+001
7.338297e+002,1.792881e+001
7.347939e+002,1.698681e+001
7.357581e+002,1.606330e+001
7.367224e+002,1.469164e+001
7.376866e+002,1.389024e+001
7.386508e+002,1.414263e+001
7.396151e+002,1.517140e+001
7.405793e+002,1.623612e+001
7.415435e+002,1.724037e+001
7.425078e+002,1.816376e+001
7.434720e+002,1.927710e+001
7.444362e+002,2.011775e+001
7.454005e+002,1.985647e+001
7.463647e+002,1.824700e+001
7.473289e+002,1.648468e+001
7.482932e+002,1.744289e+001
7.492574e+002,2.008397e+001
7.502216e+002,2.187754e+001
7.511859e+002,2.222503e+001
7.521501e+002,2.147700e+001
7.531143e+002,2.018548e+001
7.540786e+002,1.775979e+001
7.550428e+002,1.646401e+001
7.560070e+002,1.635651e+001
7.569713e+002,1.700765e+001
7.579355e+002,1.849746e+001
7.588997e+002,2.068493e+001
7.598640e+002,2.259496e+001
7.608282e+002,2.396786e+001
7.617924e+002,2.460809e+001
7.627567e+002,2.393060e+001
7.637209e+002,2.247898e+001
7.646851e+002,2.113025e+001
7.656494e+002,2.058267e+001
7.666136e+002,2.078425e+001
7.675778e+002,2.190522e+001
7.685421e+002,2.380751e+001
7.695063e+002,2.509519e+001
7.704705e+002,2.482383e+001
7.714348e+002,2.355867e+001
7.723990e+002,2.365248e+001
7.733632e+002,2.666898e+001
7.743275e+002,2.858560e+001
7.752917e+002,2.858210e+001
7.762559e+002,2.787762e+001
7.772202e+002,2.726429e+001
7.781844e+002,2.694177e+001
7.791486e+002,2.733250e+001
7.801129e+002,3.032324e+001
7.810771e+002,3.321115e+001
7.820413e+002,3.357125e+001
7.830056e+002,3.171772e+001
7.839698e+002,2.976913e+001
7.849340e+002,3.016365e+001
7.858983e+002,3.282610e+001
7.868625e+002,3.466962e+001
7.878267e+002,3.550819e+001
7.887910e+002,3.628994e+001
7.897552e+002,3.759173e+001
7.907194e+002,3.935753e+001
7.916837e+002,4.101624e+001
7.926479e+002,4.323350e+001
7.936121e+002,4.417811e+001
7.945764e+002,4.228469e+001
7.955406e+002,3.958282e+001
7.965048e+002,3.838852e+001
7.974691e+002,3.966454e+001
7.984333e+002,4.198140e+001
7.993975e+002,4.364042e+001
8.003618e+002,4.504552e+001
8.013260e+002,4.642391e+001
8.022902e+002,4.792504e+001
8.032545e+002,4.998861e+001
8.042187e+002,5.337986e+001
8.051829e+002,5.856359e+001
8.061472e+002,6.243900e+001
8.071114e+002,6.445785e+001
8.080756e+002,6.597855e+001
8.090399e+002,6.713147e+001
8.100041e+002,6.818542e+001
8.109683e+002,7.082726e+001
8.119326e+002,7.677712e+001
8.128968e+002,8.277444e+001
8.138610e+002,8.761731e+001
8.148253e+002,9.180349e+001
8.157895e+002,9.569521e+001
8.167537e+002,9.956653e+001
8.177180e+002,1.039333e+002
8.186822e+002,1.106140e+002
8.196464e+002,1.185291e+002
8.206107e+002,1.252665e+002
8.215749e+002,1.302094e+002
8.225391e+002,1.338573e+002
8.235034e+002,1.372056e+002
8.244676e+002,1.410624e+002
8.254318e+002,1.415251e+002
8.263961e+002,1.379536e+002
8.273603e+002,1.331847e+002
8.283245e+002,1.277768e+002
8.292888e+002,1.220537e+002
8.302530e+002,1.168929e+002
8.312172e+002,1.129325e+002
8.321815e+002,1.093564e+002
8.331457e+002,1.059667e+002
8.341099e+002,1.025544e+002
8.350742e+002,9.847124e+001
8.360384e+002,9.353856e+001
8.370026e+002,8.865858e+001
8.379669e+002,8.617735e+001
8.389311e+002,8.620072e+001
8.398953e+002,8.519198e+001
8.408596e+002,8.261726e+001
8.418238e+002,7.918369e+001
8.427880e+002,7.546051e+001
8.437523e+002,7.120210e+001
8.447165e+002,6.805061e+001
8.456807e+002,6.767155e+001
8.466450e+002,6.682413e+001
8.476092e+002,6.376065e+001
8.485734e+002,5.932353e+001
8.495377e+002,5.548518e+001
8.505019e+002,5.341241e+001
8.514661e+002,5.247687e+001
8.524304e+002,5.240120e+001
8.533946e+002,5.254634e+001
8.543588e+002,5.153765e+001
8.553231e+002,4.892012e+001
8.562873e+002,4.590317e+001
8.572515e+002,4.521803e+001
8.582158e+002,4.813720e+001
8.591800e+002,4.946530e+001
8.601442e+002,4.814743e+001
8.611085e+002,4.635743e+001
8.620727e+002,4.550070e+001
8.630369e+002,4.560855e+001
8.640012e+002,4.586894e+001
8.649654e+002,4.584655e+001
8.659296e+002,4.609867e+001
8.668939e+002,4.715488e+001
8.678581e+002,4.852145e+001
8.688223e+002,4.955305e+001
8.697866e+002,4.991256e+001
8.707508e+002,4.983097e+001
8.717150e+002,4.962540e+001
8.726793e+002,4.934769e+001
8.736435e+002,4.951408e+001
8.746077e+002,5.047066e+001
8.755720e+002,5.111759e+001
8.765362e+002,4.974053e+001
8.775004e+002,4.566748e+001
8.784647e+002,4.254038e+001
8.794289e+002,4.043023e+001
8.803931e+002,3.911417e+001
8.813574e+002,3.902038e+001
8.823216e+002,3.958115e+001
8.832858e+002,3.979584e+001
8.842501e+002,3.923130e+001
8.852143e+002,3.837464e+001
8.861785e+002,3.785328e+001
8.871428e+002,3.719967e+001
8.881070e+002,3.560439e+001
8.890712e+002,3.299642e+001
8.900355e+002,3.024026e+001
8.909997e+002,2.876458e+001
8.919639e+002,2.884060e+001
8.929282e+002,2.847209e+001
8.938924e+002,2.710850e+001
8.948566e+002,2.606188e+001
8.958209e+002,2.642136e+001
8.967851e+002,2.774442e+001
8.977493e+002,2.800625e+001
8.987136e+002,2.589219e+001
8.996778e+002,2.408764e+001
9.006420e+002,2.397968e+001
9.016063e+002,2.440456e+001
9.025705e+002,2.435953e+001
9.035347e+002,2.353382e+001
9.044990e+002,2.221648e+001
9.054632e+002,2.049285e+001
9.064274e+002,1.865571e+001
9.073917e+002,1.799168e+001
9.083559e+002,1.860047e+001
9.093201e+002,1.941378e+001
9.102844e+002,1.980085e+001
9.112486e+002,1.972124e+001
9.122128e+002,1.856244e+001
9.131771e+002,1.432549e+001
9.141413e+002,1.168704e+001
9.151055e+002,1.215962e+001
9.160698e+002,1.371092e+001
9.170340e+002,1.426443e+001
9.179982e+002,1.335148e+001
9.189625e+002,1.238575e+001
9.199267e+002,1.275845e+001
9.208909e+002,1.349477e+001
9.218552e+002,1.371739e+001
9.228194e+002,1.344644e+001
9.237836e+002,1.294464e+001
9.247479e+002,1.241302e+001
9.257121e+002,1.186855e+001
9.266763e+002,1.141024e+001
9.276406e+002,1.109287e+001
9.286048e+002,1.071387e+001
9.295690e+002,1.021173e+001
9.305333e+002,9.672195e+000
9.314975e+002,9.168490e+000
9.324617e+002,8.695658e+000
9.334260e+002,8.297049e+000
9.343902e+002,7.874200e+000
9.353545e+002,7.652518e+000
9.363187e+002,7.939807e+000
9.372830e+002,8.469522e+000
9.382472e+002,8.778674e+000
9.392114e+002,8.599924e+000
9.401757e+002,8.163580e+000
9.411399e+002,7.875732e+000
9.421041e+002,7.699725e+000
9.430684e+002,7.706619e+000
9.440326e+002,7.894281e+000
9.449968e+002,8.217087e+000
9.459611e+002,8.676905e+000
9.469253e+002,9.339282e+000
9.478895e+002,1.007144e+001
9.488538e+002,1.073469e+001
9.498180e+002,1.156854e+001
9.507822e+002,1.299300e+001
9.517465e+002,1.446316e+001
9.527107e+002,1.514815e+001
9.536749e+002,1.471952e+001
9.546392e+002,1.396567e+001
9.556034e+002,1.348437e+001
9.565676e+002,1.339106e+001
9.575319e+002,1.427238e+001
9.584961e+002,1.605642e+001
9.594603e+002,1.760885e+001
9.604246e+002,1.763355e+001
9.613888e+002,1.609461e+001
9.623530e+002,1.553183e+001
9.633173e+002,1.555037e+001
9.642815e+002,1.704613e+001
9.652457e+002,2.054740e+001
9.662100e+002,2.546980e+001
9.671742e+002,3.091771e+001
9.681384e+002,3.665567e+001
9.691027e+002,4.371252e+001
9.700669e+002,5.171491e+001
9.710311e+002,6.242014e+001
9.719954e+002,8.200043e+001
9.729596e+002,1.052002e+002
9.739238e+002,1.202868e+002
9.748881e+002,1.193383e+002
9.758523e+002,1.063968e+002
9.768165e+002,9.430607e+001
9.777808e+002,8.312761e+001
9.787450e+002,7.285683e+001
9.797092e+002,6.352855e+001
9.806735e+002,5.511897e+001
9.816377e+002,4.733078e+001
9.826019e+002,4.015811e+001
9.835662e+002,3.508910e+001
9.845304e+002,3.403140e+001
9.854946e+002,3.359145e+001
9.864589e+002,3.255144e+001
9.874231e+002,3.148716e+001
9.883873e+002,3.119852e+001
9.893516e+002,3.193967e+001
9.903158e+002,3.327484e+001
9.912800e+002,3.469790e+001
9.922443e+002,3.640232e+001
9.932085e+002,3.854502e+001
9.941727e+002,4.111653e+001
9.951370e+002,4.457961e+001
9.961012e+002,4.866945e+001
9.970654e+002,5.353091e+001
9.980297e+002,6.116913e+001
9.989939e+002,6.922176e+001
9.999581e+002,8.529148e+001
1.000922e+003,1.059842e+002
1.001887e+003,1.374872e+002
1.002851e+003,1.882923e+002
1.003815e+003,2.558308e+002
1.004779e+003,3.311029e+002
1.005744e+003,4.202003e+002
1.006708e+003,4.895258e+002
1.007672e+003,4.863782e+002
1.008636e+003,4.307619e+002
1.009600e+003,3.605653e+002
1.010565e+003,2.914963e+002
1.011529e+003,2.273017e+002
1.012493e+003,1.766756e+002
1.013457e+003,1.424335e+002
1.014422e+003,1.152351e+002
1.015386e+003,9.579968e+001
1.016350e+003,8.047026e+001
1.017314e+003,6.890211e+001
1.018279e+003,6.006289e+001
1.019243e+003,5.234318e+001
1.020207e+003,4.524833e+001
1.021171e+003,3.936248e+001
1.022135e+003,3.569285e+001
1.023100e+003,3.313200e+001
1.024064e+003,3.100186e+001
1.025028e+003,2.906591e+001
1.025992e+003,2.723447e+001
1.026957e+003,2.543312e+001
1.027921e+003,2.372394e+001
1.028885e+003,2.225975e+001
1.029849e+003,2.106520e+001
1.030814e+003,2.006284e+001
1.031778e+003,1.902257e+001
1.032742e+003,1.821364e+001
1.033706e+003,1.814552e+001
1.034671e+003,1.884728e+001
1.035635e+003,1.928190e+001
1.036599e+003,1.898940e+001
1.037563e+003,1.837773e+001
1.038527e+003,1.762566e+001
1.039492e+003,1.671535e+001
1.040456e+003,1.521054e+001
1.041420e+003,1.321445e+001
1.042384e+003,1.195275e+001
1.043349e+003,1.345248e+001
1.044313e+003,1.761657e+001
1.045277e+003,1.945231e+001
1.046241e+003,1.834482e+001
1.047206e+003,1.705637e+001
1.048170e+003,1.704060e+001
1.049134e+003,1.774733e+001
1.050098e+003,1.764490e+001
1.051063e+003,1.613122e+001
1.052027e+003,1.553308e+001
1.052991e+003,1.769027e+001
1.053955e+003,1.973072e+001
1.054919e+003,2.002759e+001
1.055884e+003,1.887044e+001
1.056848e+003,1.717965e+001
1.057812e+003,1.554600e+001
1.058776e+003,1.423925e+001
1.059741e+003,1.380485e+001
1.060705e+003,1.414292e+001
1.061669e+003,1.493758e+001
1.062633e+003,1.650183e+001
1.063598e+003,1.750071e+001
1.064562e+003,1.619102e+001
1.065526e+003,1.284665e+001
1.066490e+003,1.104727e+001
1.067454e+003,1.170106e+001
1.068419e+003,1.295814e+001
1.069383e+003,1.533253e+001
1.070347e+003,1.726320e+001
1.071311e+003,1.702596e+001
1.072276e+003,1.497500e+001
1.073240e+003,1.333054e+001
1.074204e+003,1.390053e+001
1.075168e+003,1.555746e+001
1.076133e+003,1.560995e+001
1.077097e+003,1.446975e+001
1.078061e+003,1.344577e+001
1.079025e+003,1.290762e+001
1.079990e+003,1.268602e+001
1.080954e+003,1.247058e+001
1.081918e+003,1.218368e+001
1.082882e+003,1.247460e+001
1.083846e+003,1.426690e+001
1.084811e+003,1.554883e+001
1.085775e+003,1.574143e+001
1.086739e+003,1.533514e+001
1.087703e+003,1.473637e+001
1.088668e+003,1.414960e+001
1.089632e+003,1.382157e+001
1.090596e+003,1.397497e+001
1.091560e+003,1.442988e+001
1.092525e+003,1.479478e+001
1.093489e+003,1.509094e+001
1.094453e+003,1.554223e+001
1.095417e+003,1.631426e+001
1.096381e+003,1.714215e+001
1.097346e+003,1.734523e+001
1.098310e+003,1.652271e+001
1.099274e+003,1.651419e+001
1.100238e+003,1.863100e+001
1.101203e+003,1.997167e+001
1.102167e+003,1.894445e+001
1.103131e+003,1.694612e+001
1.104095e+003,1.589069e+001
1.105060e+003,1.628012e+001
1.106024e+003,1.709305e+001
1.106988e+003,1.760720e+001
1.107952e+003,1.796320e+001
1.108917e+003,1.838019e+001
1.109881e+003,1.880389e+001
1.110845e+003,1.901147e+001
1.111809e+003,1.884877e+001
1.112773e+003,1.848381e+001
1.113738e+003,1.840779e+001
1.114702e+003,1.894394e+001
1.115666e+003,1.897839e+001
1.116630e+003,1.781345e+001
1.117595e+003,1.698887e+001
1.118559e+003,1.706352e+001
1.119523e+003,1.779496e+001
1.120487e+003,1.901735e+001
1.121452e+003,2.066231e+001
1.122416e+003,2.194559e+001
1.123380e+003,2.206207e+001
1.124344e+003,2.137610e+001
1.125308e+003,2.015649e+001
1.126273e+003,1.869062e+001
1.127237e+003,1.788814e+001
1.128201e+003,1.827627e+001
1.129165e+003,1.934662e+001
1.130130e+003,1.986136e+001
1.131094e+003,1.943398e+001
1.132058e+003,1.952756e+001
1.133022e+003,2.114858e+001
1.133987e+003,2.200249e+001
1.134951e+003,2.047330e+001
1.135915e+003,1.818377e+001
1.136879e+003,1.769241e+001
1.137844e+003,1.958442e+001
1.138808e+003,2.160756e+001
1.139772e+003,2.173876e+001
1.140736e+003,2.108284e+001
1.141700e+003,2.135780e+001
1.142665e+003,2.233107e+001
1.143629e+003,2.305792e+001
1.144593e+003,2.307435e+001
1.145557e+003,2.280662e+001
1.146522e+003,2.309812e+001
1.147486e+003,2.414082e+001
1.148450e+003,2.458488e+001
1.149414e+003,2.361513e+001
1.150379e+003,2.329477e+001
1.151343e+003,2.498920e+001
1.152307e+003,2.714882e+001
1.153271e+003,2.756519e+001
1.154235e+003,2.594345e+001
1.155200e+003,2.442437e+001
1.156164e+003,2.461103e+001
1.157128e+003,2.581581e+001
1.158092e+003,2.719439e+001
1.159057e+003,2.856453e+001
1.160021e+003,2.935563e+001
1.160985e+003,2.931865e+001
1.161949e+003,2.904079e+001
1.162914e+003,2.948231e+001
1.163878e+003,3.079360e+001
1.164842e+003,3.168262e+001
1.165806e+003,3.187059e+001
1.166771e+003,3.188161e+001
1.167735e+003,3.159832e+001
1.168699e+003,3.130639e+001
1.169663e+003,3.103333e+001
1.170627e+003,3.094034e+001
1.171592e+003,3.164311e+001
1.172556e+003,3.372060e+001
1.173520e+003,3.626597e+001
1.174484e+003,3.795754e+001
1.175449e+003,3.905790e+001
1.176413e+003,3.992953e+001
1.177377e+003,4.063358e+001
1.178341e+003,4.147839e+001
1.179306e+003,4.299638e+001
1.180270e+003,4.507491e+001
1.181234e+003,4.595283e+001
1.182198e+003,4.477345e+001
1.183162e+003,4.371966e+001
1.184127e+003,4.289361e+001
1.185091e+003,4.232620e+001
1.186055e+003,4.214924e+001
1.187019e+003,4.229744e+001
1.187984e+003,4.266361e+001
1.188948e+003,4.317700e+001
1.189912e+003,4.352151e+001
1.190876e+003,4.340951e+001
1.191841e+003,4.278938e+001
1.192805e+003,4.139663e+001
1.193769e+003,3.923807e+001
1.194733e+003,3.722767e+001
1.195698e+003,3.589291e+001
1.196662e+003,3.506796e+001
1.197626e+003,3.425015e+001
1.198590e+003,3.315635e+001
1.199554e+003,3.306455e+001
1.200519e+003,3.558363e+001
1.201483e+003,3.752650e+001
1.202447e+003,3.755914e+001
1.203411e+003,3.658424e+001
1.204376e+003,3.565661e+001
1.205340e+003,3.506962e+001
1.206304e+003,3.457822e+001
1.207268e+003,3.402926e+001
1.208233e+003,3.359669e+001
1.209197e+003,3.355341e+001
1.210161e+003,3.380494e+001
1.211125e+003,3.425665e+001
1.212089e+003,3.517986e+001
1.213054e+003,3.564567e+001
1.214018e+003,3.414411e+001
1.214982e+003,3.097885e+001
1.215946e+003,2.954507e+001
1.216911e+003,3.094226e+001
1.217875e+003,3.260138e+001
1.218839e+003,3.427865e+001
1.219803e+003,3.533034e+001
1.220768e+003,3.493331e+001
1.221732e+003,3.363240e+001
1.222696e+003,3.276220e+001
1.223660e+003,3.303689e+001
1.224625e+003,3.367731e+001
1.225589e+003,3.315916e+001
1.226553e+003,3.145031e+001
1.227517e+003,3.134974e+001
1.228481e+003,3.355947e+001
1.229446e+003,3.562931e+001
1.230410e+003,3.661554e+001
1.231374e+003,3.670761e+001
1.232338e+003,3.593816e+001
1.233303e+003,3.426700e+001
1.234267e+003,3.323038e+001
1.235231e+003,3.391331e+001
1.236195e+003,3.457734e+001
1.237160e+003,3.385089e+001
1.238124e+003,3.271757e+001
1.239088e+003,3.262476e+001
1.240052e+003,3.370351e+001
1.241016e+003,3.473965e+001
1.241981e+003,3.454107e+001
1.242945e+003,3.350590e+001
1.243909e+003,3.354067e+001
1.244873e+003,3.561313e+001
1.245838e+003,3.640848e+001
1.246802e+003,3.484078e+001
1.247766e+003,3.314764e+001
1.248730e+003,3.227267e+001
1.249695e+003,3.225893e+001
1.250659e+003,3.346881e+001
1.251623e+003,3.614114e+001
1.252587e+003,3.814132e+001
1.253552e+003,3.723162e+001
1.254516e+003,3.573405e+001
1.255480e+003,3.611180e+001
1.256444e+003,3.774659e+001
1.257408e+003,3.917156e+001
1.258373e+003,3.979373e+001
1.259337e+003,3.973640e+001
1.260301e+003,3.904622e+001
1.261265e+003,3.773793e+001
1.262230e+003,3.728614e+001
1.263194e+003,3.837597e+001
1.264158e+003,3.920399e+001
1.265122e+003,3.994811e+001
1.266087e+003,4.016990e+001
1.267051e+003,3.901820e+001
1.268015e+003,3.723071e+001
1.268979e+003,3.669997e+001
1.269943e+003,3.820379e+001
1.270908e+003,3.989305e+001
1.271872e+003,3.947987e+001
1.272836e+003,3.806760e+001
1.273800e+003,3.840536e+001
1.274765e+003,4.040611e+001
1.275729e+003,4.249815e+001
1.276693e+003,4.414921e+001
1.277657e+003,4.516457e+001
1.278622e+003,4.492416e+001
1.279586e+003,4.329487e+001
1.280550e+003,4.241045e+001
1.281514e+003,4.301206e+001
1.282479e+003,4.371933e+001
1.283443e+003,4.441848e+001
1.284407e+003,4.481049e+001
1.285371e+003,4.456890e+001
1.286335e+003,4.377029e+001
1.287300e+003,4.242290e+001
1.288264e+003,4.065055e+001
1.289228e+003,3.963071e+001
1.290192e+003,4.147481e+001
1.291157e+003,4.595971e+001
1.292121e+003,4.794063e+001
1.293085e+003,4.678850e+001
1.294049e+003,4.524839e+001
1.295014e+003,4.404897e+001
1.295978e+003,4.318982e+001
1.296942e+003,4.256556e+001
1.297906e+003,4.222938e+001
1.298870e+003,4.257729e+001
1.299835e+003,4.381765e+001
1.300799e+003,4.537003e+001
1.301763e+003,4.746176e+001
1.302727e+003,4.921369e+001
1.303692e+003,4.961687e+001
1.304656e+003,4.898393e+001
1.305620e+003,4.834652e+001
1.306584e+003,4.828046e+001
1.307549e+003,4.867076e+001
1.308513e+003,4.940991e+001
1.309477e+003,5.063303e+001
1.310441e+003,5.084967e+001
1.311406e+003,4.878658e+001
1.312370e+003,4.765874e+001
1.313334e+003,4.881329e+001
1.314298e+003,5.032222e+001
1.315263e+003,5.025798e+001
1.316227e+003,4.905806e+001
1.317191e+003,4.875276e+001
1.318155e+003,5.025990e+001
1.319120e+003,5.205973e+001
1.320084e+003,5.264943e+001
1.321048e+003,5.222236e+001
1.322012e+003,5.088735e+001
1.322976e+003,4.881810e+001
1.323941e+003,4.798899e+001
1.324905e+003,4.967199e+001
1.325869e+003,5.236468e+001
1.326833e+003,5.386914e+001
1.327798e+003,5.416948e+001
1.328762e+003,5.444233e+001
1.329726e+003,5.511853e+001
1.330690e+003,5.499995e+001
1.331655e+003,5.249220e+001
1.332619e+003,5.043213e+001
1.333583e+003,5.158696e+001
1.334547e+003,5.448768e+001
1.335511e+003,5.578778e+001
1.336476e+003,5.425970e+001
1.337440e+003,5.222868e+001
1.338404e+003,5.268294e+001
1.339368e+003,5.521841e+001
1.340333e+003,5.611034e+001
1.341297e+003,5.472886e+001
1.342261e+003,5.361949e+001
1.343225e+003,5.295148e+001
1.344190e+003,5.278205e+001
1.345154e+003,5.329835e+001
1.346118e+003,5.431703e+001
1.347082e+003,5.563032e+001
1.348047e+003,5.723740e+001
1.349011e+003,5.807601e+001
1.349975e+003,5.726741e+001
1.350939e+003,5.568328e+001
1.351903e+003,5.387794e+001
1.352868e+003,5.217274e+001
1.353832e+003,5.128890e+001
1.354796e+003,5.140835e+001
1.355760e+003,5.219943e+001
1.356725e+003,5.357037e+001
1.357689e+003,5.520878e+001
1.358653e+003,5.548737e+001
1.359617e+003,5.362388e+001
1.360582e+003,5.265105e+001
1.361546e+003,5.355692e+001
1.362510e+003,5.441776e+001
1.363474e+003,5.452598e+001
1.364438e+003,5.446354e+001
1.365403e+003,5.505182e+001
1.366367e+003,5.609764e+001
1.367331e+003,5.643053e+001
1.368295e+003,5.529586e+001
1.369260e+003,5.376582e+001
1.370224e+003,5.387993e+001
1.371188e+003,5.569813e+001
1.372152e+003,5.666876e+001
1.373117e+003,5.638436e+001
1.374081e+003,5.609075e+001
1.375045e+003,5.612099e+001
1.376009e+003,5.645726e+001
1.376974e+003,5.711371e+001
1.377938e+003,5.810909e+001
1.378902e+003,5.962381e+001
1.379866e+003,6.206244e+001
1.380830e+003,6.355555e+001
1.381795e+003,6.142324e+001
1.382759e+003,5.881060e+001
1.383723e+003,5.925170e+001
1.384687e+003,6.168032e+001
1.385652e+003,6.244431e+001
1.386616e+003,6.018739e+001
1.387580e+003,5.752021e+001
1.388544e+003,5.778084e+001
1.389509e+003,6.052504e+001
1.390473e+003,6.161995e+001
1.391437e+003,6.001179e+001
1.392401e+003,5.931081e+001
1.393365e+003,6.020095e+001
1.394330e+003,6.137969e+001
1.395294e+003,6.251173e+001
1.396258e+003,6.344025e+001
1.397222e+003,6.427599e+001
1.398187e+003,6.497462e+001
1.399151e+003,6.500764e+001
1.400115e+003,6.391105e+001
1.401079e+003,6.255047e+001
1.402044e+003,6.280005e+001
1.403008e+003,6.468896e+001
1.403972e+003,6.539877e+001
1.404936e+003,6.449550e+001
1.405901e+003,6.370464e+001
1.406865e+003,6.339042e+001
1.407829e+003,6.353681e+001
1.408793e+003,6.436462e+001
1.409757e+003,6.572215e+001
1.410722e+003,6.698476e+001
1.411686e+003,6.803144e+001
1.412650e+003,6.828076e+001
1.413614e+003,6.680812e+001
1.414579e+003,6.496126e+001
1.415543e+003,6.391738e+001
1.416507e+003,6.376616e+001
1.417471e+003,6.501164e+001
1.418436e+003,6.774203e+001
1.419400e+003,6.980748e+001
1.420364e+003,6.860332e+001
1.421328e+003,6.531968e+001
1.422292e+003,6.523479e+001
1.423257e+003,6.970050e+001
1.424221e+003,7.211284e+001
1.425185e+003,6.916179e+001
1.426149e+003,6.677794e+001
1.427114e+003,6.680530e+001
1.428078e+003,6.824138e+001
1.429042e+003,7.056987e+001
1.430006e+003,7.313849e+001
1.430971e+003,7.482564e+001
1.431935e+003,7.513020e+001
1.432899e+003,7.499969e+001
1.433863e+003,7.588615e+001
1.434828e+003,7.769041e+001
1.435792e+003,7.834499e+001
1.436756e+003,7.708324e+001
1.437720e+003,7.587366e+001
1.438684e+003,7.424943e+001
1.439649e+003,7.357114e+001
1.440613e+003,7.552709e+001
1.441577e+003,7.853739e+001
1.442541e+003,7.989135e+001
1.443506e+003,7.916689e+001
1.444470e+003,7.769774e+001
1.445434e+003,7.604614e+001
1.446398e+003,7.490222e+001
1.447363e+003,7.544785e+001
1.448327e+003,7.712000e+001
1.449291e+003,7.875267e+001
1.450255e+003,8.031316e+001
1.451219e+003,8.113895e+001
1.452184e+003,8.034515e+001
1.453148e+003,7.926091e+001
1.454112e+003,7.975138e+001
1.455076e+003,8.154066e+001
1.456041e+003,8.303256e+001
1.457005e+003,8.412740e+001
1.457969e+003,8.488023e+001
1.458933e+003,8.533373e+001
1.459898e+003,8.536223e+001
1.460862e+003,8.442049e+001
1.461826e+003,8.315107e+001
1.462790e+003,8.255166e+001
1.463755e+003,8.277295e+001
1.464719e+003,8.330369e+001
1.465683e+003,8.380336e+001
1.466647e+003,8.419857e+001
1.467611e+003,8.426218e+001
1.468576e+003,8.392371e+001
1.469540e+003,8.348906e+001
1.470504e+003,8.252358e+001
1.471468e+003,8.229417e+001
1.472433e+003,8.284520e+001
1.473397e+003,8.422317e+001
1.474361e+003,8.783558e+001
1.475325e+003,9.170701e+001
1.476290e+003,9.219929e+001
1.477254e+003,8.899265e+001
1.478218e+003,8.575909e+001
1.479182e+003,8.546849e+001
1.480146e+003,8.718114e+001
1.481111e+003,8.891609e+001
1.482075e+003,9.079401e+001
1.483039e+003,9.048405e+001
1.484003e+003,8.595578e+001
1.484968e+003,8.282654e+001
1.485932e+003,8.321172e+001
1.486896e+003,8.474052e+001
1.487860e+003,8.556453e+001
1.488825e+003,8.579292e+001
1.489789e+003,8.633537e+001
1.490753e+003,8.739803e+001
1.491717e+003,8.783130e+001
1.492682e+003,8.656604e+001
1.493646e+003,8.479995e+001
1.494610e+003,8.465579e+001
1.495574e+003,8.563691e+001
1.496538e+003,8.631277e+001
1.497503e+003,8.657307e+001
1.498467e+003,8.655659e+001
1.499431e+003,8.613817e+001
1.500395e+003,8.555452e+001
1.501360e+003,8.509270e+001
1.502324e+003,8.483302e+001
1.503288e+003,8.498701e+001
1.504252e+003,8.563721e+001
1.505217e+003,8.601180e+001
1.506181e+003,8.570475e+001
1.507145e+003,8.508341e+001
1.508109e+003,8.462300e+001
1.509073e+003,8.404183e+001
1.510038e+003,8.244669e+001
1.511002e+003,7.999226e+001
1.511966e+003,7.859019e+001
1.512930e+003,7.959560e+001
1.513895e+003,8.168856e+001
1.514859e+003,8.247284e+001
1.515823e+003,8.190018e+001
1.516787e+003,8.173470e+001
1.517752e+003,8.221608e+001
1.518716e+003,8.285407e+001
1.519680e+003,8.350063e+001
1.520644e+003,8.414728e+001
1.521609e+003,8.549789e+001
1.522573e+003,8.640405e+001
1.523537e+003,8.499693e+001
1.524501e+003,8.182507e+001
1.525465e+003,7.934753e+001
1.526430e+003,7.893341e+001
1.527394e+003,7.962666e+001
1.528358e+003,8.010645e+001
1.529322e+003,8.037571e+001
1.530287e+003,8.009010e+001
1.531251e+003,7.881857e+001
1.532215e+003,7.795579e+001
1.533179e+003,7.755333e+001
1.534144e+003,7.740479e+001
1.535108e+003,7.737746e+001
1.536072e+003,7.757887e+001
1.537036e+003,7.859412e+001
1.538000e+003,7.994393e+001
1.538965e+003,8.017525e+001
1.539929e+003,7.869064e+001
1.540893e+003,7.664449e+001
1.541857e+003,7.539807e+001
1.542822e+003,7.477180e+001
1.543786e+003,7.362496e+001
1.544750e+003,7.145058e+001
1.545714e+003,7.034834e+001
1.546679e+003,7.059804e+001
1.547643e+003,7.141904e+001
1.548607e+003,7.357412e+001
1.549571e+003,7.545609e+001
1.550536e+003,7.496493e+001
1.551500e+003,7.282157e+001
1.552464e+003,7.136781e+001
1.553428e+003,7.136153e+001
1.554392e+003,7.180388e+001
1.555357e+003,7.190159e+001
1.556321e+003,7.172575e+001
1.557285e+003,7.160789e+001
1.558249e+003,7.152953e+001
1.559214e+003,7.053103e+001
1.560178e+003,6.791184e+001
1.561142e+003,6.636903e+001
1.562106e+003,6.763670e+001
1.563071e+003,6.935583e+001
1.564035e+003,6.959132e+001
1.564999e+003,6.878742e+001
1.565963e+003,6.782986e+001
1.566927e+003,6.689081e+001
1.567892e+003,6.635374e+001
1.568856e+003,6.649458e+001
1.569820e+003,6.686643e+001
1.570784e+003,6.722188e+001
1.571749e+003,6.729113e+001
1.572713e+003,6.624367e+001
1.573677e+003,6.416454e+001
1.574641e+003,6.268989e+001
1.575606e+003,6.254232e+001
1.576570e+003,6.255157e+001
1.577534e+003,6.190617e+001
1.578498e+003,6.082062e+001
1.579463e+003,5.919552e+001
1.580427e+003,5.718697e+001
1.581391e+003,5.716908e+001
1.582355e+003,6.052859e+001
1.583319e+003,6.303202e+001
1.584284e+003,6.092922e+001
1.585248e+003,5.752895e+001
1.586212e+003,5.713108e+001
1.587176e+003,5.857312e+001
1.588141e+003,5.880315e+001
1.589105e+003,5.727937e+001
1.590069e+003,5.580460e+001
1.591033e+003,5.549133e+001
1.591998e+003,5.575780e+001
1.592962e+003,5.607316e+001
1.593926e+003,5.628072e+001
1.594890e+003,5.537356e+001
1.595854e+003,5.306501e+001
1.596819e+003,5.116676e+001
1.597783e+003,5.060083e+001
1.598747e+003,5.009814e+001
1.599711e+003,4.835786e+001
1.600676e+003,4.635572e+001
1.601640e+003,4.535904e+001
1.602604e+003,4.533987e+001
1.603568e+003,4.551994e+001
1.604533e+003,4.556099e+001
1.605497e+003,4.580055e+001
1.606461e+003,4.694863e+001
1.607425e+003,4.840840e+001
1.608390e+003,4.833876e+001
1.609354e+003,4.673959e+001
1.610318e+003,4.550921e+001
1.611282e+003,4.488130e+001
1.612246e+003,4.447887e+001
1.613211e+003,4.456716e+001
1.614175e+003,4.440022e+001
1.615139e+003,4.313991e+001
1.616103e+003,4.150096e+001
1.617068e+003,4.079374e+001
1.618032e+003,4.104528e+001
1.618996e+003,4.097642e+001
1.619960e+003,3.980789e+001
1.620925e+003,3.813343e+001
1.621889e+003,3.672516e+001
1.622853e+003,3.559094e+001
1.623817e+003,3.455975e+001
1.624781e+003,3.358024e+001
1.625746e+003,3.333441e+001
1.626710e+003,3.449282e+001
1.627674e+003,3.540883e+001
1.628638e+003,3.503967e+001
1.629603e+003,3.425831e+001
1.630567e+003,3.376951e+001
1.631531e+003,3.350610e+001
1.632495e+003,3.322785e+001
1.633460e+003,3.287579e+001
1.634424e+003,3.242783e+001
1.635388e+003,3.186733e+001
1.636352e+003,3.108610e+001
1.637317e+003,2.973473e+001
1.638281e+003,2.787507e+001
1.639245e+003,2.658136e+001
1.640209e+003,2.581350e+001
1.641173e+003,2.588465e+001
1.642138e+003,2.793780e+001
1.643102e+003,2.939360e+001
1.644066e+003,2.860392e+001
1.645030e+003,2.696133e+001
1.645995e+003,2.550838e+001
1.646959e+003,2.443619e+001
1.647923e+003,2.387356e+001
1.648887e+003,2.383276e+001
1.649852e+003,2.400755e+001
1.650816e+003,2.425273e+001
1.651780e+003,2.431507e+001
1.652744e+003,2.336840e+001
1.653708e+003,2.147584e+001
1.654673e+003,2.087050e+001
1.655637e+003,2.218989e+001
1.656601e+003,2.285490e+001
1.657565e+003,2.160226e+001
1.658530e+003,2.023237e+001
1.659494e+003,1.962689e+001
1.660458e+003,1.948172e+001
1.661422e+003,1.965339e+001
1.662387e+003,1.997106e+001
1.663351e+003,2.007542e+001
1.664315e+003,1.985252e+001
1.665279e+003,1.951069e+001
1.666244e+003,1.921181e+001
1.667208e+003,1.895403e+001
1.668172e+003,1.885559e+001
1.669136e+003,1.884845e+001
1.670100e+003,1.794391e+001
1.671065e+003,1.569818e+001
1.672029e+003,1.416520e+001
1.672993e+003,1.452695e+001
1.673957e+003,1.509442e+001
1.674922e+003,1.455383e+001
1.675886e+003,1.373499e+001
1.676850e+003,1.361383e+001
1.677814e+003,1.407967e+001
1.678779e+003,1.464873e+001
1.679743e+003,1.518146e+001
1.680707e+003,1.499910e+001
1.681671e+003,1.300467e+001
1.682635e+003,1.059883e+001
1.683600e+003,1.068973e+001
1.684564e+003,1.277517e+001
1.685528e+003,1.336828e+001
1.686492e+003,1.189604e+001
1.687457e+003,1.056687e+001
1.688421e+003,1.008520e+001
1.689385e+003,1.010306e+001
1.690349e+003,1.075978e+001
1.691314e+003,1.155078e+001
1.692278e+003,1.204211e+001
1.693242e+003,1.210036e+001
1.694206e+003,1.123429e+001
1.695171e+003,9.227643e+000
1.696135e+003,7.492963e+000
1.697099e+003,7.001123e+000
1.698063e+003,7.155969e+000
1.699027e+003,7.412820e+000
1.699992e+003,7.670636e+000
1.700956e+003,7.393027e+000
1.701920e+003,6.548923e+000
1.702884e+003,6.428113e+000
1.703849e+003,7.752289e+000
1.704813e+003,8.767380e+000
1.705777e+003,7.853333e+000
1.706741e+003,6.107760e+000
1.707706e+003,5.291977e+000
1.708670e+003,5.226160e+000
1.709634e+003,5.172513e+000
1.710598e+003,4.993634e+000
1.711563e+003,5.089951e+000
1.712527e+003,6.076096e+000
1.713491e+003,6.901550e+000
1.714455e+003,6.370728e+000
1.715419e+003,5.298889e+000
1.716384e+003,5.243753e+000
1.717348e+003,6.071374e+000
1.718312e+003,6.427551e+000
1.719276e+003,5.885461e+000
1.720241e+003,4.922998e+000
1.721205e+003,3.716867e+000
1.722169e+003,2.756274e+000
1.723133e+003,3.053082e+000
1.724098e+003,4.392319e+000
1.725062e+003,4.810565e+000
1.726026e+003,4.069720e+000
1.726990e+003,3.382385e+000
1.727954e+003,2.520303e+000
1.728919e+003,2.290039e+000
1.729883e+003,3.931046e+000
1.730847e+003,5.630957e+000
1.731811e+003,5.277487e+000
1.732776e+003,3.583743e+000
1.733740e+003,2.333633e+000
1.734704e+003,1.943741e+000
1.735668e+003,1.872180e+000
1.736633e+003,1.798206e+000
1.737597e+003,1.885550e+000
1.738561e+003,2.412988e+000
1.739525e+003,3.223389e+000
1.740490e+003,3.503513e+000
1.741454e+003,3.200677e+000
1.742418e+003,2.475961e+000
1.743382e+003,5.655212e-001
1.744346e+003,-5.993698e-001
1.745311e+003,1.110031e-001
1.746275e+003,7.221435e-001
1.747239e+003,-4.271881e-001
1.748203e+003,-1.980626e+000
1.749168e+003,-2.056433e+000
1.750132e+003,-8.502731e-001
1.751096e+003,3.688049e-001
1.752060e+003,1.018129e+000
1.753025e+003,1.109296e+000
1.753989e+003,6.145508e-001
1.754953e+003,-2.135468e-002
1.755917e+003,3.493744e-001
1.756881e+003,1.756183e+000
1.757846e+003,2.172647e+000
1.758810e+003,1.274365e+000
1.759774e+003,3.569595e-001
1.760738e+003,-9.575699e-001
1.761703e+003,-1.520113e+000
1.762667e+003,-1.645340e-001
1.763631e+003,1.356158e+000
1.764595e+003,1.669562e+000
1.765560e+003,1.140723e+000
1.766524e+003,3.014145e-001
1.767488e+003,-5.625839e-001
1.768452e+003,-6.476120e-001
1.769417e+003,5.831283e-001
1.770381e+003,1.864517e+000
1.771345e+003,1.644028e+000
1.772309e+003,4.541580e-001
1.773273e+003,-3.952179e-001
1.774238e+003,-9.446656e-001
1.775202e+003,-1.695807e+000
1.776166e+003,-2.842148e+000
1.777130e+003,-3.050673e+000
1.778095e+003,-1.312944e+000
1.779059e+003,4.792694e-001
1.780023e+003,4.637161e-001
1.780987e+003,-3.476563e-001
1.781952e+003,-1.442886e-001
1.782916e+003,8.082001e-001
1.783880e+003,1.196298e+000
1.784844e+003,7.962341e-001
1.785808e+003,8.775940e-002
1.786773e+003,-1.213234e+000
1.787737e+003,-2.214102e+000
1.788701e+003,-2.142400e+000
1.789665e+003,-1.408093e+000
1.790630e+003,-2.357971e-001
1.791594e+003,1.010945e+000
1.792558e+003,1.236288e+000
1.793522e+003,2.620544e-001
1.794487e+003,-5.988388e-001
1.795451e+003,-5.143570e-001
1.796415e+003,9.715271e-003
1.797379e+003,3.082306e-001
1.798344e+003,3.727554e-001
1.799308e+003,2.020431e-001
1.800272e+003,-4.383987e-001
1.801236e+003,-4.534012e-001
1.802201e+003,1.003294e+000
1.803165e+003,1.797909e+000
1.804129e+003,1.350381e+000
1.805093e+003,4.990219e-001
1.806057e+003,-7.255554e-001
1.807022e+003,-1.806619e+000
1.807986e+003,-2.209433e+000
1.808950e+003,-1.996068e+000
1.809914e+003,-1.404890e+000
1.810879e+003,-5.934585e-001
1.811843e+003,3.058899e-001
1.812807e+003,1.202093e+000
1.813771e+003,1.679587e+000
1.814736e+003,9.610855e-001
1.815700e+003,-7.036575e-001
1.816664e+003,-2.077998e+000
1.817628e+003,-3.242072e+000
1.818593e+003,-3.363022e+000
1.819557e+003,-1.919563e+000
1.820521e+003,-5.979477e-001
1.821485e+003,3.055344e-001
1.822449e+003,4.768128e-001
1.823414e+003,-1.333754e+000
1.824378e+003,-3.370102e+000
1.825342e+003,-2.849739e+000
1.826306e+003,-4.196930e-001
1.827271e+003,8.546112e-001
1.828235e+003,2.144302e-001
1.829199e+003,-5.795395e-001
1.830163e+003,-6.259400e-001
1.831128e+003,-4.761475e-001
1.832092e+003,-8.007492e-001
1.833056e+003,-1.118382e+000
1.834020e+003,-4.669662e-001
1.834984e+003,8.597336e-001
1.835949e+003,1.870139e+000
1.836913e+003,2.322379e+000
1.837877e+003,2.144394e+000
1.838841e+003,1.247913e+000
1.839806e+003,3.074402e-001
1.840770e+003,1.160507e-001
1.841734e+003,3.589508e-001
1.842698e+003,6.756745e-002
1.843663e+003,-8.524017e-001
1.844627e+003,-1.220226e+000
1.845591e+003,-7.866379e-001
1.846555e+003,-1.988403e-001
1.847520e+003,9.406174e-001
1.848484e+003,1.644147e+000
1.849448e+003,1.319684e+000
1.850412e+003,6.833908e-001
1.851376e+003,1.406082e-001
1.852341e+003,-1.944504e-001
1.853305e+003,-3.036240e-001
1.854269e+003,-1.575012e-001
1.855233e+003,4.994034e-001
1.856198e+003,1.755865e+000
1.857162e+003,2.760644e+000
1.858126e+003,2.540311e+000
1.859090e+003,1.730859e+000
1.860055e+003,1.739920e+000
1.861019e+003,2.327011e+000
1.861983e+003,2.045535e+000
1.862947e+003,8.008041e-001
1.863911e+003,-2.662781e-001
1.864876e+003,-9.973358e-001
1.865840e+003,-8.237762e-001
1.866804e+003,1.143684e+000
1.867768e+003,3.136511e+000
1.868733e+003,2.670609e+000
1.869697e+003,8.114182e-001
1.870661e+003,8.263291e-001
1.871625e+003,2.718100e+000
1.872590e+003,4.269571e+000
1.873554e+003,5.420990e+000
1.874518e+003,5.870087e+000
1.875482e+003,5.141604e+000
1.876447e+003,4.179172e+000
1.877411e+003,3.341775e+000
1.878375e+003,2.754520e+000
1.879339e+003,2.577240e+000
1.880303e+003,2.672305e+000
1.881268e+003,2.830331e+000
1.882232e+003,2.975980e+000
1.883196e+003,3.021295e+000
1.884160e+003,2.949612e+000
1.885125e+003,3.119965e+000
1.886089e+003,3.997299e+000
1.887053e+003,5.117059e+000
1.888017e+003,4.901138e+000
1.888982e+003,3.322409e+000
1.889946e+003,3.644647e+000
1.890910e+003,6.515121e+000
1.891874e+003,7.962219e+000
1.892839e+003,6.680890e+000
1.893803e+003,5.189966e+000
1.894767e+003,4.400607e+000
1.895731e+003,4.176974e+000
1.896695e+003,4.528406e+000
1.897660e+003,5.263266e+000
1.898624e+003,6.367310e+000
1.899588e+003,7.673950e+000
1.900552e+003,7.914078e+000
1.901517e+003,6.461032e+000
1.902481e+003,5.328088e+000
1.903445e+003,5.464709e+000
1.904409e+003,6.032355e+000
1.905374e+003,6.931458e+000
1.906338e+003,7.625720e+000
1.907302e+003,7.214923e+000
1.908266e+003,6.143320e+000
1.909230e+003,5.410672e+000
1.910195e+003,5.180884e+000
1.911159e+003,5.027542e+000
1.912123e+003,4.786731e+000
1.913087e+003,4.852936e+000
1.914052e+003,5.620261e+000
1.915016e+003,6.555295e+000
1.915980e+003,6.494928e+000
1.916944e+003,5.542181e+000
1.917909e+003,5.068076e+000
1.918873e+003,5.170129e+000
1.919837e+003,5.265653e+000
1.920801e+003,5.311038e+000
1.921766e+003,5.245154e+000
1.922730e+003,4.757254e+000
1.923694e+003,4.532397e+000
1.924658e+003,5.709928e+000
1.925622e+003,6.993338e+000
1.926587e+003,6.438275e+000
1.927551e+003,4.664575e+000
1.928515e+003,3.920224e+000
1.929479e+003,4.526330e+000
1.930444e+003,5.170432e+000
1.931408e+003,5.558377e+000
1.932372e+003,5.751083e+000
1.933336e+003,5.865832e+000
1.934301e+003,5.711395e+000
1.935265e+003,4.875983e+000
1.936229e+003,3.857565e+000
1.937193e+003,3.234665e+000
1.938157e+003,3.078967e+000
1.939122e+003,3.436389e+000
1.940086e+003,4.209015e+000
1.941050e+003,4.987588e+000
1.942014e+003,5.511878e+000
1.942979e+003,5.682920e+000
1.943943e+003,5.256442e+000
1.944907e+003,4.752945e+000
1.945871e+003,6.112210e+000
1.946836e+003,9.179370e+000
1.947800e+003,9.928827e+000
1.948764e+003,7.947739e+000
1.949728e+003,6.319446e+000
1.950693e+003,5.585544e+000
1.951657e+003,5.566989e+000
1.952621e+003,6.611011e+000
1.953585e+003,7.568674e+000
1.954549e+003,7.217563e+000
1.955514e+003,6.081427e+000
1.956478e+003,4.966363e+000
1.957442e+003,3.947211e+000
1.958406e+003,4.462979e+000
1.959371e+003,7.523581e+000
1.960335e+003,9.327993e+000
1.961299e+003,8.303381e+000
1.962263e+003,7.469034e+000
1.963228e+003,8.367703e+000
1.964192e+003,9.226443e+000
1.965156e+003,8.319519e+000
1.966120e+003,6.967175e+000
1.967084e+003,7.217847e+000
1.968049e+003,8.526324e+000
1.969013e+003,8.796222e+000
1.969977e+003,7.692996e+000
1.970941e+003,7.060636e+000
1.971906e+003,8.012357e+000
1.972870e+003,9.165442e+000
1.973834e+003,9.059006e+000
1.974798e+003,8.236341e+000
1.975763e+003,7.397799e+000
1.976727e+003,6.642349e+000
1.977691e+003,6.281369e+000
1.978655e+003,6.340997e+000
1.979620e+003,6.959628e+000
1.980584e+003,8.152155e+000
1.981548e+003,9.150019e+000
1.982512e+003,9.526758e+000
1.983476e+003,9.581250e+000
1.984441e+003,9.631940e+000
1.985405e+003,9.616165e+000
1.986369e+003,9.392444e+000
1.987333e+003,8.983325e+000
1.988298e+003,8.343472e+000
1.989262e+003,7.091547e+000
1.990226e+003,6.627194e+000
1.991190e+003,7.394989e+000
1.992155e+003,8.256137e+000
1.993119e+003,9.331284e+000
1.994083e+003,9.965948e+000
1.995047e+003,9.490738e+000
1.996011e+003,8.656610e+000
1.996976e+003,8.156870e+000
1.997940e+003,7.967660e+000
1.998904e+003,7.965768e+000
1.999868e+003,8.131643e+000
2.000833e+003,8.349365e+000
2.001797e+003,8.578033e+000
2.002761e+003,8.833776e+000
2.003725e+003,9.036322e+000
2.004690e+003,9.389514e+000
2.005654e+003,1.023917e+001
2.006618e+003,1.110665e+001
2.007582e+003,1.177979e+001
2.008547e+003,1.196075e+001
2.009511e+003,1.086699e+001
2.010475e+003,8.906161e+000
2.011439e+003,7.556860e+000
2.012403e+003,7.304498e+000
2.013368e+003,7.395963e+000
2.014332e+003,7.300439e+000
2.015296e+003,7.286658e+000
2.016260e+003,7.794711e+000
2.017225e+003,8.594849e+000
2.018189e+003,9.214483e+000
2.019153e+003,9.625320e+000
2.020117e+003,9.776651e+000
2.021082e+003,9.646365e+000
2.022046e+003,9.000479e+000
2.023010e+003,7.818610e+000
2.023974e+003,6.998254e+000
2.024938e+003,7.026221e+000
2.025903e+003,7.489496e+000
2.026867e+003,8.041226e+000
2.027831e+003,8.416852e+000
2.028795e+003,7.907855e+000
2.029760e+003,6.597461e+000
2.030724e+003,6.276901e+000
2.031688e+003,7.308124e+000
2.032652e+003,7.861417e+000
2.033617e+003,7.791675e+000
2.034581e+003,7.413611e+000
2.035545e+003,6.316440e+000
2.036509e+003,5.767840e+000
2.037474e+003,6.621048e+000
2.038438e+003,8.110153e+000
2.039402e+003,1.008030e+001
2.040366e+003,1.190189e+001
2.041330e+003,1.185432e+001
2.042295e+003,1.000104e+001
2.043259e+003,8.806387e+000
2.044223e+003,8.830557e+000
2.045187e+003,8.732763e+000
2.046152e+003,7.890970e+000
2.047116e+003,7.366782e+000
2.048080e+003,8.009665e+000
2.049044e+003,8.576922e+000
2.050009e+003,8.009686e+000
2.050973e+003,7.052447e+000
2.051937e+003,6.500989e+000
2.052901e+003,6.409051e+000
2.053865e+003,6.729398e+000
2.054830e+003,7.320383e+000
2.055794e+003,7.699338e+000
2.056758e+003,7.659497e+000
2.057722e+003,7.388742e+000
2.058687e+003,6.736166e+000
2.059651e+003,6.282584e+000
2.060615e+003,6.844748e+000
2.061579e+003,7.707126e+000
2.062544e+003,7.871051e+000
2.063508e+003,7.630933e+000
2.064472e+003,7.781787e+000
2.065436e+003,8.240323e+000
2.066401e+003,8.223160e+000
2.067365e+003,7.562720e+000
2.068329e+003,7.031210e+000
2.069293e+003,7.116092e+000
2.070258e+003,7.047442e+000
2.071222e+003,5.706491e+000
2.072186e+003,4.114340e+000
2.073150e+003,5.015479e+000
2.074115e+003,7.580917e+000
2.075079e+003,7.966409e+000
2.076043e+003,6.330908e+000
2.077007e+003,4.880771e+000
2.077971e+003,4.035233e+000
2.078936e+003,4.721735e+000
2.079900e+003,7.316348e+000
2.080864e+003,9.350744e+000
2.081828e+003,9.001203e+000
2.082792e+003,7.811508e+000
2.083757e+003,7.945724e+000
2.084721e+003,8.949826e+000
2.085685e+003,9.237338e+000
2.086649e+003,8.792130e+000
2.087614e+003,8.346576e+000
2.088578e+003,7.827853e+000
2.089542e+003,7.773465e+000
2.090506e+003,8.509644e+000
2.091471e+003,8.610782e+000
2.092435e+003,7.156204e+000
2.093399e+003,6.134265e+000
2.094363e+003,7.181586e+000
2.095328e+003,8.859897e+000
2.096292e+003,9.359262e+000
2.097256e+003,8.898712e+000
2.098220e+003,8.172147e+000
2.099185e+003,7.111554e+000
2.100149e+003,6.887015e+000
2.101113e+003,7.849371e+000
2.102077e+003,8.934820e+000
2.103042e+003,1.127675e+001
2.104006e+003,1.205398e+001
2.104970e+003,8.791956e+000
2.105934e+003,6.025574e+000
2.106898e+003,6.813846e+000
2.107863e+003,8.721481e+000
2.108827e+003,9.551092e+000
2.109791e+003,9.456049e+000
2.110755e+003,8.648926e+000
2.111719e+003,7.240121e+000
2.112684e+003,6.679681e+000
2.113648e+003,7.457941e+000
2.114612e+003,8.329770e+000
2.115576e+003,8.990356e+000
2.116541e+003,9.723928e+000
2.117505e+003,1.102848e+001
2.118469e+003,1.200027e+001
2.119433e+003,1.185437e+001
2.120398e+003,1.129276e+001
2.121362e+003,1.115196e+001
2.122326e+003,1.108124e+001
2.123290e+003,9.962320e+000
2.124255e+003,8.105609e+000
2.125219e+003,7.587018e+000
2.126183e+003,9.095441e+000
2.127147e+003,1.039807e+001
2.128112e+003,1.019232e+001
2.129076e+003,1.001197e+001
2.130040e+003,1.110110e+001
2.131004e+003,1.205205e+001
2.131969e+003,1.145059e+001
2.132933e+003,1.031224e+001
2.133897e+003,9.655939e+000
2.134861e+003,9.583975e+000
2.135825e+003,1.040696e+001
2.136790e+003,1.161920e+001
2.137754e+003,1.153203e+001
2.138718e+003,9.772589e+000
2.139682e+003,8.312302e+000
2.140646e+003,8.275729e+000
2.141611e+003,8.860229e+000
2.142575e+003,9.739026e+000
2.143539e+003,1.051547e+001
2.144503e+003,1.080308e+001
2.145468e+003,1.079564e+001
2.146432e+003,1.049355e+001
2.147396e+003,1.020182e+001
2.148360e+003,1.073087e+001
2.149325e+003,1.175833e+001
2.150289e+003,1.183541e+001
2.151253e+003,1.073706e+001
2.152217e+003,9.990509e+000
2.153182e+003,1.048201e+001
2.154146e+003,1.143476e+001
2.155110e+003,1.238174e+001
2.156074e+003,1.299543e+001
2.157039e+003,1.237499e+001
2.158003e+003,1.142581e+001
2.158967e+003,1.197917e+001
2.159931e+003,1.331799e+001
2.160896e+003,1.345676e+001
2.161860e+003,1.267246e+001
2.162824e+003,1.285525e+001
2.163788e+003,1.423040e+001
2.164752e+003,1.525270e+001
2.165717e+003,1.512982e+001
2.166681e+003,1.419807e+001
2.167645e+003,1.256112e+001
2.168609e+003,1.110618e+001
2.169573e+003,1.139124e+001
2.170538e+003,1.253586e+001
2.171502e+003,1.291746e+001
2.172466e+003,1.269109e+001
2.173430e+003,1.207605e+001
2.174395e+003,1.134596e+001
2.175359e+003,1.135634e+001
2.176323e+003,1.204746e+001
2.177287e+003,1.220294e+001
2.178252e+003,1.144016e+001
2.179216e+003,1.096087e+001
2.180180e+003,1.165387e+001
2.181144e+003,1.254730e+001
2.182109e+003,1.240499e+001
2.183073e+003,1.167813e+001
2.184037e+003,1.111635e+001
2.185001e+003,1.075242e+001
2.185966e+003,1.071038e+001
2.186930e+003,1.098217e+001
2.187894e+003,1.160844e+001
2.188858e+003,1.244613e+001
2.189823e+003,1.296448e+001
2.190787e+003,1.297328e+001
2.191751e+003,1.244059e+001
2.192715e+003,1.144460e+001
2.193679e+003,1.078836e+001
2.194644e+003,1.122201e+001
2.195608e+003,1.232945e+001
2.196572e+003,1.402223e+001
2.197536e+003,1.557625e+001
2.198500e+003,1.464322e+001
2.199465e+003,1.224982e+001
2.200429e+003,1.157969e+001
2.201393e+003,1.239091e+001
2.202357e+003,1.274413e+001
2.203322e+003,1.228450e+001
2.204286e+003,1.141581e+001
2.205250e+003,1.044184e+001
2.206214e+003,1.024096e+001
2.207179e+003,1.141617e+001
2.208143e+003,1.297441e+001
2.209107e+003,1.379816e+001
2.210071e+003,1.411984e+001
2.211036e+003,1.429031e+001
2.212000e+003,1.433309e+001
2.212964e+003,1.426827e+001
2.213928e+003,1.411569e+001
2.214893e+003,1.403987e+001
2.215857e+003,1.400132e+001
2.216821e+003,1.337204e+001
2.217785e+003,1.229491e+001
2.218750e+003,1.247555e+001
2.219714e+003,1.459152e+001
2.220678e+003,1.698836e+001
2.221642e+003,1.837866e+001
2.222606e+003,1.929323e+001
2.223571e+003,2.058161e+001
2.224535e+003,2.166096e+001
2.225499e+003,2.103010e+001
2.226463e+003,1.967537e+001
2.227427e+003,1.967094e+001
2.228392e+003,2.075004e+001
2.229356e+003,2.190265e+001
2.230320e+003,2.299421e+001
2.231284e+003,2.445377e+001
2.232249e+003,2.622190e+001
2.233213e+003,2.722863e+001
2.234177e+003,2.700304e+001
2.235141e+003,2.715029e+001
2.236106e+003,2.910733e+001
2.237070e+003,3.191863e+001
2.238034e+003,3.475526e+001
2.238998e+003,3.736652e+001
2.239963e+003,3.957114e+001
2.240927e+003,4.127831e+001
2.241891e+003,4.192361e+001
2.242855e+003,4.216854e+001
2.243820e+003,4.358194e+001
2.244784e+003,4.597656e+001
2.245748e+003,4.774416e+001
2.246712e+003,4.855681e+001
2.247677e+003,4.976419e+001
2.248641e+003,5.210878e+001
2.249605e+003,5.475092e+001
2.250569e+003,5.707504e+001
2.251533e+003,5.926823e+001
2.252498e+003,6.228184e+001
2.253462e+003,6.442986e+001
2.254426e+003,6.329016e+001
2.255390e+003,6.069877e+001
2.256354e+003,5.905297e+001
2.257319e+003,5.802699e+001
2.258283e+003,5.650533e+001
2.259247e+003,5.443233e+001
2.260211e+003,5.247570e+001
2.261176e+003,5.071455e+001
2.262140e+003,4.794485e+001
2.263104e+003,4.314443e+001
2.264068e+003,3.919709e+001
2.265033e+003,3.817587e+001
2.265997e+003,3.788419e+001
2.266961e+003,3.748071e+001
2.267925e+003,3.674760e+001
2.268890e+003,3.582017e+001
2.269854e+003,3.422974e+001
2.270818e+003,3.075179e+001
2.271782e+003,2.671791e+001
2.272747e+003,2.454786e+001
2.273711e+003,2.397963e+001
2.274675e+003,2.291781e+001
2.275639e+003,2.094670e+001
2.276604e+003,1.932189e+001
2.277568e+003,1.843847e+001
2.278532e+003,1.777523e+001
2.279496e+003,1.736002e+001
2.280460e+003,1.682959e+001
2.281425e+003,1.590144e+001
2.282389e+003,1.501513e+001
2.283353e+003,1.463579e+001
2.284317e+003,1.429397e+001
2.285281e+003,1.359293e+001
2.286246e+003,1.257382e+001
2.287210e+003,1.089848e+001
2.288174e+003,8.889517e+000
2.289138e+003,8.722867e+000
2.290103e+003,1.110732e+001
2.291067e+003,1.184850e+001
2.292031e+003,9.709439e+000
2.292995e+003,8.325442e+000
2.293960e+003,7.899539e+000
2.294924e+003,8.119153e+000
2.295888e+003,9.572714e+000
2.296852e+003,1.040774e+001
2.297817e+003,9.305570e+000
2.298781e+003,8.017736e+000
2.299745e+003,8.274249e+000
2.300709e+003,9.122711e+000
2.301674e+003,8.904523e+000
2.302638e+003,7.779028e+000
2.303602e+003,6.531952e+000
2.304566e+003,5.079193e+000
2.305531e+003,4.616464e+000
2.306495e+003,5.292261e+000
2.307459e+003,6.085242e+000
2.308423e+003,6.906518e+000
2.309387e+003,7.795587e+000
2.310352e+003,8.834162e+000
2.311316e+003,8.683185e+000
2.312280e+003,6.610715e+000
2.313244e+003,4.848776e+000
2.314208e+003,5.285852e+000
2.315173e+003,6.663074e+000
2.316137e+003,7.323203e+000
2.317101e+003,7.104947e+000
2.318065e+003,4.813071e+000
2.319030e+003,1.422412e+000
2.319994e+003,1.331946e+000
2.320958e+003,3.686505e+000
2.321922e+003,4.883231e+000
2.322887e+003,4.782092e+000
2.323851e+003,4.715393e+000
2.324815e+003,4.913605e+000
2.325779e+003,4.682974e+000
2.326744e+003,3.873199e+000
2.327708e+003,3.473465e+000
2.328672e+003,4.120200e+000
2.329636e+003,4.826327e+000
2.330601e+003,4.762451e+000
2.331565e+003,4.132129e+000
2.332529e+003,2.601849e+000
2.333493e+003,1.186215e+000
2.334458e+003,1.501074e+000
2.335422e+003,2.365350e+000
2.336386e+003,1.950848e+000
2.337350e+003,9.228027e-001
2.338314e+003,9.003326e-001
2.339279e+003,1.607114e+000
2.340243e+003,1.502197e+000
2.341207e+003,3.646164e-001
2.342171e+003,-6.158096e-001
2.343135e+003,-1.086765e+000
2.344100e+003,-1.240224e+000
2.345064e+003,-9.431305e-001
2.346028e+003,-6.655182e-001
2.346992e+003,-8.124908e-001
2.347957e+003,-6.577957e-001
2.348921e+003,1.018188e+000
2.349885e+003,2.165881e+000
2.350849e+003,4.545807e-001
2.351814e+003,-1.998428e+000
2.352778e+003,-2.598717e+000
2.353742e+003,-1.875284e+000
2.354706e+003,-1.112280e+000
2.355671e+003,-3.112198e-001
2.356635e+003,2.583206e-001
2.357599e+003,6.618454e-001
2.358563e+003,4.175354e-001
2.359528e+003,-9.700333e-001
2.360492e+003,-1.245177e+000
2.361456e+003,3.554215e-001
2.362420e+003,9.353973e-001
2.363385e+003,-5.914154e-001
2.364349e+003,-2.153514e+000
2.365313e+003,-2.724355e+000
2.366277e+003,-2.314455e+000
2.367241e+003,-8.021485e-001
2.368206e+003,7.111465e-001
2.369170e+003,3.196411e-001
2.370134e+003,-1.185454e+000
2.371098e+003,-1.479350e+000
2.372063e+003,-8.624603e-001
2.373027e+003,-3.873321e-001
2.373991e+003,-1.254471e-001
2.374955e+003,-3.151520e-001
2.375919e+003,-9.604004e-001
2.376884e+003,-2.343495e+000
2.377848e+003,-4.101003e+000
2.378812e+003,-4.478982e+000
2.379776e+003,-3.120259e+000
2.380741e+003,-2.055634e+000
2.381705e+003,-2.419518e+000
2.382669e+003,-2.753987e+000
2.383633e+003,-1.885921e+000
2.384598e+003,-6.996201e-001
2.385562e+003,6.777252e-001
2.386526e+003,1.363654e+000
2.387490e+003,-2.790512e-001
2.388455e+003,-1.975909e+000
2.389419e+003,-8.740433e-001
2.390383e+003,1.031311e+000
2.391347e+003,7.476090e-001
2.392312e+003,-9.810593e-001
2.393276e+003,-1.995932e+000
2.394240e+003,-2.139734e+000
2.395204e+003,-2.154463e+000
2.396168e+003,-2.084369e+000
2.397133e+003,-1.955699e+000
2.398097e+003,-1.948549e+000
2.399061e+003,-1.515021e+000
2.400025e+003,-7.289276e-002
2.400990e+003,5.394546e-001
2.401954e+003,-4.872589e-001
2.402918e+003,-1.425072e+000
2.403882e+003,-1.466112e+000
2.404846e+003,-1.231540e+000
2.405811e+003,-1.278448e+000
2.406775e+003,-9.507233e-001
2.407739e+003,8.526382e-001
2.408703e+003,3.092200e+000
2.409668e+003,2.546960e+000
2.410632e+003,2.599640e-002
2.411596e+003,-2.728272e-003
2.412560e+003,1.774817e+000
2.413525e+003,2.441403e+000
2.414489e+003,2.023169e+000
2.415453e+003,1.378879e+000
2.416417e+003,8.096542e-001
2.417382e+003,6.302261e-001
2.418346e+003,8.949203e-001
2.419310e+003,1.603189e+000
2.420274e+003,2.674133e+000
2.421239e+003,3.001529e+000
2.422203e+003,1.662698e+000
2.423167e+003,1.879440e-001
2.424131e+003,-8.426437e-001
2.425095e+003,-9.512665e-001
2.426060e+003,1.252237e+000
2.427024e+003,3.235712e+000
2.427988e+003,2.515384e+000
2.428952e+003,1.186386e+000
2.429917e+003,1.477548e+000
2.430881e+003,2.550915e+000
2.431845e+003,2.798856e+000
2.432809e+003,2.510391e+000
2.433773e+003,3.201148e+000
2.434738e+003,4.879291e+000
2.435702e+003,5.555804e+000
2.436666e+003,4.886182e+000
2.437630e+003,4.511701e+000
2.438595e+003,4.525485e+000
2.439559e+003,4.246292e+000
2.440523e+003,3.477982e+000
2.441487e+003,3.532715e+000
2.442452e+003,4.832257e+000
2.443416e+003,6.074557e+000
2.444380e+003,6.600540e+000
2.445344e+003,6.313821e+000
2.446309e+003,5.077774e+000
2.447273e+003,4.187454e+000
2.448237e+003,5.492523e+000
2.449201e+003,7.765427e+000
2.450166e+003,9.605136e+000
2.451130e+003,1.055562e+001
2.452094e+003,9.137552e+000
2.453058e+003,6.834582e+000
2.454022e+003,5.814011e+000
2.454987e+003,5.783484e+000
2.455951e+003,6.192243e+000
2.456915e+003,6.608353e+000
2.457879e+003,6.184119e+000
2.458844e+003,5.043555e+000
2.459808e+003,4.580673e+000
2.460772e+003,5.181351e+000
2.461736e+003,5.703177e+000
2.462700e+003,5.458011e+000
2.463665e+003,5.843183e+000
2.464629e+003,7.868243e+000
2.465593e+003,9.168152e+000
2.466557e+003,9.085938e+000
2.467522e+003,8.510727e+000
2.468486e+003,7.415720e+000
2.469450e+003,7.178949e+000
2.470414e+003,9.065628e+000
2.471379e+003,1.109504e+001
2.472343e+003,1.082393e+001
2.473307e+003,9.351603e+000
2.474271e+003,8.892026e+000
2.475236e+003,9.216171e+000
2.476200e+003,9.906680e+000
2.477164e+003,1.061955e+001
2.478128e+003,9.990039e+000
2.479093e+003,8.636722e+000
2.480057e+003,8.291873e+000
2.481021e+003,8.783274e+000
2.481985e+003,9.146530e+000
2.482949e+003,9.242432e+000
2.483914e+003,9.410715e+000
2.484878e+003,9.713903e+000
2.485842e+003,9.820734e+000
2.486806e+003,9.500257e+000
2.487771e+003,9.660040e+000
2.488735e+003,1.137372e+001
2.489699e+003,1.241991e+001
2.490663e+003,1.163195e+001
2.491627e+003,1.088014e+001
2.492592e+003,1.072865e+001
2.493556e+003,1.092467e+001
2.494520e+003,1.143594e+001
2.495484e+003,1.212791e+001
2.496449e+003,1.296480e+001
2.497413e+003,1.366500e+001
2.498377e+003,1.383438e+001
2.499341e+003,1.361087e+001
2.500306e+003,1.328292e+001
2.501270e+003,1.292469e+001
2.502234e+003,1.279902e+001
2.503198e+003,1.291874e+001
2.504163e+003,1.340743e+001
2.505127e+003,1.413851e+001
2.506091e+003,1.498199e+001
2.507055e+003,1.569213e+001
2.508020e+003,1.541800e+001
2.508984e+003,1.444655e+001
2.509948e+003,1.453617e+001
2.510912e+003,1.605944e+001
2.511876e+003,1.682263e+001
2.512841e+003,1.560721e+001
2.513805e+003,1.520787e+001
2.514769e+003,1.743312e+001
2.515733e+003,1.915514e+001
2.516698e+003,1.857410e+001
2.517662e+003,1.893982e+001
2.518626e+003,2.288029e+001
2.519590e+003,2.493495e+001
2.520554e+003,2.104782e+001
2.521519e+003,1.745145e+001
2.522483e+003,1.975852e+001
2.523447e+003,2.438285e+001
2.524411e+003,2.616961e+001
2.525376e+003,2.633390e+001
2.526340e+003,2.802805e+001
2.527304e+003,3.039260e+001
2.528268e+003,3.023098e+001
2.529233e+003,2.884073e+001
2.530197e+003,2.930990e+001
2.531161e+003,3.116505e+001
2.532125e+003,3.320837e+001
2.533090e+003,3.503106e+001
2.534054e+003,3.604121e+001
2.535018e+003,3.655278e+001
2.535982e+003,3.798159e+001
2.536947e+003,4.057224e+001
2.537911e+003,4.267706e+001
2.538875e+003,4.382556e+001
2.539839e+003,4.465225e+001
2.540803e+003,4.470322e+001
2.541768e+003,4.543524e+001
2.542732e+003,4.749384e+001
2.543696e+003,4.875552e+001
2.544660e+003,4.842980e+001
2.545625e+003,4.876345e+001
2.546589e+003,5.096206e+001
2.547553e+003,5.224274e+001
2.548517e+003,5.036299e+001
2.549482e+003,4.807928e+001
2.550446e+003,4.879861e+001
2.551410e+003,5.035477e+001
2.552374e+003,4.879583e+001
2.553339e+003,4.642659e+001
2.554303e+003,4.700153e+001
2.555267e+003,4.852982e+001
2.556231e+003,4.861469e+001
2.557196e+003,4.779884e+001
2.558160e+003,4.675596e+001
2.559124e+003,4.570133e+001
2.560088e+003,4.491079e+001
2.561052e+003,4.430082e+001
2.562017e+003,4.349503e+001
2.562981e+003,4.240276e+001
2.563945e+003,4.054469e+001
2.564909e+003,3.743898e+001
2.565874e+003,3.640170e+001
2.566838e+003,3.782825e+001
2.567802e+003,3.855150e+001
2.568766e+003,3.830953e+001
2.569730e+003,3.644967e+001
2.570695e+003,3.308414e+001
2.571659e+003,3.090876e+001
2.572623e+003,3.061679e+001
2.573587e+003,2.987836e+001
2.574552e+003,2.756058e+001
2.575516e+003,2.542479e+001
2.576480e+003,2.485867e+001
2.577444e+003,2.415433e+001
2.578409e+003,2.134253e+001
2.579373e+003,1.902744e+001
2.580337e+003,1.922367e+001
2.581301e+003,1.968235e+001
2.582266e+003,1.916194e+001
2.583230e+003,1.843811e+001
2.584194e+003,1.805250e+001
2.585158e+003,1.762054e+001
2.586123e+003,1.666241e+001
2.587087e+003,1.577236e+001
2.588051e+003,1.603669e+001
2.589015e+003,1.692062e+001
2.589979e+003,1.666348e+001
2.590944e+003,1.560802e+001
2.591908e+003,1.526237e+001
2.592872e+003,1.518871e+001
2.593836e+003,1.407198e+001
2.594801e+003,1.244474e+001
2.595765e+003,1.171273e+001
2.596729e+003,1.156293e+001
2.597693e+003,1.067446e+001
2.598657e+003,9.201632e+000
2.599622e+003,8.661850e+000
2.600586e+003,9.296262e+000
2.601550e+003,9.257459e+000
2.602514e+003,7.981988e+000
2.603479e+003,6.797320e+000
2.604443e+003,5.529413e+000
2.605407e+003,5.015246e+000
2.606371e+003,5.551248e+000
2.607336e+003,5.494254e+000
2.608300e+003,4.465070e+000
2.609264e+003,3.488748e+000
2.610228e+003,2.971228e+000
2.611193e+003,3.005029e+000
2.612157e+003,3.625714e+000
2.613121e+003,4.238196e+000
2.614085e+003,4.341074e+000
2.615050e+003,4.416183e+000
2.616014e+003,5.174246e+000
2.616978e+003,5.591098e+000
2.617942e+003,4.406229e+000
2.618906e+003,3.500461e+000
2.619871e+003,4.919382e+000
2.620835e+003,5.965512e+000
2.621799e+003,4.022104e+000
2.622763e+003,1.706049e+000
2.623728e+003,1.434273e+000
2.624692e+003,2.283861e+000
2.625656e+003,2.877194e+000
2.626620e+003,3.237530e+000
2.627584e+003,3.380286e+000
2.628549e+003,3.380866e+000
2.629513e+003,3.624405e+000
2.630477e+003,3.849219e+000
2.631441e+003,3.081259e+000
2.632406e+003,2.087051e+000
2.633370e+003,2.779422e+000
2.634334e+003,4.256253e+000
2.635298e+003,4.176376e+000
2.636263e+003,2.885260e+000
2.637227e+003,2.669638e+000
2.638191e+003,3.693317e+000
2.639155e+003,3.313937e+000
2.640120e+003,1.042033e+000
2.641084e+003,4.910126e-002
2.642048e+003,3.936493e-001
2.643012e+003,1.885776e+000
2.643977e+003,4.525678e+000
2.644941e+003,5.164581e+000
2.645905e+003,3.534772e+000
2.646869e+003,1.720865e+000
2.647833e+003,5.251328e-001
2.648798e+003,7.394485e-001
2.649762e+003,2.449469e+000
2.650726e+003,3.172534e+000
2.651690e+003,1.333057e+000
2.652655e+003,-3.259735e-002
2.653619e+003,1.072432e+000
2.654583e+003,1.925154e+000
2.655547e+003,1.609755e+000
2.656511e+003,1.124092e+000
2.657476e+003,3.862259e-001
2.658440e+003,4.174759e-001
2.659404e+003,1.899235e+000
2.660368e+003,2.873685e+000
2.661333e+003,2.020735e+000
2.662297e+003,8.549439e-001
2.663261e+003,8.471054e-001
2.664225e+003,1.204825e+000
2.665190e+003,1.001973e+000
2.666154e+003,4.923645e-001
2.667118e+003,-6.588593e-001
2.668082e+003,-1.201073e+000
2.669047e+003,1.108963e+000
2.670011e+003,3.328387e+000
2.670975e+003,2.097604e+000
2.671939e+003,-3.220825e-002
2.672904e+003,-2.326126e-001
2.673868e+003,6.963150e-001
2.674832e+003,1.805148e+000
2.675796e+003,2.803133e+000
2.676760e+003,2.946927e+000
2.677725e+003,2.331128e+000
2.678689e+003,9.231933e-001
2.679653e+003,-6.818603e-001
2.680617e+003,-4.698242e-001
2.681582e+003,7.170563e-001
2.682546e+003,1.194901e+000
2.683510e+003,1.132101e+000
2.684474e+003,1.080238e+000
2.685438e+003,1.133730e+000
2.686403e+003,1.317471e+000
2.687367e+003,1.601431e+000
2.688331e+003,1.847211e+000
2.689295e+003,2.076253e+000
2.690260e+003,2.155313e+000
2.691224e+003,2.073528e+000
2.692188e+003,1.836108e+000
2.693152e+003,1.431650e+000
2.694117e+003,9.736145e-001
2.695081e+003,4.800735e-001
2.696045e+003,-3.645065e-001
2.697009e+003,-1.280254e+000
2.697974e+003,-9.226990e-001
2.698938e+003,8.070221e-001
2.699902e+003,2.408525e+000
2.700866e+003,3.417950e+000
2.701831e+003,3.731485e+000
2.702795e+003,3.056909e+000
2.703759e+003,2.150923e+000
2.704723e+003,6.928314e-001
2.705688e+003,2.155518e-001
2.706652e+003,1.082411e+000
2.707616e+003,1.598914e+000
2.708580e+003,1.342619e+000
2.709544e+003,6.137802e-001
2.710509e+003,-4.136017e-001
2.711473e+003,-1.543445e+000
2.712437e+003,-2.660687e+000
2.713401e+003,-2.744841e+000
2.714365e+003,-5.862869e-001
2.715330e+003,1.328412e+000
2.716294e+003,1.776003e+000
2.717258e+003,1.628853e+000
2.718222e+003,8.522934e-001
2.719187e+003,-2.564240e-002
2.720151e+003,-1.178853e+000
2.721115e+003,-1.295909e+000
2.722079e+003,4.367828e-001
2.723044e+003,1.849179e+000
2.724008e+003,1.310225e+000
2.724972e+003,5.070495e-003
2.725936e+003,-9.524124e-001
2.726901e+003,-1.673596e+000
2.727865e+003,-2.653934e+000
2.728829e+003,-2.945195e+000
2.729793e+003,-9.549195e-001
2.730758e+003,9.555359e-001
2.731722e+003,1.160753e+000
2.732686e+003,5.565842e-001
2.733650e+003,-6.868317e-001
2.734615e+003,-1.343011e+000
2.735579e+003,-1.489594e-001
2.736543e+003,1.249510e+000
2.737507e+003,5.309708e-001
2.738471e+003,-9.024063e-001
2.739436e+003,-3.566299e-001
2.740400e+003,1.166518e+000
2.741364e+003,2.808937e+000
2.742328e+003,3.561026e+000
2.743292e+003,9.774368e-001
2.744257e+003,-1.878169e+000
2.745221e+003,-1.177885e+000
2.746185e+003,7.847672e-001
2.747149e+003,8.491226e-001
2.748114e+003,5.259247e-002
2.749078e+003,-4.443359e-002
2.750042e+003,3.399597e-001
2.751006e+003,6.760589e-001
2.751971e+003,9.146668e-001
2.752935e+003,7.871643e-001
2.753899e+003,5.139831e-001
2.754863e+003,7.788803e-001
2.755828e+003,1.107451e+000
2.756792e+003,3.528259e-001
2.757756e+003,-6.350815e-001
2.758720e+003,-1.293762e-001
2.759685e+003,1.108716e+000
2.760649e+003,1.105356e+000
2.761613e+003,1.687988e-001
2.762577e+003,-8.050278e-001
2.763542e+003,-1.708054e+000
2.764506e+003,-1.339816e+000
2.765470e+003,-4.670563e-002
2.766434e+003,3.748169e-001
2.767398e+003,9.794006e-002
2.768363e+003,-5.905365e-001
2.769327e+003,-1.366637e+000
2.770291e+003,-1.867929e+000
2.771255e+003,-1.888531e+000
2.772219e+003,-8.468018e-001
2.773184e+003,9.165481e-001
2.774148e+003,1.716278e+000
2.775112e+003,1.556108e+000
2.776076e+003,8.086716e-001
2.777041e+003,-5.347580e-001
2.778005e+003,-7.775909e-001
2.778969e+003,-8.064270e-002
2.779933e+003,1.114246e+000
2.780898e+003,2.205112e+000
2.781862e+003,1.245755e+000
2.782826e+003,-9.630386e-001
2.783790e+003,-1.760484e+000
2.784755e+003,-1.071082e+000
2.785719e+003,-6.032059e-001
2.786683e+003,-5.868347e-001
2.787647e+003,-2.261963e-001
2.788612e+003,6.076004e-001
2.789576e+003,2.817734e-001
2.790540e+003,-1.120920e+000
2.791504e+003,-9.948319e-001
2.792469e+003,2.664795e-001
2.793433e+003,-3.477890e-001
2.794397e+003,-2.340686e+000
2.795361e+003,-2.614381e+000
2.796325e+003,-1.169807e+000
2.797290e+003,-3.598785e-001
2.798254e+003,-6.331848e-001
2.799218e+003,-1.257903e+000
2.800182e+003,-2.341258e+000
2.801146e+003,-2.314601e+000
2.802111e+003,-9.843765e-001
2.803075e+003,-6.077865e-001
2.804039e+003,-1.174345e+000
2.805003e+003,-1.328390e+000
2.805968e+003,-1.002417e+000
2.806932e+003,-6.090576e-001
2.807896e+003,-2.111221e-001
2.808860e+003,4.113464e-001
2.809825e+003,1.173473e+000
2.810789e+003,1.120729e+000
2.811753e+003,-1.203384e-001
2.812717e+003,-1.086725e+000
2.813682e+003,-1.879573e+000
2.814646e+003,-1.594580e+000
2.815610e+003,-2.594299e-001
2.816574e+003,3.821472e-001
2.817539e+003,2.554291e-001
2.818503e+003,2.231598e-002
2.819467e+003,-1.714371e-001
2.820431e+003,-4.552872e-001
2.821396e+003,-7.542831e-001
2.822360e+003,-5.709808e-001
2.823324e+003,2.541672e-001
2.824288e+003,8.152466e-001
2.825252e+003,1.200888e+000
2.826217e+003,4.508270e-001
2.827181e+003,-1.491368e+000
2.828145e+003,-1.306387e+000
2.829109e+003,7.596725e-001
2.830073e+003,1.683202e+000
2.831038e+003,1.147096e+000
2.832002e+003,-1.189774e-001
2.832966e+003,-1.541586e+000
2.833930e+003,-1.760727e+000
2.834895e+003,-4.742950e-001
2.835859e+003,5.908035e-001
2.836823e+003,1.438593e+000
2.837787e+003,1.004277e+000
2.838752e+003,-8.606079e-001
2.839716e+003,-8.221191e-001
2.840680e+003,9.183639e-001
2.841644e+003,1.589253e+000
2.842609e+003,1.084387e+000
2.843573e+003,7.754837e-001
2.844537e+003,7.527344e-001
2.845501e+003,-1.616379e-001
2.846466e+003,-2.050824e+000
2.847430e+003,-2.411563e+000
2.848394e+003,-7.065048e-001
2.849358e+003,-9.419647e-001
2.850323e+003,-3.318593e+000
2.851287e+003,-3.078612e+000
2.852251e+003,-6.232452e-001
2.853215e+003,4.416275e-001
2.854179e+003,1.109772e-001
2.855144e+003,-9.475251e-002
2.856108e+003,-8.271484e-002
2.857072e+003,-5.771271e-001
2.858036e+003,-1.621909e+000
2.859000e+003,-2.845081e+000
2.859965e+003,-4.228882e+000
2.860929e+003,-3.728921e+000
2.861893e+003,-1.293857e+000
2.862857e+003,-1.038055e-001
2.863822e+003,-2.720337e-002
2.864786e+003,-7.525101e-001
2.865750e+003,-1.583052e+000
2.866714e+003,-4.446411e-001
2.867679e+003,1.781906e+000
2.868643e+003,2.320320e+000
2.869607e+003,1.235953e+000
2.870571e+003,5.827683e-001
2.871536e+003,4.138184e-001
2.872500e+003,4.398239e-001
2.873464e+003,6.158798e-001
2.874428e+003,2.308365e-001
2.875393e+003,-5.037735e-001
2.876357e+003,-1.168037e+000
2.877321e+003,-1.408015e+000
2.878285e+003,-1.102295e-002
2.879250e+003,1.907426e+000
2.880214e+003,1.906065e+000
2.881178e+003,4.765167e-001
2.882142e+003,-2.798767e-001
2.883106e+003,-5.085190e-001
2.884071e+003,-1.093880e+000
2.885035e+003,-1.713768e+000
2.885999e+003,1.101349e-001
2.886963e+003,2.839856e+000
2.887927e+003,2.328754e+000
2.888892e+003,3.769333e-001
2.889856e+003,-3.248077e-001
2.890820e+003,1.870422e-002
2.891784e+003,1.006096e+000
2.892749e+003,2.211250e+000
2.893713e+003,3.254276e+000
2.894677e+003,3.764761e+000
2.895641e+003,2.618922e+000
2.896606e+003,7.284714e-001
2.897570e+003,9.852249e-001
2.898534e+003,1.931674e+000
2.899498e+003,1.023955e+000
2.900463e+003,-4.551407e-001
2.901427e+003,-1.157002e+000
2.902391e+003,-1.333539e+000
2.903355e+003,-1.277920e+000
2.904320e+003,-1.057069e+000
2.905284e+003,-7.052643e-001
2.906248e+003,-2.481552e-001
2.907212e+003,3.771774e-001
2.908177e+003,8.197861e-001
2.909141e+003,-5.327148e-002
2.910105e+003,-7.789612e-001
2.911069e+003,1.130733e+000
2.912033e+003,2.685222e+000
2.912998e+003,7.425186e-001
2.913962e+003,-1.188985e+000
2.914926e+003,-9.097015e-001
2.915890e+003,-2.467728e-001
2.916854e+003,-5.144882e-001
2.917819e+003,-1.184688e+000
2.918783e+003,-1.842873e+000
2.919747e+003,-1.958485e+000
2.920711e+003,-3.787903e-001
2.921676e+003,1.072656e+000
2.922640e+003,1.451743e+000
2.923604e+003,9.870437e-001
2.924568e+003,-1.084744e+000
2.925533e+003,-1.584164e+000
2.926497e+003,8.563370e-001
2.927461e+003,1.970761e+000
2.928425e+003,-1.483994e-001
2.929390e+003,-1.925391e+000
2.930354e+003,-1.264723e+000
2.931318e+003,8.306732e-002
2.932282e+003,1.625560e+000
2.933247e+003,2.288174e+000
2.934211e+003,2.073531e+000
2.935175e+003,1.419785e+000
2.936139e+003,-1.066986e-001
2.937104e+003,-7.140839e-001
2.938068e+003,-2.522430e-002
2.939032e+003,8.282959e-001
2.939996e+003,1.386542e+000
2.940960e+003,1.643924e+000
2.941925e+003,1.584248e+000
2.942889e+003,9.825394e-001
2.943853e+003,-5.582978e-001
2.944817e+003,-1.549757e+000
2.945781e+003,-1.966299e+000
2.946746e+003,-1.593753e+000
2.947710e+003,-5.364304e-001
2.948674e+003,-5.896912e-002
2.949638e+003,-1.280792e-001
2.950603e+003,1.613403e-001
2.951567e+003,8.341171e-001
2.952531e+003,1.273155e+000
2.953495e+003,1.350977e+000
2.954460e+003,1.285332e+000
2.955424e+003,1.103853e+000
2.956388e+003,3.027679e-001
2.957352e+003,-9.577576e-001
2.958317e+003,-9.082214e-001
2.959281e+003,3.588867e-002
2.960245e+003,8.604782e-001
2.961209e+003,1.372266e+000
2.962174e+003,1.255670e+000
2.963138e+003,8.812149e-001
2.964102e+003,1.232022e+000
2.965066e+003,1.817158e+000
2.966031e+003,1.364119e+000
2.966995e+003,4.120483e-001
2.967959e+003,1.111604e+000
2.968923e+003,2.259494e+000
2.969887e+003,4.370941e-001
2.970852e+003,-1.523315e+000
2.971816e+003,8.735550e-001
2.972780e+003,3.889139e+000
2.973744e+003,3.328114e+000
2.974708e+003,1.691650e+000
2.975673e+003,9.351959e-001
2.976637e+003,7.531952e-001
2.977601e+003,8.107239e-001
2.978565e+003,1.026779e+000
2.979530e+003,1.454631e+000
2.980494e+003,1.787714e+000
2.981458e+003,1.967296e+000
2.982422e+003,1.682738e+000
2.983387e+003,4.200638e-001
2.984351e+003,-7.085479e-001
2.985315e+003,-1.348421e+000
2.986279e+003,-1.434244e+000
2.987244e+003,-9.525528e-001
2.988208e+003,-2.420593e-001
2.989172e+003,5.055512e-001
2.990136e+003,9.721481e-001
2.991101e+003,8.858048e-001
2.992065e+003,6.886749e-001
2.993029e+003,1.621079e-001
2.993993e+003,5.965729e-001
2.994958e+003,2.210824e+000
2.995922e+003,2.295853e+000
2.996886e+003,6.672821e-001
2.997850e+003,-3.695175e-001
2.998814e+003,-2.369568e-001
2.999779e+003,4.141006e-001
3.000743e+003,1.373276e+000
3.001707e+003,2.037179e+000
3.002671e+003,2.456659e+000
3.003635e+003,1.716795e+000
3.004600e+003,-6.249084e-002
3.005564e+003,-7.143814e-001
3.006528e+003,-4.175979e-001
3.007492e+003,1.012939e-001
3.008457e+003,6.169205e-001
3.009421e+003,8.886185e-001
3.010385e+003,1.019937e+000
3.011349e+003,1.542694e+000
3.012314e+003,1.992838e+000
3.013278e+003,8.329666e-001
3.014242e+003,-1.133052e+000
3.015206e+003,-1.273972e+000
3.016171e+003,-3.319992e-001
3.017135e+003,1.170668e+000
3.018099e+003,2.223761e+000
3.019063e+003,1.079047e+000
3.020028e+003,-8.564911e-002
3.020992e+003,7.155380e-001
3.021956e+003,1.754028e+000
3.022920e+003,1.540825e+000
3.023885e+003,6.836960e-001
3.024849e+003,-3.029526e-001
3.025813e+003,-9.766220e-001
3.026777e+003,-5.623932e-001
3.027741e+003,-2.586761e-001
3.028706e+003,-8.563949e-001
3.029670e+003,-1.369177e+000
3.030634e+003,-1.591095e+000
3.031598e+003,-1.544467e+000
3.032563e+003,-1.241434e+000
3.033527e+003,-4.107544e-001
3.034491e+003,9.779862e-001
3.035455e+003,1.966278e+000
3.036420e+003,2.109814e+000
3.037384e+003,1.989282e+000
3.038348e+003,1.771487e+000
3.039312e+003,1.015326e+000
3.040277e+003,-2.743591e-001
3.041241e+003,-1.948337e+000
3.042205e+003,-3.462431e+000
3.043169e+003,-2.093683e+000
3.044134e+003,9.982132e-001
3.045098e+003,1.214473e+000
3.046062e+003,-1.126929e+000
3.047026e+003,-1.408057e+000
3.047990e+003,1.769562e-002
3.048955e+003,7.516327e-001
3.049919e+003,9.014435e-001
3.050883e+003,8.314148e-001
3.051847e+003,6.084854e-001
3.052812e+003,6.225128e-002
3.053776e+003,-2.724518e-001
3.054740e+003,4.724167e-001
3.055704e+003,1.477048e+000
3.056668e+003,2.090422e+000
3.057633e+003,2.238405e+000
3.058597e+003,1.772861e+000
3.059561e+003,1.183461e+000
3.060525e+003,1.316899e+000
3.061490e+003,1.185524e+000
3.062454e+003,-6.758560e-001
3.063418e+003,-1.817480e+000
3.064382e+003,-1.069160e+000
3.065347e+003,-2.369949e-001
3.066311e+003,2.040756e-001
3.067275e+003,4.848282e-001
3.068239e+003,7.004669e-001
3.069204e+003,7.413055e-001
3.070168e+003,5.377105e-001
3.071132e+003,3.446472e-001
3.072096e+003,2.225754e-001
3.073061e+003,2.805496e-001
3.074025e+003,5.485886e-001
3.074989e+003,7.685165e-001
3.075953e+003,9.217911e-001
3.076917e+003,1.151582e+000
3.077882e+003,1.359914e+000
3.078846e+003,1.323775e+000
3.079810e+003,1.020035e+000
3.080774e+003,2.649948e-001
3.081739e+003,-6.225373e-001
3.082703e+003,-6.619003e-001
3.083667e+003,-1.308731e-001
3.084631e+003,1.595230e-001
3.085595e+003,2.977448e-001
3.086560e+003,2.195099e-001
3.087524e+003,3.220077e-001
3.088488e+003,1.520908e+000
3.089452e+003,2.285255e+000
3.090417e+003,1.612033e+000
3.091381e+003,9.383240e-002
3.092345e+003,-1.877054e+000
3.093309e+003,-2.893582e+000
3.094274e+003,-1.282092e+000
3.095238e+003,3.012985e-001
3.096202e+003,-1.019531e-001
3.097166e+003,-2.270569e-001
3.098131e+003,5.911530e-001
3.099095e+003,4.522614e-001
3.100059e+003,-8.818299e-001
3.101023e+003,-1.806378e+000
3.101988e+003,-1.874599e+000
3.102952e+003,-9.580414e-001
3.103916e+003,7.112503e-001
3.104880e+003,8.449143e-001
3.105844e+003,-8.333725e-001
3.106809e+003,-9.033127e-001
3.107773e+003,3.882431e-001
3.108737e+003,-1.084183e-001
3.109701e+003,-1.593706e+000
3.110666e+003,-2.154410e+000
3.111630e+003,-1.983289e+000
3.112594e+003,-1.292783e+000
3.113558e+003,-7.277496e-001
3.114522e+003,-1.167799e+000
3.115487e+003,-1.618672e+000
3.116451e+003,-5.162857e-001
3.117415e+003,8.327759e-001
3.118379e+003,3.553284e-001
3.119344e+003,-4.683258e-001
3.120308e+003,-5.224228e-001
3.121272e+003,-6.220413e-001
3.122236e+003,-1.188132e+000
3.123201e+003,-1.233128e+000
3.124165e+003,-4.678574e-001
3.125129e+003,-8.314361e-002
3.126093e+003,-5.040100e-001
3.127058e+003,-6.416550e-001
3.128022e+003,3.504944e-003
3.128986e+003,6.354874e-001
3.129950e+003,1.252989e+000
3.130915e+003,1.402277e+000
3.131879e+003,1.062238e+000
3.132843e+003,-5.274582e-001
3.133807e+003,-2.583075e+000
3.134771e+003,-2.786572e+000
3.135736e+003,-1.741782e+000
3.136700e+003,-1.232388e+000
3.137664e+003,-1.071884e+000
3.138628e+003,-5.332245e-001
3.139593e+003,-8.448181e-002
3.140557e+003,-1.408653e+000
3.141521e+003,-2.735930e+000
3.142485e+003,-4.985794e-001
3.143449e+003,1.818301e+000
3.144414e+003,1.457324e+000
3.145378e+003,1.472992e-001
3.146342e+003,-1.606371e+000
3.147306e+003,-2.597499e+000
3.148271e+003,-2.284625e+000
3.149235e+003,-1.486282e+000
3.150199e+003,-6.256744e-001
3.151163e+003,-1.587189e-001
3.152128e+003,-2.674255e-002
3.153092e+003,-1.430644e+000
3.154056e+003,-4.763624e+000
3.155020e+003,-4.534692e+000
3.155985e+003,-1.405032e+000
3.156949e+003,1.218018e-001
3.157913e+003,-1.262817e-001
3.158877e+003,-1.275893e+000
3.159842e+003,-2.497733e+000
3.160806e+003,-2.191357e+000
3.161770e+003,-8.662094e-001
3.162734e+003,3.577942e-001
3.163698e+003,1.173169e+000
3.164663e+003,4.856918e-001
3.165627e+003,-4.799591e-001
3.166591e+003,-4.925934e-001
3.167555e+003,-1.526962e-001
3.168520e+003,3.761414e-001
3.169484e+003,2.063415e-001
3.170448e+003,-1.073393e+000
3.171412e+003,-1.989415e+000
3.172376e+003,-1.681134e+000
3.173341e+003,-7.503220e-001
3.174305e+003,1.051695e+000
3.175269e+003,1.558676e+000
3.176233e+003,3.897339e-001
3.177198e+003,-5.400635e-001
3.178162e+003,-1.151492e+000
3.179126e+003,-1.667624e+000
3.180090e+003,-2.158170e+000
3.181055e+003,-3.030711e+000
3.182019e+003,-3.783794e+000
3.182983e+003,-3.029568e+000
3.183947e+003,-1.183899e+000
3.184912e+003,1.228326e+000
3.185876e+003,3.081216e+000
3.186840e+003,5.951797e-001
3.187804e+003,-2.326489e+000
3.188769e+003,-6.102799e-001
3.189733e+003,8.783798e-001
3.190697e+003,-9.683014e-001
3.191661e+003,-2.480563e+000
3.192625e+003,-2.124840e+000
3.193590e+003,-1.083461e+000
3.194554e+003,-1.811523e-002
3.195518e+003,5.308930e-001
3.196482e+003,1.208481e-001
3.197447e+003,-1.231689e-002
3.198411e+003,3.000702e-001
3.199375e+003,3.346268e-001
3.200339e+003,1.451675e-001
3.201303e+003,3.186630e-001
3.202268e+003,6.064469e-001
3.203232e+003,1.881668e-001
3.204196e+003,-6.267578e-001
3.205160e+003,-1.202564e+000
3.206125e+003,-1.171233e+000
3.207089e+003,3.998398e-001
3.208053e+003,2.178339e+000
3.209017e+003,1.421648e+000
3.209982e+003,3.528549e-001
3.210946e+003,9.474823e-001
3.211910e+003,1.652124e+000
3.212874e+003,1.951970e+000
3.213839e+003,1.950760e+000
3.214803e+003,1.667908e+000
3.215767e+003,6.893311e-001
3.216731e+003,-9.775925e-001
3.217696e+003,-1.546771e+000
3.218660e+003,-1.841568e-001
3.219624e+003,5.906326e-001
3.220588e+003,7.490295e-001
3.221552e+003,-4.456787e-002
3.222517e+003,-1.205217e+000
3.223481e+003,-1.006963e+000
3.224445e+003,-2.999878e-003
3.225409e+003,1.330209e+000
3.226374e+003,1.880612e+000
3.227338e+003,2.538544e-001
3.228302e+003,-1.459952e+000
3.229266e+003,-6.037964e-001
3.230230e+003,1.043640e+000
3.231195e+003,1.961046e+000
3.232159e+003,2.354970e+000
3.233123e+003,2.130109e+000
3.234087e+003,1.665877e+000
3.235052e+003,1.011513e+000
3.236016e+003,6.605652e-001
3.236980e+003,6.141891e-001
3.237944e+003,1.344070e-001
3.238909e+003,-7.817108e-001
3.239873e+003,-7.312881e-001
3.240837e+003,1.849869e-001
3.241801e+003,6.352356e-001
3.242766e+003,6.206421e-001
3.243730e+003,-1.331955e-001
3.244694e+003,-1.052341e+000
3.245658e+003,-1.361150e+000
3.246623e+003,-1.368672e+000
3.247587e+003,-1.379291e+000
3.248551e+003,-1.242117e+000
3.249515e+003,-8.539200e-001
3.250479e+003,-4.270645e-001
3.251444e+003,-1.198334e-001
3.252408e+003,1.502716e-001
3.253372e+003,7.522980e-001
3.254336e+003,3.928192e-001
3.255301e+003,-1.097861e+000
3.256265e+003,-1.225142e+000
3.257229e+003,-2.752258e-001
3.258193e+003,-5.540420e-001
3.259157e+003,-1.744611e+000
3.260122e+003,-2.279889e+000
3.261086e+003,-1.942534e+000
3.262050e+003,-5.162781e-001
3.263014e+003,1.002879e+000
3.263979e+003,-2.226090e-001
3.264943e+003,-1.932660e+000
3.265907e+003,-1.319099e+000
3.266871e+003,-1.413834e-001
3.267836e+003,9.632675e-001
3.268800e+003,1.393889e+000
3.269764e+003,1.004456e+000
3.270728e+003,2.627823e-001
3.271693e+003,-5.769150e-001
3.272657e+003,-1.135376e+000
3.273621e+003,-1.270074e+000
3.274585e+003,-9.342957e-001
3.275550e+003,-1.116592e-001
3.276514e+003,1.683853e-001
3.277478e+003,-2.137146e-002
3.278442e+003,-1.079155e+000
3.279406e+003,-1.915184e+000
3.280371e+003,4.663239e-002
3.281335e+003,1.571321e+000
3.282299e+003,-3.741257e-001
3.283263e+003,-2.405081e+000
3.284228e+003,-1.337620e+000
3.285192e+003,3.610931e-001
3.286156e+003,1.029510e+000
3.287120e+003,8.712280e-001
3.288084e+003,-7.141190e-001
3.289049e+003,1.442261e-001
3.290013e+003,3.285083e+000
3.290977e+003,3.680588e+000
3.291941e+003,1.607684e+000
3.292906e+003,4.699249e-001
3.293870e+003,5.668228e-001
3.294834e+003,6.827652e-001
3.295798e+003,7.484390e-001
3.296763e+003,4.998642e-001
3.297727e+003,2.607376e-001
3.298691e+003,9.385971e-001
3.299655e+003,1.406682e+000
3.300620e+003,3.845276e-001
3.301584e+003,-4.277619e-001
3.302548e+003,-5.765259e-001
3.303512e+003,6.448059e-002
3.304477e+003,1.456882e+000
3.305441e+003,3.245991e+000
3.306405e+003,5.288132e+000
3.307369e+003,4.394409e+000
3.308333e+003,3.245941e-001
3.309298e+003,4.190872e-001
3.310262e+003,3.039247e+000
3.311226e+003,3.414519e+000
3.312190e+003,2.679991e+000
3.313155e+003,2.692969e+000
3.314119e+003,2.801924e+000
3.315083e+003,2.401297e+000
3.316047e+003,1.828032e+000
3.317011e+003,1.338486e+000
3.317976e+003,1.005382e+000
3.318940e+003,8.017212e-001
3.319904e+003,1.015579e+000
3.320868e+003,1.843758e+000
3.321833e+003,2.131717e+000
3.322797e+003,1.884650e+000
3.323761e+003,1.424594e+000
3.324725e+003,1.078699e+000
3.325690e+003,1.508057e+000
3.326654e+003,2.603897e+000
3.327618e+003,4.072084e+000
3.328582e+003,5.245500e+000
3.329547e+003,4.608406e+000
3.330511e+003,3.431802e+000
3.331475e+003,3.055551e+000
3.332439e+003,2.825215e+000
3.333404e+003,2.548023e+000
3.334368e+003,2.063458e+000
3.335332e+003,1.383427e+000
3.336296e+003,9.128906e-001
3.337260e+003,7.543976e-001
3.338225e+003,8.884934e-001
3.339189e+003,1.235356e+000
3.340153e+003,1.121573e+000
3.341117e+003,5.702087e-001
3.342082e+003,-7.462555e-001
3.343046e+003,-1.970325e+000
3.344010e+003,-1.240318e+000
3.344974e+003,-4.242721e-001
3.345938e+003,-1.178307e+000
3.346903e+003,-1.616621e+000
3.347867e+003,-8.520981e-001
3.348831e+003,2.943832e-001
3.349795e+003,1.389807e+000
3.350760e+003,1.545380e+000
3.351724e+003,-1.193161e-001
3.352688e+003,-4.128815e-001
3.353652e+003,5.292740e-001
3.354617e+003,1.538748e+000
3.355581e+003,2.218828e+000
3.356545e+003,1.492748e+000
3.357509e+003,5.287476e-001
3.358474e+003,1.087752e+000
3.359438e+003,1.464163e+000
3.360402e+003,-7.929382e-002
3.361366e+003,-1.259311e+000
3.362331e+003,7.622681e-001
3.363295e+003,2.003258e+000
3.364259e+003,2.915863e-001
3.365223e+003,1.819427e-001
3.366188e+003,1.729588e+000
3.367152e+003,1.608305e+000
3.368116e+003,-9.931946e-002
3.369080e+003,-2.306278e+000
3.370044e+003,-3.841989e+000
3.371009e+003,-2.762494e+000
3.371973e+003,-4.821487e-001
3.372937e+003,5.415863e-001
3.373901e+003,5.855225e-001
3.374865e+003,-7.648117e-001
3.375830e+003,-1.731293e+000
3.376794e+003,-1.544408e+000
3.377758e+003,-1.066835e+000
3.378722e+003,-5.554718e-001
3.379687e+003,-7.253189e-001
3.380651e+003,-1.478592e+000
3.381615e+003,-1.456070e+000
3.382579e+003,-5.678238e-001
3.383544e+003,4.288650e-001
3.384508e+003,1.221791e+000
3.385472e+003,2.406647e-001
3.386436e+003,-1.074835e+000
3.387401e+003,-1.083998e+000
3.388365e+003,-4.654327e-001
3.389329e+003,4.870087e-001
3.390293e+003,1.050931e+000
3.391258e+003,9.722672e-001
3.392222e+003,8.391449e-001
3.393186e+003,9.040222e-001
3.394150e+003,7.525223e-001
3.395115e+003,2.891266e-001
3.396079e+003,1.425397e+000
3.397043e+003,3.347626e+000
3.398007e+003,3.286910e+000
3.398971e+003,2.571153e+000
3.399936e+003,3.154744e+000
3.400900e+003,3.909767e+000
3.401864e+003,4.111832e+000
3.402828e+003,3.999785e+000
3.403792e+003,3.724542e+000
3.404757e+003,3.920200e+000
3.405721e+003,5.122478e+000
3.406685e+003,6.361693e+000
3.407649e+003,7.562413e+000
3.408614e+003,7.311101e+000
3.409578e+003,6.560536e+000
3.410542e+003,8.204918e+000
3.411506e+003,1.082626e+001
3.412471e+003,1.209895e+001
3.413435e+003,1.244682e+001
3.414399e+003,1.223740e+001
3.415363e+003,1.222476e+001
3.416328e+003,1.339820e+001
3.417292e+003,1.428525e+001
3.418256e+003,1.426034e+001
3.419220e+003,1.433620e+001
3.420185e+003,1.464419e+001
3.421149e+003,1.577925e+001
3.422113e+003,1.709541e+001
3.423077e+003,1.651693e+001
3.424042e+003,1.505464e+001
3.425006e+003,1.493770e+001
3.425970e+003,1.512878e+001
3.426934e+003,1.387053e+001
