7.140112e+001,1.687902e+002
7.236536e+001,1.633404e+002
7.332959e+001,1.673784e+002
7.429382e+001,1.753049e+002
7.525806e+001,1.886690e+002
7.622229e+001,1.942453e+002
7.718652e+001,1.825083e+002
7.815076e+001,1.444085e+002
7.911499e+001,1.167899e+002
8.007922e+001,9.558910e+001
8.104346e+001,8.330459e+001
8.200769e+001,8.265493e+001
8.297192e+001,9.940083e+001
8.393616e+001,1.235249e+002
8.490039e+001,1.638593e+002
8.586462e+001,2.089499e+002
8.682886e+001,2.396283e+002
8.779310e+001,2.190008e+002
8.875733e+001,1.809181e+002
8.972157e+001,1.417477e+002
9.068580e+001,1.083292e+002
9.165003e+001,8.164282e+001
9.261427e+001,7.176926e+001
9.357850e+001,7.328762e+001
9.454273e+001,7.778548e+001
9.550697e+001,7.976628e+001
9.647120e+001,7.900987e+001
9.743543e+001,7.646820e+001
9.839967e+001,7.148022e+001
9.936390e+001,6.523586e+001
1.003281e+002,5.884721e+001
1.012924e+002,4.994917e+001
1.022566e+002,4.464382e+001
1.032208e+002,4.512354e+001
1.041851e+002,5.000579e+001
1.051493e+002,5.598342e+001
1.061135e+002,6.372097e+001
1.070778e+002,6.856763e+001
1.080420e+002,6.674565e+001
1.090062e+002,5.788063e+001
1.099705e+002,4.550969e+001
1.109347e+002,3.721516e+001
1.118989e+002,3.217204e+001
1.128632e+002,3.184255e+001
1.138274e+002,3.739003e+001
1.147916e+002,5.020427e+001
1.157559e+002,5.650969e+001
1.167201e+002,5.449239e+001
1.176843e+002,4.959968e+001
1.186486e+002,4.853534e+001
1.196128e+002,5.505753e+001
1.205770e+002,6.051128e+001
1.215413e+002,6.690427e+001
1.225055e+002,7.196332e+001
1.234697e+002,7.106655e+001
1.244340e+002,5.281044e+001
1.253982e+002,3.398425e+001
1.263624e+002,1.698066e+001
1.273267e+002,4.030273e+000
1.282909e+002,-2.009680e+000
1.292551e+002,1.394731e+001
1.302194e+002,3.695732e+001
1.311836e+002,5.399918e+001
1.321478e+002,5.679755e+001
1.331121e+002,4.515626e+001
1.340763e+002,3.476461e+001
1.350405e+002,2.480127e+001
1.360048e+002,1.780677e+001
1.369690e+002,1.700861e+001
1.379332e+002,2.852965e+001
1.388975e+002,3.685447e+001
1.398617e+002,4.196405e+001
1.408259e+002,4.395311e+001
1.417902e+002,4.293847e+001
1.427544e+002,3.615394e+001
1.437186e+002,2.916541e+001
1.446829e+002,2.279005e+001
1.456471e+002,1.741816e+001
1.466113e+002,1.318358e+001
1.475756e+002,8.709546e+000
1.485398e+002,6.609485e+000
1.495040e+002,1.162855e+001
1.504683e+002,2.457583e+001
1.514325e+002,4.215831e+001
1.523967e+002,4.370724e+001
1.533610e+002,3.303428e+001
1.543252e+002,2.090134e+001
1.552894e+002,1.512019e+001
1.562537e+002,1.861411e+001
1.572179e+002,1.965151e+001
1.581821e+002,1.571504e+001
1.591464e+002,1.143458e+001
1.601106e+002,1.213973e+001
1.610748e+002,2.424601e+001
1.620391e+002,3.208854e+001
1.630033e+002,3.009509e+001
1.639676e+002,2.232728e+001
1.649318e+002,1.531260e+001
1.658960e+002,1.672855e+001
1.668603e+002,1.964056e+001
1.678245e+002,1.830371e+001
1.687887e+002,1.316998e+001
1.697530e+002,7.667676e+000
1.707172e+002,1.350305e+001
1.716814e+002,2.598879e+001
1.726457e+002,3.332025e+001
1.736099e+002,3.071483e+001
1.745741e+002,1.768103e+001
1.755384e+002,8.777722e+000
1.765026e+002,4.172803e+000
1.774668e+002,1.748474e+000
1.784311e+002,1.248596e+000
1.793953e+002,3.846692e+000
1.803595e+002,4.968335e+000
1.813238e+002,2.379981e+000
1.822880e+002,-8.719971e-001
1.832522e+002,-1.823035e+000
1.842165e+002,2.746106e+000
1.851807e+002,6.108496e+000
1.861449e+002,2.141785e+000
1.871092e+002,-5.673657e+000
1.880734e+002,-1.298801e+001
1.890376e+002,-1.394076e+001
1.900019e+002,-9.435071e+000
1.909661e+002,-2.867944e+000
1.919303e+002,5.379565e+000
1.928946e+002,1.383325e+001
1.938588e+002,1.728734e+001
1.948230e+002,1.240259e+001
1.957873e+002,9.864673e+000
1.967515e+002,1.141008e+001
1.977157e+002,1.704377e+001
1.986800e+002,2.501332e+001
1.996442e+002,3.699371e+001
2.006084e+002,4.894252e+001
2.015727e+002,6.211072e+001
2.025369e+002,7.661684e+001
2.035011e+002,8.412588e+001
2.044654e+002,7.523517e+001
2.054296e+002,6.055363e+001
2.063938e+002,4.479771e+001
2.073581e+002,3.123540e+001
2.083223e+002,2.073503e+001
2.092865e+002,1.227328e+001
2.102508e+002,6.739197e+000
2.112150e+002,8.706726e+000
2.121792e+002,2.322247e+001
2.131435e+002,5.500885e+001
2.141077e+002,7.347832e+001
2.150719e+002,7.512202e+001
2.160362e+002,6.754163e+001
2.170004e+002,6.167925e+001
2.179646e+002,5.898818e+001
2.189289e+002,5.614674e+001
2.198931e+002,4.866184e+001
2.208573e+002,4.092635e+001
2.218216e+002,4.126757e+001
2.227858e+002,6.202377e+001
2.237500e+002,8.609109e+001
2.247143e+002,1.139876e+002
2.256785e+002,1.404276e+002
2.266427e+002,1.559165e+002
2.276070e+002,1.321687e+002
2.285712e+002,8.953857e+001
2.295354e+002,5.325483e+001
2.304997e+002,3.075510e+001
2.314639e+002,2.043738e+001
2.324281e+002,1.284421e+001
2.333924e+002,7.963428e+000
2.343566e+002,4.696875e+000
2.353208e+002,3.071936e+000
2.362851e+002,3.382434e+000
2.372493e+002,3.427087e+000
2.382135e+002,2.425305e+000
2.391778e+002,1.694788e+000
2.401420e+002,2.270117e+000
2.411062e+002,4.775769e+000
2.420705e+002,6.504199e+000
2.430347e+002,5.779358e+000
2.439989e+002,3.818152e+000
2.449632e+002,1.104163e+000
2.459274e+002,-2.079907e+000
2.468916e+002,-4.732312e+000
2.478559e+002,-4.751709e+000
2.488201e+002,-3.003308e+000
2.497843e+002,-1.148596e+000
2.507486e+002,-1.145496e+000
2.517128e+002,-3.574402e+000
2.526770e+002,-4.134082e+000
2.536413e+002,-2.283740e+000
2.546055e+002,6.657837e-001
2.555697e+002,2.696631e+000
2.565340e+002,2.997278e+000
2.574982e+002,3.461011e+000
2.584625e+002,4.590295e+000
2.594267e+002,6.088477e+000
2.603909e+002,7.440417e+000
2.613552e+002,8.781909e+000
2.623194e+002,8.873230e+000
2.632836e+002,6.279981e+000
2.642479e+002,1.949878e+000
2.652121e+002,-2.105920e+000
2.661763e+002,-2.320581e+000
2.671406e+002,-5.063965e-001
2.681048e+002,3.957520e-001
2.690690e+002,-9.865723e-002
2.700333e+002,-1.365283e+000
2.709975e+002,-6.746826e-001
2.719617e+002,3.066223e+000
2.729260e+002,5.259619e+000
2.738902e+002,4.185132e+000
2.748544e+002,-1.083618e-001
2.758187e+002,-3.454883e+000
2.767829e+002,-5.635547e+000
2.777471e+002,-7.091052e+000
2.787114e+002,-7.642688e+000
2.796756e+002,-7.271790e+000
2.806398e+002,-6.515442e+000
2.816041e+002,-6.313977e+000
2.825683e+002,-5.667761e+000
2.835325e+002,-3.462585e+000
2.844968e+002,5.737305e-001
2.854610e+002,5.050049e+000
2.864252e+002,6.720654e+000
2.873895e+002,6.505994e+000
2.883537e+002,5.153979e+000
2.893179e+002,3.135169e+000
2.902822e+002,4.316650e-001
2.912464e+002,-1.303516e+000
2.922106e+002,-1.675012e+000
2.931749e+002,-2.113489e+000
2.941391e+002,-3.912292e+000
2.951033e+002,-8.071630e+000
2.960676e+002,-1.053461e+001
2.970318e+002,-1.093730e+001
2.979960e+002,-9.905859e+000
2.989603e+002,-7.548047e+000
2.999245e+002,-3.637622e+000
3.008887e+002,2.473633e-001
3.018530e+002,3.354919e+000
3.028172e+002,5.751782e+000
3.037814e+002,7.329065e+000
3.047457e+002,7.973193e+000
3.057099e+002,8.051941e+000
3.066741e+002,9.308887e+000
3.076384e+002,1.126852e+001
3.086026e+002,1.199669e+001
3.095668e+002,9.221155e+000
3.105311e+002,1.200562e+000
3.114953e+002,-3.800903e+000
3.124595e+002,-4.976404e+000
3.134238e+002,-4.212219e+000
3.143880e+002,-3.602820e+000
3.153522e+002,-3.359448e+000
3.163165e+002,-3.240320e+000
3.172807e+002,-3.241907e+000
3.182449e+002,-3.096790e+000
3.192092e+002,-2.569031e+000
3.201734e+002,-1.543335e+000
3.211376e+002,-1.827393e-001
3.221019e+002,1.369226e+000
3.230661e+002,3.145825e+000
3.240303e+002,5.386682e+000
3.249946e+002,8.565002e+000
3.259588e+002,1.197354e+001
3.269230e+002,1.268414e+001
3.278873e+002,1.060035e+001
3.288515e+002,7.141882e+000
3.298157e+002,4.809241e+000
3.307800e+002,4.433972e+000
3.317442e+002,4.306738e+000
3.327084e+002,3.537060e+000
3.336727e+002,3.039380e+000
3.346369e+002,4.737525e+000
3.356011e+002,1.222577e+001
3.365654e+002,1.744269e+001
3.375296e+002,1.736194e+001
3.384938e+002,1.414036e+001
3.394581e+002,1.118033e+001
3.404223e+002,1.137311e+001
3.413865e+002,1.296738e+001
3.423508e+002,1.417533e+001
3.433150e+002,1.516571e+001
3.442792e+002,1.655989e+001
3.452435e+002,1.940018e+001
3.462077e+002,2.374844e+001
3.471719e+002,2.701112e+001
3.481362e+002,2.796212e+001
3.491004e+002,2.934187e+001
3.500646e+002,3.716970e+001
3.510289e+002,5.029031e+001
3.519931e+002,7.470520e+001
3.529573e+002,1.125878e+002
3.539216e+002,1.610248e+002
3.548858e+002,2.182581e+002
3.558500e+002,3.093692e+002
3.568143e+002,3.706337e+002
3.577785e+002,3.750775e+002
3.587427e+002,3.362786e+002
3.597070e+002,2.770500e+002
3.606712e+002,2.110599e+002
3.616354e+002,1.490773e+002
3.625997e+002,1.031335e+002
3.635639e+002,7.299308e+001
3.645281e+002,5.499703e+001
3.654924e+002,4.289231e+001
3.664566e+002,3.848521e+001
3.674208e+002,3.393368e+001
3.683851e+002,2.901935e+001
3.693493e+002,2.395671e+001
3.703135e+002,1.925979e+001
3.712778e+002,1.504982e+001
3.722420e+002,1.151476e+001
3.732062e+002,8.080420e+000
3.741705e+002,5.402209e+000
3.751347e+002,4.646826e+000
3.760989e+002,7.569824e+000
3.770632e+002,1.106055e+001
3.780274e+002,1.381173e+001
3.789916e+002,1.567896e+001
3.799559e+002,1.682312e+001
3.809201e+002,1.761525e+001
3.818844e+002,1.735751e+001
3.828486e+002,1.429589e+001
3.838128e+002,8.751379e+000
3.847771e+002,3.001379e+000
3.857413e+002,4.624512e-001
3.867055e+002,2.823840e+000
3.876698e+002,4.658875e+000
3.886340e+002,4.602539e+000
3.895982e+002,4.509875e+000
3.905625e+002,7.366601e+000
3.915267e+002,1.644934e+001
3.924909e+002,2.305023e+001
3.934552e+002,2.592730e+001
3.944194e+002,2.590824e+001
3.953836e+002,2.325647e+001
3.963479e+002,1.687300e+001
3.973121e+002,1.114595e+001
3.982763e+002,1.036035e+001
3.992406e+002,1.258445e+001
4.002048e+002,1.530535e+001
4.011690e+002,1.611708e+001
4.021333e+002,1.519186e+001
4.030975e+002,1.484802e+001
4.040617e+002,1.509775e+001
4.050260e+002,1.575256e+001
4.059902e+002,1.664511e+001
4.069544e+002,1.784298e+001
4.079187e+002,1.904337e+001
4.088829e+002,2.058363e+001
4.098471e+002,2.182296e+001
4.108114e+002,2.202916e+001
4.117756e+002,2.066913e+001
4.127398e+002,2.002151e+001
4.137041e+002,2.154148e+001
4.146683e+002,2.360837e+001
4.156325e+002,2.521083e+001
4.165968e+002,2.578879e+001
4.175610e+002,2.544806e+001
4.185252e+002,2.370982e+001
4.194895e+002,2.156223e+001
4.204537e+002,2.031518e+001
4.214179e+002,2.079232e+001
4.223822e+002,2.292933e+001
4.233464e+002,2.553821e+001
4.243106e+002,2.903629e+001
4.252749e+002,3.132599e+001
4.262391e+002,3.002982e+001
4.272033e+002,2.447540e+001
4.281676e+002,2.408035e+001
4.291318e+002,3.270952e+001
4.300960e+002,4.273162e+001
4.310603e+002,5.078366e+001
4.320245e+002,5.671329e+001
4.329887e+002,6.476967e+001
4.339530e+002,7.389204e+001
4.349172e+002,9.025566e+001
4.358814e+002,1.214569e+002
4.368457e+002,1.666146e+002
4.378099e+002,2.187194e+002
4.387741e+002,2.711934e+002
4.397384e+002,3.175067e+002
4.407026e+002,3.343578e+002
4.416668e+002,3.148027e+002
4.426311e+002,2.677864e+002
4.435953e+002,2.229218e+002
4.445595e+002,1.765677e+002
4.455238e+002,1.383690e+002
4.464880e+002,1.102358e+002
4.474522e+002,9.041005e+001
4.484165e+002,7.578123e+001
4.493807e+002,6.874905e+001
4.503449e+002,6.378450e+001
4.513092e+002,6.017049e+001
4.522734e+002,5.700438e+001
4.532376e+002,5.334426e+001
4.542019e+002,4.842962e+001
4.551661e+002,4.269585e+001
4.561303e+002,3.625488e+001
4.570946e+002,2.970934e+001
4.580588e+002,2.428758e+001
4.590230e+002,2.134462e+001
4.599873e+002,2.118857e+001
4.609515e+002,2.120358e+001
4.619157e+002,2.120682e+001
4.628800e+002,2.150852e+001
4.638442e+002,2.258264e+001
4.648084e+002,2.496389e+001
4.657727e+002,2.641532e+001
4.667369e+002,2.642540e+001
4.677011e+002,2.624349e+001
4.686654e+002,2.685635e+001
4.696296e+002,2.856763e+001
4.705938e+002,2.955421e+001
4.715581e+002,2.802884e+001
4.725223e+002,2.553465e+001
4.734865e+002,2.287446e+001
4.744508e+002,2.047086e+001
4.754150e+002,1.827787e+001
4.763792e+002,1.586773e+001
4.773435e+002,1.349424e+001
4.783077e+002,1.238441e+001
4.792719e+002,1.317705e+001
4.802362e+002,1.535123e+001
4.812004e+002,1.583413e+001
4.821646e+002,1.283847e+001
4.831289e+002,1.014450e+001
4.840931e+002,7.750110e+000
4.850573e+002,5.794141e+000
4.860216e+002,4.713379e+000
4.869858e+002,5.392072e+000
4.879500e+002,6.523547e+000
4.889143e+002,8.250055e+000
4.898785e+002,9.970001e+000
4.908427e+002,1.076689e+001
4.918070e+002,9.633081e+000
4.927712e+002,7.502154e+000
4.937354e+002,6.015320e+000
4.946997e+002,5.112921e+000
4.956639e+002,4.628394e+000
4.966281e+002,4.396948e+000
4.975924e+002,4.452692e+000
4.985566e+002,4.504120e+000
4.995208e+002,4.209363e+000
5.004851e+002,4.303235e+000
5.014493e+002,5.658722e+000
5.024135e+002,8.793353e+000
5.033778e+002,1.070878e+001
5.043420e+002,1.069888e+001
5.053063e+002,1.020712e+001
5.062705e+002,9.704401e+000
5.072347e+002,9.254779e+000
5.081990e+002,8.648804e+000
5.091632e+002,7.269293e+000
5.101274e+002,6.006513e+000
5.110917e+002,5.719281e+000
5.120559e+002,6.406097e+000
5.130201e+002,7.350586e+000
5.139844e+002,7.031555e+000
5.149486e+002,5.476721e+000
5.159128e+002,4.141083e+000
5.168771e+002,3.270660e+000
5.178413e+002,2.659766e+000
5.188055e+002,1.765442e+000
5.197698e+002,-3.739136e-001
5.207340e+002,-1.164349e+000
5.216982e+002,8.703858e-001
5.226625e+002,3.451038e+000
5.236267e+002,3.633698e+000
5.245909e+002,-5.349121e-001
5.255552e+002,-3.933795e+000
5.265194e+002,-3.465302e+000
5.274836e+002,-1.470422e+000
5.284479e+002,2.184143e-001
5.294121e+002,5.708863e-001
5.303763e+002,5.274658e-002
5.313406e+002,-1.150177e+000
5.323048e+002,-2.499793e+000
5.332690e+002,-2.266846e+000
5.342333e+002,5.298950e-001
5.351975e+002,5.314105e+000
5.361617e+002,7.288800e+000
5.371260e+002,4.020587e+000
5.380902e+002,1.817188e+000
5.390544e+002,2.691437e+000
5.400187e+002,5.491406e+000
5.409829e+002,6.504571e+000
5.419471e+002,3.174969e+000
5.429114e+002,2.015198e-001
5.438756e+002,-1.093005e+000
5.448398e+002,-1.254010e+000
5.458041e+002,-1.216486e+000
5.467683e+002,-1.596466e+000
5.477325e+002,-2.100415e+000
5.486968e+002,-2.312103e+000
5.496610e+002,-2.335809e+000
5.506252e+002,-2.359619e+000
5.515895e+002,-2.539496e+000
5.525537e+002,-2.880157e+000
5.535179e+002,-3.099744e+000
5.544822e+002,-3.125439e+000
5.554464e+002,-3.120825e+000
5.564106e+002,-3.384082e+000
5.573749e+002,-3.962634e+000
5.583391e+002,-3.878223e+000
5.593033e+002,-1.264667e+000
5.602676e+002,2.793945e-001
5.612318e+002,-1.164233e+000
5.621960e+002,-4.701947e+000
5.631603e+002,-7.475250e+000
5.641245e+002,-6.983661e+000
5.650887e+002,-5.283112e+000
5.660530e+002,-3.810645e+000
5.670172e+002,-2.707458e+000
5.679814e+002,-1.953479e+000
5.689457e+002,-1.534534e+000
5.699099e+002,-1.499255e+000
5.708741e+002,-1.714600e+000
5.718384e+002,-2.123572e+000
5.728026e+002,-2.717828e+000
5.737668e+002,-3.743329e+000
5.747311e+002,-5.522876e+000
5.756953e+002,-6.139020e+000
5.766595e+002,-4.756812e+000
5.776238e+002,-3.270746e+000
5.785880e+002,-2.244623e+000
5.795522e+002,-1.770990e+000
5.805165e+002,-1.727423e+000
5.814807e+002,-2.278778e+000
5.824449e+002,-3.034290e+000
5.834092e+002,-4.259894e+000
5.843734e+002,-5.601111e+000
5.853376e+002,-6.223016e+000
5.863019e+002,-4.959760e+000
5.872661e+002,-2.292114e+000
5.882303e+002,-1.136865e+000
5.891946e+002,-1.508789e+000
5.901588e+002,-2.409680e+000
5.911230e+002,-2.885931e+000
5.920873e+002,-2.915948e+000
5.930515e+002,-2.609460e+000
5.940157e+002,-1.238434e+000
5.949800e+002,-3.009399e-001
5.959442e+002,-1.099182e+000
5.969084e+002,-3.584448e+000
5.978727e+002,-5.140900e+000
5.988369e+002,-2.530859e+000
5.998011e+002,-6.805420e-002
6.007654e+002,4.368103e-001
6.017296e+002,-9.318115e-001
6.026938e+002,-3.269696e+000
6.036581e+002,-6.029212e+000
6.046223e+002,-8.366211e+000
6.055865e+002,-7.780463e+000
6.065508e+002,-4.501038e+000
6.075150e+002,-1.477655e+000
6.084792e+002,-2.125610e+000
6.094435e+002,-7.752893e+000
6.104077e+002,-1.017102e+001
6.113719e+002,-7.988654e+000
6.123362e+002,-5.234204e+000
6.133004e+002,-3.805627e+000
6.142646e+002,-3.784796e+000
6.152289e+002,-4.020563e+000
6.161931e+002,-4.684644e+000
6.171573e+002,-4.983472e+000
6.181216e+002,-4.161151e+000
6.190858e+002,-2.585919e+000
6.200500e+002,-1.235022e+000
6.210143e+002,-1.063446e+000
6.219785e+002,-1.886847e+000
6.229427e+002,-3.411719e+000
6.239070e+002,-5.362226e+000
6.248712e+002,-6.518921e+000
6.258354e+002,-5.599231e+000
6.267997e+002,-2.218957e+000
6.277639e+002,-4.974365e-003
6.287281e+002,9.687988e-001
6.296924e+002,1.179498e+000
6.306566e+002,3.765991e-001
6.316208e+002,-1.299475e+000
6.325851e+002,-2.312109e+000
6.335493e+002,-1.798511e+000
6.345135e+002,-7.249511e-001
6.354778e+002,1.141614e+000
6.364420e+002,3.287030e+000
6.374063e+002,4.930548e+000
6.383705e+002,5.463580e+000
6.393347e+002,5.138153e+000
6.402990e+002,4.468988e+000
6.412632e+002,3.600262e+000
6.422274e+002,2.804169e+000
6.431917e+002,2.271759e+000
6.441559e+002,1.968854e+000
6.451201e+002,1.580878e+000
6.460844e+002,9.156677e-001
6.470486e+002,5.035461e-001
6.480128e+002,6.397339e-001
6.489771e+002,1.209143e+000
6.499413e+002,1.725958e+000
6.509055e+002,2.542499e+000
6.518698e+002,2.563690e+000
6.528340e+002,7.953247e-001
6.537982e+002,-1.565454e+000
6.547625e+002,-2.924103e+000
6.557267e+002,-2.263556e+000
6.566909e+002,-9.599304e-001
6.576552e+002,-1.264404e+000
6.586194e+002,-2.352045e+000
6.595836e+002,-2.955334e+000
6.605479e+002,-2.430688e+000
6.615121e+002,-1.040527e+000
6.624763e+002,-5.065918e-003
6.634406e+002,5.880554e-001
6.644048e+002,9.979736e-001
6.653690e+002,1.321979e+000
6.663333e+002,1.347290e+000
6.672975e+002,5.663757e-001
6.682617e+002,-1.819531e+000
6.692260e+002,-3.084674e+000
6.701902e+002,-2.046338e+000
6.711544e+002,-2.816895e-001
6.721187e+002,9.811035e-001
6.730829e+002,1.282190e+000
6.740471e+002,1.138806e+000
6.750114e+002,1.389172e+000
6.759756e+002,1.628986e+000
6.769398e+002,1.101269e+000
6.779041e+002,-2.307068e-001
6.788683e+002,-1.555835e+000
6.798325e+002,-1.341254e+000
6.807968e+002,1.170666e+000
6.817610e+002,2.159076e+000
6.827252e+002,3.660950e-001
6.836895e+002,-1.835297e+000
6.846537e+002,-2.142175e+000
6.856179e+002,-1.126282e-001
6.865822e+002,1.196344e+000
6.875464e+002,6.802613e-001
6.885106e+002,-2.396423e-001
6.894749e+002,-1.284692e+000
6.904391e+002,-2.199133e+000
6.914034e+002,-2.615271e+000
6.923676e+002,-1.948425e+000
6.933318e+002,-8.156677e-001
6.942961e+002,-9.791870e-002
6.952603e+002,2.400330e-001
6.962245e+002,3.511475e-001
6.971888e+002,3.495972e-001
6.981530e+002,2.018311e-001
6.991172e+002,5.671631e-001
7.000815e+002,1.865027e+000
7.010457e+002,2.747180e+000
7.020099e+002,2.338910e+000
7.029742e+002,1.054907e+000
7.039384e+002,8.055664e-001
7.049026e+002,3.199506e+000
7.058669e+002,4.885437e+000
7.068311e+002,4.409875e+000
7.077953e+002,2.946545e+000
7.087596e+002,2.015747e+000
7.097238e+002,2.462543e+000
7.106880e+002,3.432886e+000
7.116523e+002,3.343665e+000
7.126165e+002,2.761951e+000
7.135807e+002,2.674646e+000
7.145450e+002,3.461780e+000
7.155092e+002,4.699365e+000
7.164734e+002,5.176721e+000
7.174377e+002,4.545459e+000
7.184019e+002,3.670691e+000
7.193661e+002,2.363525e+000
7.203304e+002,8.602051e-001
7.212946e+002,-7.697510e-001
7.222589e+002,-2.700018e+000
7.232231e+002,-3.645593e+000
7.241873e+002,-2.877710e+000
7.251516e+002,-1.433832e+000
7.261158e+002,7.645630e-001
7.270800e+002,3.219989e+000
7.280443e+002,4.783539e+000
7.290085e+002,3.969086e+000
7.299727e+002,1.781103e+000
7.309370e+002,3.563294e-001
7.319012e+002,-3.012756e-001
7.328654e+002,-4.951477e-001
7.338297e+002,-4.761475e-001
7.347939e+002,-2.409058e-001
7.357581e+002,-1.124084e-001
7.367224e+002,-3.404663e-001
7.376866e+002,-3.514954e-001
7.386508e+002,1.099243e-001
7.396151e+002,9.024719e-001
7.405793e+002,1.692249e+000
7.415435e+002,2.658221e+000
7.425078e+002,3.166846e+000
7.434720e+002,2.616504e+000
7.444362e+002,1.655676e+000
7.454005e+002,8.396912e-001
7.463647e+002,4.686523e-001
7.473289e+002,6.177429e-001
7.482932e+002,2.102515e+000
7.492574e+002,4.236676e+000
7.502216e+002,5.008832e+000
7.511859e+002,3.858386e+000
7.521501e+002,1.576184e+000
7.531143e+002,-4.572327e-001
7.540786e+002,-2.426507e+000
7.550428e+002,-3.389502e+000
7.560070e+002,-2.956989e+000
7.569713e+002,-2.154553e+000
7.579355e+002,-1.495288e+000
7.588997e+002,-1.054590e+000
7.598640e+002,-7.718811e-001
7.608282e+002,-1.053314e+000
7.617924e+002,-9.476258e-001
7.627567e+002,3.965881e-001
7.637209e+002,2.467499e+000
7.646851e+002,4.031940e+000
7.656494e+002,4.043719e+000
7.666136e+002,3.393805e+000
7.675778e+002,6.807886e+000
7.685421e+002,1.362841e+001
7.695063e+002,1.799791e+001
7.704705e+002,1.670050e+001
7.714348e+002,1.116566e+001
7.723990e+002,7.116040e+000
7.733632e+002,5.529212e+000
7.743275e+002,4.067603e+000
7.752917e+002,2.421460e+000
7.762559e+002,9.483643e-001
7.772202e+002,-5.833130e-002
7.781844e+002,-5.322510e-001
7.791486e+002,-5.953857e-001
7.801129e+002,3.448059e-001
7.810771e+002,1.197681e+000
7.820413e+002,8.394775e-001
7.830056e+002,-4.865234e-001
7.839698e+002,-1.519159e+000
7.849340e+002,-7.688110e-001
7.858983e+002,1.651739e+000
7.868625e+002,2.575647e+000
7.878267e+002,1.628778e+000
7.887910e+002,7.651428e-001
7.897552e+002,1.276068e+000
7.907194e+002,2.961236e+000
7.916837e+002,4.068311e+000
7.926479e+002,4.462305e+000
7.936121e+002,4.057532e+000
7.945764e+002,1.828522e+000
7.955406e+002,-6.824402e-001
7.965048e+002,-1.513031e+000
7.974691e+002,1.489563e-001
7.984333e+002,2.370776e+000
7.993975e+002,2.238959e+000
8.003618e+002,1.207709e+000
8.013260e+002,7.415161e-001
8.022902e+002,1.141077e+000
8.032545e+002,1.988446e+000
8.042187e+002,2.677502e+000
8.051829e+002,3.198407e+000
8.061472e+002,3.713886e+000
8.071114e+002,4.110827e+000
8.080756e+002,4.556885e+000
8.090399e+002,5.192322e+000
8.100041e+002,6.009039e+000
8.109683e+002,6.826929e+000
8.119326e+002,7.604401e+000
8.128968e+002,8.305224e+000
8.138610e+002,8.674683e+000
8.148253e+002,9.060046e+000
8.157895e+002,1.003809e+001
8.167537e+002,1.186242e+001
8.177180e+002,1.384147e+001
8.186822e+002,1.457670e+001
8.196464e+002,1.450261e+001
8.206107e+002,1.438155e+001
8.215749e+002,1.433096e+001
8.225391e+002,1.444774e+001
8.235034e+002,1.487008e+001
8.244676e+002,1.550458e+001
8.254318e+002,1.675683e+001
8.263961e+002,2.018046e+001
8.273603e+002,2.254544e+001
8.283245e+002,2.159377e+001
8.292888e+002,1.806993e+001
8.302530e+002,1.521425e+001
8.312172e+002,1.482714e+001
8.321815e+002,1.497510e+001
8.331457e+002,1.434995e+001
8.341099e+002,1.338688e+001
8.350742e+002,1.282489e+001
8.360384e+002,1.295195e+001
8.370026e+002,1.314045e+001
8.379669e+002,1.167819e+001
8.389311e+002,8.461719e+000
8.398953e+002,6.534564e+000
8.408596e+002,6.826520e+000
8.418238e+002,7.652063e+000
8.427880e+002,6.780890e+000
8.437523e+002,3.665179e+000
8.447165e+002,1.786102e+000
8.456807e+002,2.648822e+000
8.466450e+002,3.594189e+000
8.476092e+002,3.683527e+000
8.485734e+002,3.091394e+000
8.495377e+002,2.427545e+000
8.505019e+002,2.034149e+000
8.514661e+002,1.836627e+000
8.524304e+002,1.474750e+000
8.533946e+002,1.247937e+000
8.543588e+002,1.978192e+000
8.553231e+002,3.909619e+000
8.562873e+002,6.099658e+000
8.572515e+002,6.451880e+000
8.582158e+002,4.228967e+000
8.591800e+002,2.131995e+000
8.601442e+002,-4.953674e-001
8.611085e+002,-2.463940e+000
8.620727e+002,-2.648114e+000
8.630369e+002,-1.147839e+000
8.640012e+002,2.528442e-001
8.649654e+002,1.072803e+000
8.659296e+002,1.442694e+000
8.668939e+002,1.021497e+000
8.678581e+002,3.665588e-001
8.688223e+002,3.087830e-001
8.697866e+002,1.229242e+000
8.707508e+002,2.494788e+000
8.717150e+002,2.652679e+000
8.726793e+002,1.966687e+000
8.736435e+002,1.790655e+000
8.746077e+002,2.477374e+000
8.755720e+002,3.315955e+000
8.765362e+002,3.409680e+000
8.775004e+002,2.669043e+000
8.784647e+002,1.540771e+000
8.794289e+002,-1.128748e+000
8.803931e+002,-2.864874e+000
8.813574e+002,-2.052692e+000
8.823216e+002,1.185059e-001
8.832858e+002,1.157282e+000
8.842501e+002,-2.561523e-001
8.852143e+002,-2.125556e+000
8.861785e+002,-2.450903e+000
8.871428e+002,-2.056042e+000
8.881070e+002,-1.753778e+000
8.890712e+002,-1.810083e+000
8.900355e+002,-2.100403e+000
8.909997e+002,-2.444226e+000
8.919639e+002,-2.876215e+000
8.929282e+002,-2.775641e+000
8.938924e+002,-1.595288e+000
8.948566e+002,-6.816284e-001
8.958209e+002,-9.190063e-001
8.967851e+002,-2.018817e+000
8.977493e+002,-2.715515e+000
8.987136e+002,-2.374768e+000
8.996778e+002,-2.342767e+000
9.006420e+002,-3.744293e+000
9.016063e+002,-5.223914e+000
9.025705e+002,-5.198926e+000
9.035347e+002,-3.425830e+000
9.044990e+002,-1.366278e+000
9.054632e+002,-9.250122e-001
9.064274e+002,-1.903986e+000
9.073917e+002,-2.805444e+000
9.083559e+002,-3.578711e+000
9.093201e+002,-4.188287e+000
9.102844e+002,-4.568817e+000
9.112486e+002,-4.745203e+000
9.122128e+002,-5.068280e+000
9.131771e+002,-6.249213e+000
9.141413e+002,-6.558478e+000
9.151055e+002,-4.881238e+000
9.160698e+002,-2.863190e+000
9.170340e+002,-2.425653e+000
9.179982e+002,-3.941602e+000
9.189625e+002,-5.315155e+000
9.199267e+002,-4.363562e+000
9.208909e+002,-2.751465e+000
9.218552e+002,-1.972632e+000
9.228194e+002,-2.008350e+000
9.237836e+002,-2.456946e+000
9.247479e+002,-3.014032e+000
9.257121e+002,-3.600232e+000
9.266763e+002,-3.715216e+000
9.276406e+002,-2.966791e+000
9.286048e+002,-2.667450e+000
9.295690e+002,-3.282330e+000
9.305333e+002,-4.175726e+000
9.314975e+002,-4.695209e+000
9.324617e+002,-4.789392e+000
9.334260e+002,-4.585541e+000
9.343902e+002,-3.779895e+000
9.353545e+002,-2.993659e+000
9.363187e+002,-2.474957e+000
9.372830e+002,-2.187561e+000
9.382472e+002,-1.977869e+000
9.392114e+002,-1.731720e+000
9.401757e+002,-1.519641e+000
9.411399e+002,-1.822992e+000
9.421041e+002,-2.532312e+000
9.430684e+002,-2.387036e+000
9.440326e+002,-9.273804e-001
9.449968e+002,8.752686e-001
9.459611e+002,1.988702e+000
9.469253e+002,2.498053e+000
9.478895e+002,2.188922e+000
9.488538e+002,-4.408447e-001
9.498180e+002,-2.261414e+000
9.507822e+002,-2.062115e+000
9.517465e+002,-6.802490e-001
9.527107e+002,8.314209e-001
9.536749e+002,2.095496e+000
9.546392e+002,2.819867e+000
9.556034e+002,1.762964e+000
9.565676e+002,2.551941e-001
9.575319e+002,3.005249e-001
9.584961e+002,2.028186e+000
9.594603e+002,4.059039e+000
9.604246e+002,4.904077e+000
9.613888e+002,4.531457e+000
9.623530e+002,4.524329e+000
9.633173e+002,5.121320e+000
9.642815e+002,5.720007e+000
9.652457e+002,5.657794e+000
9.662100e+002,5.990302e+000
9.671742e+002,7.867792e+000
9.681384e+002,1.147856e+001
9.691027e+002,1.638206e+001
9.700669e+002,1.824097e+001
9.710311e+002,2.520326e+001
9.719954e+002,4.726757e+001
9.729596e+002,7.904518e+001
9.739238e+002,1.102617e+002
9.748881e+002,1.335300e+002
9.758523e+002,1.459323e+002
9.768165e+002,1.347378e+002
9.777808e+002,9.389813e+001
9.787450e+002,6.150225e+001
9.797092e+002,4.352067e+001
9.806735e+002,3.343519e+001
9.816377e+002,2.598127e+001
9.826019e+002,2.120781e+001
9.835662e+002,1.811042e+001
9.845304e+002,1.782183e+001
9.854946e+002,1.776940e+001
9.864589e+002,1.680229e+001
9.874231e+002,1.570086e+001
9.883873e+002,1.558347e+001
9.893516e+002,1.676739e+001
9.903158e+002,1.836951e+001
9.912800e+002,1.911819e+001
9.922443e+002,1.948282e+001
9.932085e+002,2.085416e+001
9.941727e+002,2.326093e+001
9.951370e+002,2.704589e+001
9.961012e+002,3.156425e+001
9.970654e+002,3.714825e+001
9.980297e+002,4.651414e+001
9.989939e+002,4.885527e+001
9.999581e+002,7.611992e+001
1.000922e+003,1.301416e+002
1.001887e+003,2.085287e+002
1.002851e+003,3.435633e+002
1.003815e+003,5.119911e+002
1.004779e+003,6.156554e+002
1.005744e+003,5.725662e+002
1.006708e+003,4.490041e+002
1.007672e+003,3.353337e+002
1.008636e+003,2.343372e+002
1.009600e+003,1.583211e+002
1.010565e+003,1.129640e+002
1.011529e+003,8.901766e+001
1.012493e+003,6.920868e+001
1.013457e+003,5.384602e+001
1.014422e+003,4.314074e+001
1.015386e+003,3.882533e+001
1.016350e+003,3.578328e+001
1.017314e+003,3.243068e+001
1.018279e+003,2.876107e+001
1.019243e+003,2.482049e+001
1.020207e+003,2.035570e+001
1.021171e+003,1.704426e+001
1.022135e+003,1.755838e+001
1.023100e+003,1.912136e+001
1.024064e+003,1.927642e+001
1.025028e+003,1.792478e+001
1.025992e+003,1.638559e+001
1.026957e+003,1.587690e+001
1.027921e+003,1.627374e+001
1.028885e+003,1.648776e+001
1.029849e+003,1.677609e+001
1.030814e+003,1.626729e+001
1.031778e+003,1.371846e+001
1.032742e+003,1.104222e+001
1.033706e+003,1.018257e+001
1.034671e+003,1.127137e+001
1.035635e+003,1.304139e+001
1.036599e+003,1.619244e+001
1.037563e+003,1.833475e+001
1.038527e+003,1.756880e+001
1.039492e+003,1.536859e+001
1.040456e+003,1.332315e+001
1.041420e+003,1.223607e+001
1.042384e+003,1.231945e+001
1.043349e+003,1.408906e+001
1.044313e+003,1.744965e+001
1.045277e+003,1.899538e+001
1.046241e+003,1.846498e+001
1.047206e+003,1.722279e+001
1.048170e+003,1.502711e+001
1.049134e+003,1.274049e+001
1.050098e+003,1.292566e+001
1.051063e+003,1.698465e+001
1.052027e+003,1.981870e+001
1.052991e+003,1.854562e+001
1.053955e+003,1.669505e+001
1.054919e+003,1.601157e+001
1.055884e+003,1.641502e+001
1.056848e+003,1.731108e+001
1.057812e+003,1.836741e+001
1.058776e+003,1.925800e+001
1.059741e+003,1.892565e+001
1.060705e+003,1.751978e+001
1.061669e+003,1.675385e+001
1.062633e+003,1.696332e+001
1.063598e+003,1.733319e+001
1.064562e+003,1.705012e+001
1.065526e+003,1.624107e+001
1.066490e+003,1.602411e+001
1.067454e+003,1.666451e+001
1.068419e+003,1.762175e+001
1.069383e+003,1.902239e+001
1.070347e+003,2.032215e+001
1.071311e+003,2.134080e+001
1.072276e+003,2.192399e+001
1.073240e+003,2.156161e+001
1.074204e+003,1.956985e+001
1.075168e+003,1.717230e+001
1.076133e+003,1.765408e+001
1.077097e+003,2.019918e+001
1.078061e+003,2.196809e+001
1.079025e+003,2.200083e+001
1.079990e+003,2.124597e+001
1.080954e+003,2.104965e+001
1.081918e+003,2.151449e+001
1.082882e+003,2.186230e+001
1.083846e+003,2.198167e+001
1.084811e+003,2.200999e+001
1.085775e+003,2.216820e+001
1.086739e+003,2.212105e+001
1.087703e+003,2.134052e+001
1.088668e+003,1.987887e+001
1.089632e+003,1.859398e+001
1.090596e+003,1.804663e+001
1.091560e+003,1.826793e+001
1.092525e+003,1.930166e+001
1.093489e+003,2.097404e+001
1.094453e+003,2.284730e+001
1.095417e+003,2.484950e+001
1.096381e+003,2.662504e+001
1.097346e+003,2.725547e+001
1.098310e+003,2.620797e+001
1.099274e+003,2.590866e+001
1.100238e+003,2.761402e+001
1.101203e+003,2.858292e+001
1.102167e+003,2.722560e+001
1.103131e+003,2.496686e+001
1.104095e+003,2.386895e+001
1.105060e+003,2.443406e+001
1.106024e+003,2.508350e+001
1.106988e+003,2.396972e+001
1.107952e+003,2.277822e+001
1.108917e+003,2.472556e+001
1.109881e+003,2.894205e+001
1.110845e+003,3.173270e+001
1.111809e+003,3.099586e+001
1.112773e+003,2.815959e+001
1.113738e+003,2.664282e+001
1.114702e+003,2.711633e+001
1.115666e+003,2.726291e+001
1.116630e+003,2.642347e+001
1.117595e+003,2.597443e+001
1.118559e+003,2.676943e+001
1.119523e+003,2.809481e+001
1.120487e+003,2.876168e+001
1.121452e+003,2.847078e+001
1.122416e+003,2.828998e+001
1.123380e+003,2.937660e+001
1.124344e+003,3.077555e+001
1.125308e+003,3.122379e+001
1.126273e+003,3.090154e+001
1.127237e+003,3.045463e+001
1.128201e+003,3.020670e+001
1.129165e+003,3.012748e+001
1.130130e+003,3.014640e+001
1.131094e+003,3.020217e+001
1.132058e+003,3.033322e+001
1.133022e+003,3.046943e+001
1.133987e+003,3.080420e+001
1.134951e+003,3.162631e+001
1.135915e+003,3.267446e+001
1.136879e+003,3.359821e+001
1.137844e+003,3.429287e+001
1.138808e+003,3.480443e+001
1.139772e+003,3.531618e+001
1.140736e+003,3.525184e+001
1.141700e+003,3.328946e+001
1.142665e+003,3.030892e+001
1.143629e+003,2.908124e+001
1.144593e+003,3.105702e+001
1.145557e+003,3.471987e+001
1.146522e+003,3.711457e+001
1.147486e+003,3.792978e+001
1.148450e+003,3.813271e+001
1.149414e+003,3.719454e+001
1.150379e+003,3.661076e+001
1.151343e+003,3.703022e+001
1.152307e+003,3.787734e+001
1.153271e+003,3.837385e+001
1.154235e+003,3.832832e+001
1.155200e+003,3.820345e+001
1.156164e+003,3.846791e+001
1.157128e+003,3.886707e+001
1.158092e+003,3.883253e+001
1.159057e+003,3.855525e+001
1.160021e+003,3.847832e+001
1.160985e+003,3.874080e+001
1.161949e+003,3.940784e+001
1.162914e+003,4.076351e+001
1.163878e+003,4.301371e+001
1.164842e+003,4.444783e+001
1.165806e+003,4.438605e+001
1.166771e+003,4.420892e+001
1.167735e+003,4.398717e+001
1.168699e+003,4.380004e+001
1.169663e+003,4.384313e+001
1.170627e+003,4.401384e+001
1.171592e+003,4.374000e+001
1.172556e+003,4.250238e+001
1.173520e+003,4.122913e+001
1.174484e+003,4.136642e+001
1.175449e+003,4.240281e+001
1.176413e+003,4.350134e+001
1.177377e+003,4.445547e+001
1.178341e+003,4.552935e+001
1.179306e+003,4.719027e+001
1.180270e+003,4.935413e+001
1.181234e+003,5.047713e+001
1.182198e+003,4.960620e+001
1.183162e+003,4.920823e+001
1.184127e+003,4.989711e+001
1.185091e+003,5.066833e+001
1.186055e+003,5.105064e+001
1.187019e+003,5.108993e+001
1.187984e+003,5.083197e+001
1.188948e+003,5.024082e+001
1.189912e+003,4.982001e+001
1.190876e+003,5.056926e+001
1.191841e+003,5.188869e+001
1.192805e+003,5.201286e+001
1.193769e+003,5.088915e+001
1.194733e+003,5.025806e+001
1.195698e+003,5.142617e+001
1.196662e+003,5.357073e+001
1.197626e+003,5.443474e+001
1.198590e+003,5.348149e+001
1.199554e+003,5.314860e+001
1.200519e+003,5.485468e+001
1.201483e+003,5.607259e+001
1.202447e+003,5.550477e+001
1.203411e+003,5.421987e+001
1.204376e+003,5.354878e+001
1.205340e+003,5.373566e+001
1.206304e+003,5.409206e+001
1.207268e+003,5.417351e+001
1.208233e+003,5.412152e+001
1.209197e+003,5.353833e+001
1.210161e+003,5.246655e+001
1.211125e+003,5.273037e+001
1.212089e+003,5.544341e+001
1.213054e+003,5.837617e+001
1.214018e+003,5.912966e+001
1.214982e+003,5.795483e+001
1.215946e+003,5.648308e+001
1.216911e+003,5.402849e+001
1.217875e+003,5.271471e+001
1.218839e+003,5.353705e+001
1.219803e+003,5.499739e+001
1.220768e+003,5.629742e+001
1.221732e+003,5.737901e+001
1.222696e+003,5.854067e+001
1.223660e+003,5.989185e+001
1.224625e+003,6.095155e+001
1.225589e+003,6.068007e+001
1.226553e+003,5.899916e+001
1.227517e+003,5.872892e+001
1.228481e+003,6.052806e+001
1.229446e+003,6.219234e+001
1.230410e+003,6.290411e+001
1.231374e+003,6.277161e+001
1.232338e+003,6.160991e+001
1.233303e+003,5.935487e+001
1.234267e+003,5.815950e+001
1.235231e+003,5.918257e+001
1.236195e+003,6.088774e+001
1.237160e+003,6.291611e+001
1.238124e+003,6.470431e+001
1.239088e+003,6.546712e+001
1.240052e+003,6.524413e+001
1.241016e+003,6.490562e+001
1.241981e+003,6.527106e+001
1.242945e+003,6.613594e+001
1.243909e+003,6.661163e+001
1.244873e+003,6.671816e+001
1.245838e+003,6.641441e+001
1.246802e+003,6.515665e+001
1.247766e+003,6.402174e+001
1.248730e+003,6.289508e+001
1.249695e+003,6.249108e+001
1.250659e+003,6.521684e+001
1.251623e+003,7.202681e+001
1.252587e+003,7.701540e+001
1.253552e+003,7.438255e+001
1.254516e+003,6.977108e+001
1.255480e+003,6.891939e+001
1.256444e+003,7.064601e+001
1.257408e+003,7.189469e+001
1.258373e+003,7.146488e+001
1.259337e+003,7.032037e+001
1.260301e+003,6.983950e+001
1.261265e+003,7.008104e+001
1.262230e+003,6.963770e+001
1.263194e+003,6.674199e+001
1.264158e+003,6.541307e+001
1.265122e+003,6.712417e+001
1.266087e+003,6.930569e+001
1.267051e+003,7.029462e+001
1.268015e+003,7.037811e+001
1.268979e+003,7.067783e+001
1.269943e+003,7.162644e+001
1.270908e+003,7.266536e+001
1.271872e+003,7.317222e+001
1.272836e+003,7.335997e+001
1.273800e+003,7.376492e+001
1.274765e+003,7.438786e+001
1.275729e+003,7.504933e+001
1.276693e+003,7.574990e+001
1.277657e+003,7.627330e+001
1.278622e+003,7.614449e+001
1.279586e+003,7.526780e+001
1.280550e+003,7.463161e+001
1.281514e+003,7.468086e+001
1.282479e+003,7.477372e+001
1.283443e+003,7.427670e+001
1.284407e+003,7.403481e+001
1.285371e+003,7.492244e+001
1.286335e+003,7.653117e+001
1.287300e+003,7.769771e+001
1.288264e+003,7.790540e+001
1.289228e+003,7.809337e+001
1.290192e+003,7.986803e+001
1.291157e+003,8.304073e+001
1.292121e+003,8.377948e+001
1.293085e+003,8.090895e+001
1.294049e+003,7.904808e+001
1.295014e+003,8.102012e+001
1.295978e+003,8.405922e+001
1.296942e+003,8.467812e+001
1.297906e+003,8.305202e+001
1.298870e+003,8.171104e+001
1.299835e+003,8.101282e+001
1.300799e+003,8.116670e+001
1.301763e+003,8.329092e+001
1.302727e+003,8.553214e+001
1.303692e+003,8.594456e+001
1.304656e+003,8.501675e+001
1.305620e+003,8.473401e+001
1.306584e+003,8.617606e+001
1.307549e+003,8.834602e+001
1.308513e+003,8.942886e+001
1.309477e+003,8.932815e+001
1.310441e+003,8.831586e+001
1.311406e+003,8.485829e+001
1.312370e+003,8.287654e+001
1.313334e+003,8.395337e+001
1.314298e+003,8.586227e+001
1.315263e+003,8.675902e+001
1.316227e+003,8.677743e+001
1.317191e+003,8.709296e+001
1.318155e+003,8.822278e+001
1.319120e+003,8.932723e+001
1.320084e+003,8.924636e+001
1.321048e+003,8.860604e+001
1.322012e+003,8.910632e+001
1.322976e+003,9.063554e+001
1.323941e+003,9.146684e+001
1.324905e+003,9.066986e+001
1.325869e+003,8.935824e+001
1.326833e+003,8.910642e+001
1.327798e+003,8.987158e+001
1.328762e+003,9.050073e+001
1.329726e+003,9.048871e+001
1.330690e+003,9.105168e+001
1.331655e+003,9.316935e+001
1.332619e+003,9.530824e+001
1.333583e+003,9.645895e+001
1.334547e+003,9.677777e+001
1.335511e+003,9.684434e+001
1.336476e+003,9.688408e+001
1.337440e+003,9.661031e+001
1.338404e+003,9.567716e+001
1.339368e+003,9.418005e+001
1.340333e+003,9.243290e+001
1.341297e+003,8.962980e+001
1.342261e+003,8.870823e+001
1.343225e+003,9.161985e+001
1.344190e+003,9.486672e+001
1.345154e+003,9.552329e+001
1.346118e+003,9.480261e+001
1.347082e+003,9.625153e+001
1.348047e+003,1.007944e+002
1.349011e+003,1.040342e+002
1.349975e+003,1.026120e+002
1.350939e+003,9.954887e+001
1.351903e+003,9.748901e+001
1.352868e+003,9.653479e+001
1.353832e+003,9.730039e+001
1.354796e+003,9.984467e+001
1.355760e+003,1.026019e+002
1.356725e+003,1.042760e+002
1.357689e+003,1.048239e+002
1.358653e+003,1.036083e+002
1.359617e+003,9.923830e+001
1.360582e+003,9.713716e+001
1.361546e+003,9.915763e+001
1.362510e+003,1.016433e+002
1.363474e+003,1.048752e+002
1.364438e+003,1.072548e+002
1.365403e+003,1.058540e+002
1.366367e+003,1.015323e+002
1.367331e+003,9.906767e+001
1.368295e+003,1.016166e+002
1.369260e+003,1.060015e+002
1.370224e+003,1.064123e+002
1.371188e+003,1.030875e+002
1.372152e+003,1.023954e+002
1.373117e+003,1.051276e+002
1.374081e+003,1.074972e+002
1.375045e+003,1.081759e+002
1.376009e+003,1.079399e+002
1.376974e+003,1.072303e+002
1.377938e+003,1.063743e+002
1.378902e+003,1.067619e+002
1.379866e+003,1.090518e+002
1.380830e+003,1.112581e+002
1.381795e+003,1.120323e+002
1.382759e+003,1.120628e+002
1.383723e+003,1.117172e+002
1.384687e+003,1.112655e+002
1.385652e+003,1.111646e+002
1.386616e+003,1.115711e+002
1.387580e+003,1.122008e+002
1.388544e+003,1.126999e+002
1.389509e+003,1.130218e+002
1.390473e+003,1.133508e+002
1.391437e+003,1.140094e+002
1.392401e+003,1.143118e+002
1.393365e+003,1.130905e+002
1.394330e+003,1.126486e+002
1.395294e+003,1.145198e+002
1.396258e+003,1.172158e+002
1.397222e+003,1.194242e+002
1.398187e+003,1.207764e+002
1.399151e+003,1.210482e+002
1.400115e+003,1.199288e+002
1.401079e+003,1.179889e+002
1.402044e+003,1.164332e+002
1.403008e+003,1.152989e+002
1.403972e+003,1.139119e+002
1.404936e+003,1.115501e+002
1.405901e+003,1.109119e+002
1.406865e+003,1.139521e+002
1.407829e+003,1.181182e+002
1.408793e+003,1.210290e+002
1.409757e+003,1.227742e+002
1.410722e+003,1.240707e+002
1.411686e+003,1.249924e+002
1.412650e+003,1.253330e+002
1.413614e+003,1.250010e+002
1.414579e+003,1.242097e+002
1.415543e+003,1.224593e+002
1.416507e+003,1.205669e+002
1.417471e+003,1.209555e+002
1.418436e+003,1.242699e+002
1.419400e+003,1.273999e+002
1.420364e+003,1.267723e+002
1.421328e+003,1.238893e+002
1.422292e+003,1.254354e+002
1.423257e+003,1.334194e+002
1.424221e+003,1.379359e+002
1.425185e+003,1.343992e+002
1.426149e+003,1.307462e+002
1.427114e+003,1.291815e+002
1.428078e+003,1.289320e+002
1.429042e+003,1.292004e+002
1.430006e+003,1.296795e+002
1.430971e+003,1.304062e+002
1.431935e+003,1.313867e+002
1.432899e+003,1.322728e+002
1.433863e+003,1.325616e+002
1.434828e+003,1.324051e+002
1.435792e+003,1.326667e+002
1.436756e+003,1.330325e+002
1.437720e+003,1.337911e+002
1.438684e+003,1.354053e+002
1.439649e+003,1.372928e+002
1.440613e+003,1.397575e+002
1.441577e+003,1.420105e+002
1.442541e+003,1.422049e+002
1.443506e+003,1.402567e+002
1.444470e+003,1.387846e+002
1.445434e+003,1.393606e+002
1.446398e+003,1.413318e+002
1.447363e+003,1.449896e+002
1.448327e+003,1.488717e+002
1.449291e+003,1.482498e+002
1.450255e+003,1.426767e+002
1.451219e+003,1.391328e+002
1.452184e+003,1.422145e+002
1.453148e+003,1.473288e+002
1.454112e+003,1.484922e+002
1.455076e+003,1.463170e+002
1.456041e+003,1.447359e+002
1.457005e+003,1.444019e+002
1.457969e+003,1.443649e+002
1.458933e+003,1.436340e+002
1.459898e+003,1.436941e+002
1.460862e+003,1.465970e+002
1.461826e+003,1.502576e+002
1.462790e+003,1.511321e+002
1.463755e+003,1.490211e+002
1.464719e+003,1.471247e+002
1.465683e+003,1.478161e+002
1.466647e+003,1.501659e+002
1.467611e+003,1.521635e+002
1.468576e+003,1.538641e+002
1.469540e+003,1.542807e+002
1.470504e+003,1.521968e+002
1.471468e+003,1.508898e+002
1.472433e+003,1.509652e+002
1.473397e+003,1.516648e+002
1.474361e+003,1.530984e+002
1.475325e+003,1.546180e+002
1.476290e+003,1.549806e+002
1.477254e+003,1.541089e+002
1.478218e+003,1.536068e+002
1.479182e+003,1.548412e+002
1.480146e+003,1.569116e+002
1.481111e+003,1.575965e+002
1.482075e+003,1.566464e+002
1.483039e+003,1.560289e+002
1.484003e+003,1.558618e+002
1.484968e+003,1.557402e+002
1.485932e+003,1.558103e+002
1.486896e+003,1.559818e+002
1.487860e+003,1.559722e+002
1.488825e+003,1.558056e+002
1.489789e+003,1.555243e+002
1.490753e+003,1.552554e+002
1.491717e+003,1.562142e+002
1.492682e+003,1.598564e+002
1.493646e+003,1.638038e+002
1.494610e+003,1.634016e+002
1.495574e+003,1.600383e+002
1.496538e+003,1.580457e+002
1.497503e+003,1.579421e+002
1.498467e+003,1.587348e+002
1.499431e+003,1.605975e+002
1.500395e+003,1.624027e+002
1.501360e+003,1.626724e+002
1.502324e+003,1.617951e+002
1.503288e+003,1.609826e+002
1.504252e+003,1.601552e+002
1.505217e+003,1.601292e+002
1.506181e+003,1.625260e+002
1.507145e+003,1.644534e+002
1.508109e+003,1.628449e+002
1.509073e+003,1.596684e+002
1.510038e+003,1.580524e+002
1.511002e+003,1.583836e+002
1.511966e+003,1.593091e+002
1.512930e+003,1.602057e+002
1.513895e+003,1.606456e+002
1.514859e+003,1.592953e+002
1.515823e+003,1.560635e+002
1.516787e+003,1.543911e+002
1.517752e+003,1.552200e+002
1.518716e+003,1.559115e+002
1.519680e+003,1.551307e+002
1.520644e+003,1.545486e+002
1.521609e+003,1.553899e+002
1.522573e+003,1.565520e+002
1.523537e+003,1.571828e+002
1.524501e+003,1.569657e+002
1.525465e+003,1.550446e+002
1.526430e+003,1.509828e+002
1.527394e+003,1.468718e+002
1.528358e+003,1.462369e+002
1.529322e+003,1.488705e+002
1.530287e+003,1.502451e+002
1.531251e+003,1.498491e+002
1.532215e+003,1.493679e+002
1.533179e+003,1.480509e+002
1.534144e+003,1.475031e+002
1.535108e+003,1.496848e+002
1.536072e+003,1.518924e+002
1.537036e+003,1.500788e+002
1.538000e+003,1.457221e+002
1.538965e+003,1.445166e+002
1.539929e+003,1.486709e+002
1.540893e+003,1.534820e+002
1.541857e+003,1.536764e+002
1.542822e+003,1.503153e+002
1.543786e+003,1.471230e+002
1.544750e+003,1.434234e+002
1.545714e+003,1.421222e+002
1.546679e+003,1.456478e+002
1.547643e+003,1.480366e+002
1.548607e+003,1.467519e+002
1.549571e+003,1.442540e+002
1.550536e+003,1.424621e+002
1.551500e+003,1.413754e+002
1.552464e+003,1.405873e+002
1.553428e+003,1.400894e+002
1.554392e+003,1.401617e+002
1.555357e+003,1.410858e+002
1.556321e+003,1.419862e+002
1.557285e+003,1.409557e+002
1.558249e+003,1.382455e+002
1.559214e+003,1.372362e+002
1.560178e+003,1.388477e+002
1.561142e+003,1.398015e+002
1.562106e+003,1.378860e+002
1.563071e+003,1.356974e+002
1.564035e+003,1.361782e+002
1.564999e+003,1.382287e+002
1.565963e+003,1.391626e+002
1.566927e+003,1.384392e+002
1.567892e+003,1.360417e+002
1.568856e+003,1.314255e+002
1.569820e+003,1.268446e+002
1.570784e+003,1.251862e+002
1.571749e+003,1.253955e+002
1.572713e+003,1.248862e+002
1.573677e+003,1.237112e+002
1.574641e+003,1.229311e+002
1.575606e+003,1.229748e+002
1.576570e+003,1.229899e+002
1.577534e+003,1.226665e+002
1.578498e+003,1.218404e+002
1.579463e+003,1.195680e+002
1.580427e+003,1.159971e+002
1.581391e+003,1.140393e+002
1.582355e+003,1.149712e+002
1.583319e+003,1.158135e+002
1.584284e+003,1.143784e+002
1.585248e+003,1.122261e+002
1.586212e+003,1.108467e+002
1.587176e+003,1.100384e+002
1.588141e+003,1.100757e+002
1.589105e+003,1.111649e+002
1.590069e+003,1.111079e+002
1.591033e+003,1.073776e+002
1.591998e+003,1.029902e+002
1.592962e+003,1.031600e+002
1.593926e+003,1.068219e+002
1.594890e+003,1.080288e+002
1.595854e+003,1.059643e+002
1.596819e+003,1.034644e+002
1.597783e+003,1.012021e+002
1.598747e+003,9.908907e+001
1.599711e+003,9.681272e+001
1.600676e+003,9.477733e+001
1.601640e+003,9.361672e+001
1.602604e+003,9.334309e+001
1.603568e+003,9.376837e+001
1.604533e+003,9.485808e+001
1.605497e+003,9.532810e+001
1.606461e+003,9.364806e+001
1.607425e+003,9.057059e+001
1.608390e+003,8.782790e+001
1.609354e+003,8.547941e+001
1.610318e+003,8.510294e+001
1.611282e+003,8.808257e+001
1.612246e+003,8.965834e+001
1.613211e+003,8.590562e+001
1.614175e+003,8.167660e+001
1.615139e+003,8.073439e+001
1.616103e+003,8.153258e+001
1.617068e+003,8.133805e+001
1.618032e+003,7.979590e+001
1.618996e+003,7.825565e+001
1.619960e+003,7.743164e+001
1.620925e+003,7.685020e+001
1.621889e+003,7.609208e+001
1.622853e+003,7.513591e+001
1.623817e+003,7.347194e+001
1.624781e+003,7.099375e+001
1.625746e+003,6.895034e+001
1.626710e+003,6.748987e+001
1.627674e+003,6.646391e+001
1.628638e+003,6.598348e+001
1.629603e+003,6.554845e+001
1.630567e+003,6.522386e+001
1.631531e+003,6.460162e+001
1.632495e+003,6.235595e+001
1.633460e+003,5.855593e+001
1.634424e+003,5.598649e+001
1.635388e+003,5.682024e+001
1.636352e+003,5.929075e+001
1.637317e+003,6.051229e+001
1.638281e+003,6.050278e+001
1.639245e+003,5.953655e+001
1.640209e+003,5.734212e+001
1.641173e+003,5.517228e+001
1.642138e+003,5.325488e+001
1.643102e+003,5.167427e+001
1.644066e+003,5.064842e+001
1.645030e+003,4.975380e+001
1.645995e+003,4.813863e+001
1.646959e+003,4.635397e+001
1.647923e+003,4.617816e+001
1.648887e+003,4.802283e+001
1.649852e+003,4.964881e+001
1.650816e+003,4.905759e+001
1.651780e+003,4.741474e+001
1.652744e+003,4.744661e+001
1.653708e+003,4.904590e+001
1.654673e+003,4.908562e+001
1.655637e+003,4.705616e+001
1.656601e+003,4.471144e+001
1.657565e+003,4.222215e+001
1.658530e+003,4.004493e+001
1.659494e+003,3.852377e+001
1.660458e+003,3.729877e+001
1.661422e+003,3.589391e+001
1.662387e+003,3.444663e+001
1.663351e+003,3.349574e+001
1.664315e+003,3.322160e+001
1.665279e+003,3.321827e+001
1.666244e+003,3.322819e+001
1.667208e+003,3.320634e+001
1.668172e+003,3.298090e+001
1.669136e+003,3.253656e+001
1.670100e+003,3.213737e+001
1.671065e+003,3.186377e+001
1.672029e+003,3.128968e+001
1.672993e+003,3.013153e+001
1.673957e+003,2.900684e+001
1.674922e+003,2.816739e+001
1.675886e+003,2.758051e+001
1.676850e+003,2.751361e+001
1.677814e+003,2.768422e+001
1.678779e+003,2.705359e+001
1.679743e+003,2.529357e+001
1.680707e+003,2.369896e+001
1.681671e+003,2.341187e+001
1.682635e+003,2.371697e+001
1.683600e+003,2.324942e+001
1.684564e+003,2.223269e+001
1.685528e+003,2.215208e+001
1.686492e+003,2.331639e+001
1.687457e+003,2.336752e+001
1.688421e+003,2.086830e+001
1.689385e+003,1.839078e+001
1.690349e+003,1.836058e+001
1.691314e+003,1.921912e+001
1.692278e+003,1.918397e+001
1.693242e+003,1.834793e+001
1.694206e+003,1.743157e+001
1.695171e+003,1.658667e+001
1.696135e+003,1.594780e+001
1.697099e+003,1.564667e+001
1.698063e+003,1.553980e+001
1.699027e+003,1.571891e+001
1.699992e+003,1.593968e+001
1.700956e+003,1.500784e+001
1.701920e+003,1.285076e+001
1.702884e+003,1.196006e+001
1.703849e+003,1.361095e+001
1.704813e+003,1.502910e+001
1.705777e+003,1.375757e+001
1.706741e+003,1.133354e+001
1.707706e+003,1.037487e+001
1.708670e+003,1.050292e+001
1.709634e+003,1.002637e+001
1.710598e+003,8.528229e+000
1.711563e+003,7.670068e+000
1.712527e+003,8.721967e+000
1.713491e+003,1.003661e+001
1.714455e+003,1.030278e+001
1.715419e+003,9.941742e+000
1.716384e+003,9.751898e+000
1.717348e+003,9.665045e+000
1.718312e+003,8.711505e+000
1.719276e+003,6.576495e+000
1.720241e+003,5.212628e+000
1.721205e+003,6.231369e+000
1.722169e+003,8.178668e+000
1.723133e+003,8.811908e+000
1.724098e+003,8.278974e+000
1.725062e+003,7.499463e+000
1.726026e+003,6.323718e+000
1.726990e+003,5.323657e+000
1.727954e+003,4.446060e+000
1.728919e+003,3.951977e+000
1.729883e+003,4.173892e+000
1.730847e+003,4.672601e+000
1.731811e+003,5.064276e+000
1.732776e+003,5.344409e+000
1.733740e+003,5.863266e+000
1.734704e+003,6.495502e+000
1.735668e+003,6.026785e+000
1.736633e+003,3.756732e+000
1.737597e+003,1.187280e+000
1.738561e+003,2.883301e-001
1.739525e+003,8.849487e-001
1.740490e+003,2.124329e+000
1.741454e+003,4.482205e+000
1.742418e+003,5.570670e+000
1.743382e+003,4.703165e+000
1.744346e+003,3.659708e+000
1.745311e+003,2.518936e+000
1.746275e+003,1.495200e+000
1.747239e+003,5.092499e-001
1.748203e+003,-1.131775e-001
1.749168e+003,3.736267e-001
1.750132e+003,1.529977e+000
1.751096e+003,1.994089e+000
1.752060e+003,1.279114e+000
1.753025e+003,1.273376e-001
1.753989e+003,-7.943786e-001
1.754953e+003,-1.364340e+000
1.755917e+003,-1.160687e+000
1.756881e+003,-1.589142e-001
1.757846e+003,-3.532929e-001
1.758810e+003,-2.625397e+000
1.759774e+003,-3.437018e+000
1.760738e+003,-8.796051e-001
1.761703e+003,1.143088e+000
1.762667e+003,9.387085e-001
1.763631e+003,-1.300049e-002
1.764595e+003,-1.002286e+000
1.765560e+003,-1.609741e+000
1.766524e+003,-1.003238e+000
1.767488e+003,6.275299e-001
1.768452e+003,1.717709e+000
1.769417e+003,1.486752e+000
1.770381e+003,4.215515e-001
1.771345e+003,-1.526456e+000
1.772309e+003,-3.676446e+000
1.773273e+003,-4.027338e+000
1.774238e+003,-2.782153e+000
1.775202e+003,-2.218002e+000
1.776166e+003,-2.764737e+000
1.777130e+003,-2.781613e+000
1.778095e+003,-1.203122e+000
1.779059e+003,2.226257e-001
1.780023e+003,-2.396027e-001
1.780987e+003,-1.658096e+000
1.781952e+003,-2.498242e+000
1.782916e+003,-2.907095e+000
1.783880e+003,-3.580676e+000
1.784844e+003,-4.752948e+000
1.785808e+003,-5.361246e+000
1.786773e+003,-4.454358e+000
1.787737e+003,-3.414361e+000
1.788701e+003,-3.559143e+000
1.789665e+003,-4.096582e+000
1.790630e+003,-3.605194e+000
1.791594e+003,-2.403512e+000
1.792558e+003,-1.971149e+000
1.793522e+003,-2.654620e+000
1.794487e+003,-3.601291e+000
1.795451e+003,-4.289322e+000
1.796415e+003,-4.573224e+000
1.797379e+003,-4.194907e+000
1.798344e+003,-3.416910e+000
1.799308e+003,-3.486563e+000
1.800272e+003,-4.974618e+000
1.801236e+003,-5.175757e+000
1.802201e+003,-2.670871e+000
1.803165e+003,-1.073923e+000
1.804129e+003,-1.697418e+000
1.805093e+003,-2.407727e+000
1.806057e+003,-1.896307e+000
1.807022e+003,-1.001196e+000
1.807986e+003,-6.740295e-001
1.808950e+003,-8.669006e-001
1.809914e+003,-1.139282e+000
1.810879e+003,-1.340768e+000
1.811843e+003,-1.562796e+000
1.812807e+003,-1.876773e+000
1.813771e+003,-2.298852e+000
1.814736e+003,-2.887247e+000
1.815700e+003,-3.551624e+000
1.816664e+003,-3.779468e+000
1.817628e+003,-3.505484e+000
1.818593e+003,-3.645319e+000
1.819557e+003,-4.439493e+000
1.820521e+003,-5.132690e+000
1.821485e+003,-5.591113e+000
1.822449e+003,-5.711877e+000
1.823414e+003,-5.053519e+000
1.824378e+003,-4.329663e+000
1.825342e+003,-4.735404e+000
1.826306e+003,-5.872665e+000
1.827271e+003,-6.027930e+000
1.828235e+003,-4.756668e+000
1.829199e+003,-3.351810e+000
1.830163e+003,-1.986560e+000
1.831128e+003,-1.303342e+000
1.832092e+003,-2.661392e+000
1.833056e+003,-4.562927e+000
1.834020e+003,-4.158978e+000
1.834984e+003,-2.181799e+000
1.835949e+003,-1.748984e+000
1.836913e+003,-3.343652e+000
1.837877e+003,-4.771881e+000
1.838841e+003,-4.886209e+000
1.839806e+003,-4.063489e+000
1.840770e+003,-2.531412e+000
1.841734e+003,-8.549896e-001
1.842698e+003,-8.458679e-001
1.843663e+003,-2.782452e+000
1.844627e+003,-3.479584e+000
1.845591e+003,-1.671909e+000
1.846555e+003,-6.578979e-001
1.847520e+003,-1.292639e+000
1.848484e+003,-1.817715e+000
1.849448e+003,-1.457529e+000
1.850412e+003,-7.471283e-001
1.851376e+003,1.654785e-001
1.852341e+003,8.937408e-001
1.853305e+003,9.467010e-001
1.854269e+003,2.373322e-001
1.855233e+003,-1.355841e+000
1.856198e+003,-3.774286e+000
1.857162e+003,-5.373602e+000
1.858126e+003,-4.201529e+000
1.859090e+003,-1.692761e+000
1.860055e+003,-7.367706e-001
1.861019e+003,-1.174136e+000
1.861983e+003,-2.014184e+000
1.862947e+003,-3.216998e+000
1.863911e+003,-3.757330e+000
1.864876e+003,-3.252698e+000
1.865840e+003,-2.547431e+000
1.866804e+003,-1.982028e+000
1.867768e+003,-1.682397e+000
1.868733e+003,-1.957150e+000
1.869697e+003,-2.581342e+000
1.870661e+003,-2.894995e+000
1.871625e+003,-2.900308e+000
1.872590e+003,-2.530463e+000
1.873554e+003,-1.347711e+000
1.874518e+003,-6.366302e-001
1.875482e+003,-1.025326e+000
1.876447e+003,-1.633737e+000
1.877411e+003,-1.919144e+000
1.878375e+003,-2.133594e+000
1.879339e+003,-2.997446e+000
1.880303e+003,-3.972705e+000
1.881268e+003,-3.504297e+000
1.882232e+003,-1.660751e+000
1.883196e+003,-4.356659e-001
1.884160e+003,-8.498963e-001
1.885125e+003,-1.575565e+000
1.886089e+003,-1.086282e+000
1.887053e+003,-8.746338e-003
1.888017e+003,-1.926361e-001
1.888982e+003,-1.649103e+000
1.889946e+003,-2.281479e+000
1.890910e+003,-1.908194e+000
1.891874e+003,-1.609134e+000
1.892839e+003,-1.706131e+000
1.893803e+003,-1.653671e+000
1.894767e+003,-9.753693e-001
1.895731e+003,-2.544342e-001
1.896695e+003,-2.011597e-001
1.897660e+003,-3.937073e-001
1.898624e+003,1.989960e-001
1.899588e+003,1.380411e+000
1.900552e+003,1.118112e+000
1.901517e+003,-1.634943e+000
1.902481e+003,-3.415784e+000
1.903445e+003,-2.046075e+000
1.904409e+003,-1.967926e-001
1.905374e+003,8.476288e-001
1.906338e+003,1.081119e+000
1.907302e+003,-2.880066e-001
1.908266e+003,-2.217273e+000
1.909230e+003,-2.267468e+000
1.910195e+003,-4.976440e-001
1.911159e+003,7.322723e-001
1.912123e+003,4.066772e-001
1.913087e+003,-1.546326e-001
1.914052e+003,3.079529e-001
1.915016e+003,9.838135e-001
1.915980e+003,-1.932983e-002
1.916944e+003,-2.458057e+000
1.917909e+003,-2.819742e+000
1.918873e+003,-5.528809e-001
1.919837e+003,5.210571e-001
1.920801e+003,-5.560364e-001
1.921766e+003,-1.272855e+000
1.922730e+003,-3.767334e-001
1.923694e+003,4.565247e-001
1.924658e+003,-5.345123e-001
1.925622e+003,-1.795276e+000
1.926587e+003,-1.051477e+000
1.927551e+003,1.038147e+000
1.928515e+003,1.951236e+000
1.929479e+003,1.317358e+000
1.930444e+003,8.517456e-001
1.931408e+003,1.414490e+000
1.932372e+003,1.603857e+000
1.933336e+003,3.571777e-001
1.934301e+003,-1.065976e+000
1.935265e+003,-1.702133e+000
1.936229e+003,-1.782050e+000
1.937193e+003,-1.672058e+000
1.938157e+003,-1.436514e+000
1.939122e+003,-8.451904e-001
1.940086e+003,1.955872e-002
1.941050e+003,3.811798e-001
1.942014e+003,-2.151611e-001
1.942979e+003,-9.392914e-001
1.943943e+003,-6.898376e-001
1.944907e+003,6.831970e-002
1.945871e+003,-2.737457e-001
1.946836e+003,-1.583682e+000
1.947800e+003,-1.030319e+000
1.948764e+003,1.792236e+000
1.949728e+003,2.497186e+000
1.950693e+003,-5.297363e-001
1.951657e+003,-2.966284e+000
1.952621e+003,-2.414044e+000
1.953585e+003,-1.035065e+000
1.954549e+003,-7.746429e-001
1.955514e+003,-1.211862e+000
1.956478e+003,-1.666406e+000
1.957442e+003,-2.088943e+000
1.958406e+003,-1.515314e+000
1.959371e+003,7.718628e-001
1.960335e+003,2.052856e+000
1.961299e+003,1.062042e+000
1.962263e+003,3.158356e-001
1.963228e+003,8.210602e-001
1.964192e+003,1.672022e+000
1.965156e+003,2.776358e+000
1.966120e+003,3.429617e+000
1.967084e+003,2.286926e+000
1.968049e+003,2.058838e-001
1.969013e+003,-6.589447e-001
1.969977e+003,1.296844e-001
1.970941e+003,1.527035e+000
1.971906e+003,3.040466e+000
1.972870e+003,3.738693e+000
1.973834e+003,2.130942e+000
1.974798e+003,-4.320496e-001
1.975763e+003,-1.972687e+000
1.976727e+003,-2.482495e+000
1.977691e+003,-1.324179e+000
1.978655e+003,1.114438e+000
1.979620e+003,2.193936e+000
1.980584e+003,1.382416e+000
1.981548e+003,5.093933e-001
1.982512e+003,5.002594e-001
1.983476e+003,8.383423e-001
1.984441e+003,1.022174e+000
1.985405e+003,1.145496e+000
1.986369e+003,1.498193e+000
1.987333e+003,2.088434e+000
1.988298e+003,1.827118e+000
1.989262e+003,3.404541e-002
1.990226e+003,-7.559387e-001
1.991190e+003,1.266113e-001
1.992155e+003,9.796631e-001
1.993119e+003,1.520819e+000
1.994083e+003,1.801965e+000
1.995047e+003,1.576404e+000
1.996011e+003,1.282642e+000
1.996976e+003,1.592203e+000
1.997940e+003,2.169891e+000
1.998904e+003,1.998309e+000
1.999868e+003,1.043439e+000
2.000833e+003,7.042297e-001
2.001797e+003,1.601059e+000
2.002761e+003,2.373572e+000
2.003725e+003,2.167444e+000
2.004690e+003,2.072058e+000
2.005654e+003,3.171338e+000
2.006618e+003,4.375995e+000
2.007582e+003,4.574881e+000
2.008547e+003,4.025287e+000
2.009511e+003,2.974380e+000
2.010475e+003,1.846884e+000
2.011439e+003,1.702463e+000
2.012403e+003,2.727115e+000
2.013368e+003,3.499252e+000
2.014332e+003,2.979199e+000
2.015296e+003,2.028290e+000
2.016260e+003,1.610269e+000
2.017225e+003,1.731885e+000
2.018189e+003,2.650827e+000
2.019153e+003,4.086596e+000
2.020117e+003,4.972046e+000
2.021082e+003,5.228427e+000
2.022046e+003,5.198364e+000
2.023010e+003,4.994125e+000
2.023974e+003,4.386661e+000
2.024938e+003,3.162558e+000
2.025903e+003,2.304574e+000
2.026867e+003,2.933371e+000
2.027831e+003,4.348663e+000
2.028795e+003,4.893945e+000
2.029760e+003,4.642835e+000
2.030724e+003,4.770026e+000
2.031688e+003,5.548569e+000
2.032652e+003,5.378802e+000
2.033617e+003,3.451010e+000
2.034581e+003,2.407300e+000
2.035545e+003,3.469177e+000
2.036509e+003,4.719971e+000
2.037474e+003,4.951544e+000
2.038438e+003,4.905960e+000
2.039402e+003,5.725656e+000
2.040366e+003,6.784378e+000
2.041330e+003,6.490881e+000
2.042295e+003,4.887347e+000
2.043259e+003,3.705652e+000
2.044223e+003,2.968884e+000
2.045187e+003,3.057632e+000
2.046152e+003,4.815323e+000
2.047116e+003,6.312304e+000
2.048080e+003,6.627502e+000
2.049044e+003,6.599997e+000
2.050009e+003,7.075177e+000
2.050973e+003,7.433887e+000
2.051937e+003,6.623273e+000
2.052901e+003,5.143777e+000
2.053865e+003,4.081622e+000
2.054830e+003,3.696759e+000
2.055794e+003,3.917224e+000
2.056758e+003,4.752020e+000
2.057722e+003,5.848276e+000
2.058687e+003,7.447174e+000
2.059651e+003,8.636584e+000
2.060615e+003,8.415609e+000
2.061579e+003,7.253919e+000
2.062544e+003,5.249039e+000
2.063508e+003,3.152350e+000
2.064472e+003,2.393604e+000
2.065436e+003,2.890344e+000
2.066401e+003,3.847098e+000
2.067365e+003,4.799777e+000
2.068329e+003,5.014615e+000
2.069293e+003,4.057495e+000
2.070258e+003,2.882339e+000
2.071222e+003,2.572510e+000
2.072186e+003,2.940314e+000
2.073150e+003,3.747940e+000
2.074115e+003,4.849860e+000
2.075079e+003,5.722171e+000
2.076043e+003,6.269931e+000
2.077007e+003,5.859949e+000
2.077971e+003,4.491687e+000
2.078936e+003,3.764429e+000
2.079900e+003,4.259982e+000
2.080864e+003,4.999573e+000
2.081828e+003,5.314542e+000
2.082792e+003,5.309494e+000
2.083757e+003,5.087164e+000
2.084721e+003,4.745331e+000
2.085685e+003,4.622467e+000
2.086649e+003,4.724072e+000
2.087614e+003,5.483292e+000
2.088578e+003,7.259356e+000
2.089542e+003,7.806125e+000
2.090506e+003,6.344186e+000
2.091471e+003,5.288361e+000
2.092435e+003,5.669848e+000
2.093399e+003,6.206876e+000
2.094363e+003,6.136185e+000
2.095328e+003,5.625116e+000
2.096292e+003,4.589139e+000
2.097256e+003,3.371515e+000
2.098220e+003,3.336789e+000
2.099185e+003,4.639209e+000
2.100149e+003,5.996176e+000
2.101113e+003,8.084598e+000
2.102077e+003,8.888721e+000
2.103042e+003,7.243411e+000
2.104006e+003,5.911340e+000
2.104970e+003,5.603467e+000
2.105934e+003,5.653354e+000
2.106898e+003,5.839816e+000
2.107863e+003,6.066010e+000
2.108827e+003,6.426343e+000
2.109791e+003,6.736157e+000
2.110755e+003,6.403784e+000
2.111719e+003,5.443460e+000
2.112684e+003,4.986658e+000
2.113648e+003,5.543103e+000
2.114612e+003,5.677915e+000
2.115576e+003,4.686456e+000
2.116541e+003,3.731372e+000
2.117505e+003,2.805997e+000
2.118469e+003,2.567633e+000
2.119433e+003,4.158267e+000
2.120398e+003,6.017020e+000
2.121362e+003,6.508929e+000
2.122326e+003,5.987823e+000
2.123290e+003,5.157678e+000
2.124255e+003,4.332660e+000
2.125219e+003,4.167035e+000
2.126183e+003,4.892740e+000
2.127147e+003,5.456637e+000
2.128112e+003,5.318512e+000
2.129076e+003,5.056604e+000
2.130040e+003,4.834070e+000
2.131004e+003,4.737170e+000
2.131969e+003,4.817843e+000
2.132933e+003,5.035950e+000
2.133897e+003,5.638394e+000
2.134861e+003,6.269635e+000
2.135825e+003,6.110297e+000
2.136790e+003,5.295114e+000
2.137754e+003,4.865784e+000
2.138718e+003,5.095813e+000
2.139682e+003,4.878736e+000
2.140646e+003,3.354645e+000
2.141611e+003,2.083939e+000
2.142575e+003,2.615942e+000
2.143539e+003,3.675369e+000
2.144503e+003,4.213025e+000
2.145468e+003,4.378366e+000
2.146432e+003,4.142215e+000
2.147396e+003,3.802505e+000
2.148360e+003,4.063468e+000
2.149325e+003,4.716904e+000
2.150289e+003,4.793457e+000
2.151253e+003,4.076865e+000
2.152217e+003,3.221515e+000
2.153182e+003,2.607660e+000
2.154146e+003,2.476032e+000
2.155110e+003,3.440518e+000
2.156074e+003,4.407342e+000
2.157039e+003,3.648163e+000
2.158003e+003,2.112814e+000
2.158967e+003,1.091187e+000
2.159931e+003,7.548584e-001
2.160896e+003,1.676059e+000
2.161860e+003,3.330005e+000
2.162824e+003,4.066531e+000
2.163788e+003,3.574469e+000
2.164752e+003,2.675635e+000
2.165717e+003,1.840018e+000
2.166681e+003,1.324481e+000
2.167645e+003,1.366110e+000
2.168609e+003,1.762598e+000
2.169573e+003,2.682968e+000
2.170538e+003,3.495157e+000
2.171502e+003,2.574109e+000
2.172466e+003,6.548249e-001
2.173430e+003,-5.552307e-001
2.174395e+003,-9.696350e-001
2.175359e+003,-9.255127e-001
2.176323e+003,-5.335846e-001
2.177287e+003,4.093048e-001
2.178252e+003,1.796838e+000
2.179216e+003,2.289145e+000
2.180180e+003,9.120514e-001
2.181144e+003,-6.535950e-001
2.182109e+003,-3.112091e-001
2.183073e+003,1.053284e+000
2.184037e+003,2.048630e+000
2.185001e+003,2.597980e+000
2.185966e+003,2.346127e+000
2.186930e+003,1.553003e+000
2.187894e+003,1.027100e+000
2.188858e+003,7.635925e-001
2.189823e+003,3.083801e-002
2.190787e+003,-1.298651e+000
2.191751e+003,-2.387897e+000
2.192715e+003,-2.751749e+000
2.193679e+003,-2.706287e+000
2.194644e+003,-2.551883e+000
2.195608e+003,-2.338016e+000
2.196572e+003,-2.210730e+000
2.197536e+003,-2.043320e+000
2.198500e+003,-1.364117e+000
2.199465e+003,-4.068665e-001
2.200429e+003,1.909363e-001
2.201393e+003,3.671478e-001
2.202357e+003,-9.583740e-002
2.203322e+003,-1.006421e+000
2.204286e+003,-1.131573e+000
2.205250e+003,-1.270325e-001
2.206214e+003,6.630676e-001
2.207179e+003,3.211334e-001
2.208143e+003,-3.783661e-001
2.209107e+003,-4.900269e-001
2.210071e+003,-4.511658e-001
2.211036e+003,-1.425116e+000
2.212000e+003,-2.696664e+000
2.212964e+003,-1.983215e+000
2.213928e+003,-1.916229e-001
2.214893e+003,-5.329071e-001
2.215857e+003,-2.592618e+000
2.216821e+003,-3.261780e+000
2.217785e+003,-2.011237e+000
2.218750e+003,-7.200623e-001
2.219714e+003,-3.213654e-001
2.220678e+003,-6.733673e-001
2.221642e+003,-1.749005e+000
2.222606e+003,-2.562677e+000
2.223571e+003,-1.473685e+000
2.224535e+003,3.553742e-001
2.225499e+003,8.069305e-001
2.226463e+003,4.605225e-001
2.227427e+003,4.628571e-001
2.228392e+003,7.522553e-001
2.229356e+003,9.917145e-001
2.230320e+003,1.094760e+000
2.231284e+003,1.029306e+000
2.232249e+003,7.725769e-001
2.233213e+003,1.870544e-001
2.234177e+003,-7.452515e-001
2.235141e+003,-1.310730e+000
2.236106e+003,-8.137940e-001
2.237070e+003,1.175262e-001
2.238034e+003,6.962372e-001
2.238998e+003,1.215070e+000
2.239963e+003,2.316357e+000
2.240927e+003,3.548746e+000
2.241891e+003,4.173615e+000
2.242855e+003,4.265479e+000
2.243820e+003,4.078866e+000
2.244784e+003,3.687412e+000
2.245748e+003,2.778473e+000
2.246712e+003,1.542120e+000
2.247677e+003,1.626260e+000
2.248641e+003,3.967825e+000
2.249605e+003,6.411310e+000
2.250569e+003,7.243878e+000
2.251533e+003,7.443436e+000
2.252498e+003,7.820816e+000
2.253462e+003,8.092844e+000
2.254426e+003,7.790708e+000
2.255390e+003,7.349774e+000
2.256354e+003,7.264551e+000
2.257319e+003,7.540558e+000
2.258283e+003,8.792719e+000
2.259247e+003,1.021505e+001
2.260211e+003,8.832746e+000
2.261176e+003,4.285886e+000
2.262140e+003,1.123065e+000
2.263104e+003,1.643732e+000
2.264068e+003,2.435339e+000
2.265033e+003,1.384302e+000
2.265997e+003,3.062714e-001
2.266961e+003,3.012878e-001
2.267925e+003,6.596222e-001
2.268890e+003,1.074863e+000
2.269854e+003,1.317630e+000
2.270818e+003,1.328867e+000
2.271782e+003,9.617218e-001
2.272747e+003,-4.017883e-001
2.273711e+003,-2.325424e+000
2.274675e+003,-3.031125e+000
2.275639e+003,-2.161984e+000
2.276604e+003,-1.728863e+000
2.277568e+003,-2.588645e+000
2.278532e+003,-3.172446e+000
2.279496e+003,-2.775641e+000
2.280460e+003,-2.554129e+000
2.281425e+003,-3.189581e+000
2.282389e+003,-3.787131e+000
2.283353e+003,-3.908902e+000
2.284317e+003,-3.611209e+000
2.285281e+003,-2.387592e+000
2.286246e+003,-1.131741e+000
2.287210e+003,-1.756332e+000
2.288174e+003,-3.865375e+000
2.289138e+003,-4.746100e+000
2.290103e+003,-4.014667e+000
2.291067e+003,-3.666394e+000
2.292031e+003,-3.886063e+000
2.292995e+003,-4.117639e+000
2.293960e+003,-4.469397e+000
2.294924e+003,-4.638455e+000
2.295888e+003,-4.434161e+000
2.296852e+003,-4.263003e+000
2.297817e+003,-4.440567e+000
2.298781e+003,-4.457748e+000
2.299745e+003,-3.627646e+000
2.300709e+003,-2.679602e+000
2.301674e+003,-2.972336e+000
2.302638e+003,-4.256412e+000
2.303602e+003,-5.252332e+000
2.304566e+003,-5.999359e+000
2.305531e+003,-5.992068e+000
2.306495e+003,-5.016815e+000
2.307459e+003,-4.814835e+000
2.308423e+003,-5.698358e+000
2.309387e+003,-5.979428e+000
2.310352e+003,-5.171496e+000
2.311316e+003,-4.546866e+000
2.312280e+003,-4.724991e+000
2.313244e+003,-4.877460e+000
2.314208e+003,-4.316223e+000
2.315173e+003,-3.512399e+000
2.316137e+003,-3.005496e+000
2.317101e+003,-3.072140e+000
2.318065e+003,-5.125607e+000
2.319030e+003,-8.263822e+000
2.319994e+003,-8.439013e+000
2.320958e+003,-6.425009e+000
2.321922e+003,-5.640393e+000
2.322887e+003,-6.060834e+000
2.323851e+003,-5.538424e+000
2.324815e+003,-3.997962e+000
2.325779e+003,-3.730066e+000
2.326744e+003,-5.398596e+000
2.327708e+003,-6.807681e+000
2.328672e+003,-6.558261e+000
2.329636e+003,-5.941541e+000
2.330601e+003,-6.122632e+000
2.331565e+003,-6.611112e+000
2.332529e+003,-7.161270e+000
2.333493e+003,-7.413159e+000
2.334458e+003,-6.531363e+000
2.335422e+003,-5.418594e+000
2.336386e+003,-5.498947e+000
2.337350e+003,-6.157727e+000
2.338314e+003,-6.140668e+000
2.339279e+003,-5.487348e+000
2.340243e+003,-4.719928e+000
2.341207e+003,-4.087234e+000
2.342171e+003,-4.378860e+000
2.343135e+003,-6.155948e+000
2.344100e+003,-7.251450e+000
2.345064e+003,-6.021964e+000
2.346028e+003,-5.276428e+000
2.346992e+003,-6.378247e+000
2.347957e+003,-7.597623e+000
2.348921e+003,-8.597903e+000
2.349885e+003,-8.877368e+000
2.350849e+003,-7.593652e+000
2.351814e+003,-5.830063e+000
2.352778e+003,-4.872803e+000
2.353742e+003,-4.436923e+000
2.354706e+003,-3.459525e+000
2.355671e+003,-2.085022e+000
2.356635e+003,-2.833057e+000
2.357599e+003,-6.694724e+000
2.358563e+003,-8.428644e+000
2.359528e+003,-7.259549e+000
2.360492e+003,-6.531054e+000
2.361456e+003,-6.694516e+000
2.362420e+003,-6.834811e+000
2.363385e+003,-6.674841e+000
2.364349e+003,-6.644644e+000
2.365313e+003,-7.049695e+000
2.366277e+003,-7.022552e+000
2.367241e+003,-5.677243e+000
2.368206e+003,-4.068921e+000
2.369170e+003,-3.944302e+000
2.370134e+003,-4.815286e+000
2.371098e+003,-5.343881e+000
2.372063e+003,-5.601499e+000
2.373027e+003,-5.851501e+000
2.373991e+003,-6.050470e+000
2.374955e+003,-6.209128e+000
2.375919e+003,-6.223123e+000
2.376884e+003,-5.424817e+000
2.377848e+003,-4.042090e+000
2.378812e+003,-3.455011e+000
2.379776e+003,-4.076068e+000
2.380741e+003,-5.205548e+000
2.381705e+003,-6.477649e+000
2.382669e+003,-7.527838e+000
2.383633e+003,-8.371081e+000
2.384598e+003,-8.381457e+000
2.385562e+003,-6.099670e+000
2.386526e+003,-3.990619e+000
2.387490e+003,-4.527512e+000
2.388455e+003,-5.684289e+000
2.389419e+003,-5.242597e+000
2.390383e+003,-4.312720e+000
2.391347e+003,-4.750574e+000
2.392312e+003,-6.014737e+000
2.393276e+003,-6.604776e+000
2.394240e+003,-6.418747e+000
2.395204e+003,-5.944079e+000
2.396168e+003,-5.074728e+000
2.397133e+003,-4.543213e+000
2.398097e+003,-4.592795e+000
2.399061e+003,-4.609759e+000
2.400025e+003,-4.540176e+000
2.400990e+003,-4.480655e+000
2.401954e+003,-4.338745e+000
2.402918e+003,-4.562949e+000
2.403882e+003,-5.548264e+000
2.404846e+003,-6.341022e+000
2.405811e+003,-6.127020e+000
2.406775e+003,-5.370209e+000
2.407739e+003,-4.707696e+000
2.408703e+003,-4.194717e+000
2.409668e+003,-3.953912e+000
2.410632e+003,-3.958606e+000
2.411596e+003,-4.286829e+000
2.412560e+003,-4.797256e+000
2.413525e+003,-4.656143e+000
2.414489e+003,-4.022647e+000
2.415453e+003,-3.700018e+000
2.416417e+003,-3.790009e+000
2.417382e+003,-4.316260e+000
2.418346e+003,-5.107657e+000
2.419310e+003,-5.292224e+000
2.420274e+003,-4.538315e+000
2.421239e+003,-3.928772e+000
2.422203e+003,-4.194278e+000
2.423167e+003,-4.609372e+000
2.424131e+003,-4.690155e+000
2.425095e+003,-4.695480e+000
2.426060e+003,-4.458905e+000
2.427024e+003,-4.607968e+000
2.427988e+003,-6.263800e+000
2.428952e+003,-7.911975e+000
2.429917e+003,-8.015271e+000
2.430881e+003,-7.126172e+000
2.431845e+003,-5.809817e+000
2.432809e+003,-4.453943e+000
2.433773e+003,-4.390054e+000
2.434738e+003,-5.596909e+000
2.435702e+003,-5.575681e+000
2.436666e+003,-3.752206e+000
2.437630e+003,-2.722156e+000
2.438595e+003,-2.550894e+000
2.439559e+003,-3.181033e+000
2.440523e+003,-4.822268e+000
2.441487e+003,-5.344931e+000
2.442452e+003,-4.095001e+000
2.443416e+003,-2.408093e+000
2.444380e+003,-9.587250e-001
2.445344e+003,-2.105133e-001
2.446309e+003,-5.844452e-001
2.447273e+003,-9.770630e-001
2.448237e+003,7.644348e-002
2.449201e+003,1.876117e+000
2.450166e+003,4.328146e+000
2.451130e+003,5.909610e+000
2.452094e+003,2.884851e+000
2.453058e+003,-1.808295e+000
2.454022e+003,-3.558728e+000
2.454987e+003,-3.383914e+000
2.455951e+003,-3.781613e+000
2.456915e+003,-4.675900e+000
2.457879e+003,-4.759757e+000
2.458844e+003,-3.954892e+000
2.459808e+003,-3.332437e+000
2.460772e+003,-3.197165e+000
2.461736e+003,-2.833377e+000
2.462700e+003,-1.536218e+000
2.463665e+003,-1.041925e+000
2.464629e+003,-1.854535e+000
2.465593e+003,-2.854675e+000
2.466557e+003,-4.375061e+000
2.467522e+003,-4.942685e+000
2.468486e+003,-3.503293e+000
2.469450e+003,-2.245080e+000
2.470414e+003,-2.792551e+000
2.471379e+003,-3.899893e+000
2.472343e+003,-4.143939e+000
2.473307e+003,-3.785895e+000
2.474271e+003,-3.228034e+000
2.475236e+003,-2.629950e+000
2.476200e+003,-2.564236e+000
2.477164e+003,-2.875500e+000
2.478128e+003,-3.174112e+000
2.479093e+003,-3.411783e+000
2.480057e+003,-3.645612e+000
2.481021e+003,-3.754993e+000
2.481985e+003,-3.083249e+000
2.482949e+003,-1.976520e+000
2.483914e+003,-2.068442e+000
2.484878e+003,-3.616657e+000
2.485842e+003,-4.889951e+000
2.486806e+003,-5.348889e+000
2.487771e+003,-4.982572e+000
2.488735e+003,-2.958966e+000
2.489699e+003,-1.433377e+000
2.490663e+003,-1.397537e+000
2.491627e+003,-1.379629e+000
2.492592e+003,-5.798279e-001
2.493556e+003,-1.109558e-001
2.494520e+003,-7.277619e-001
2.495484e+003,-1.406549e+000
2.496449e+003,-1.263599e+000
2.497413e+003,-8.820038e-001
2.498377e+003,-1.052728e+000
2.499341e+003,-1.708847e+000
2.500306e+003,-2.977478e+000
2.501270e+003,-4.420596e+000
2.502234e+003,-3.600473e+000
2.503198e+003,-1.299988e+000
2.504163e+003,-3.894379e-001
2.505127e+003,-5.485199e-001
2.506091e+003,-3.165100e-001
2.507055e+003,3.448059e-001
2.508020e+003,8.693817e-001
2.508984e+003,1.161798e+000
2.509948e+003,1.463953e+000
2.510912e+003,1.790897e+000
2.511876e+003,1.519009e+000
2.512841e+003,6.529236e-002
2.513805e+003,-5.565460e-001
2.514769e+003,1.289716e+000
2.515733e+003,2.477139e+000
2.516698e+003,1.577322e+000
2.517662e+003,8.141540e-001
2.518626e+003,1.129919e+000
2.519590e+003,1.341394e+000
2.520554e+003,5.667084e-001
2.521519e+003,2.095337e-001
2.522483e+003,1.726681e+000
2.523447e+003,3.272681e+000
2.524411e+003,1.969702e+000
2.525376e+003,-4.917206e-001
2.526340e+003,4.238068e-001
2.527304e+003,3.374561e+000
2.528268e+003,4.138040e+000
2.529233e+003,3.457843e+000
2.530197e+003,2.678403e+000
2.531161e+003,2.168158e+000
2.532125e+003,2.445514e+000
2.533090e+003,3.343759e+000
2.534054e+003,4.725638e+000
2.535018e+003,6.201968e+000
2.535982e+003,6.515936e+000
2.536947e+003,5.465537e+000
2.537911e+003,4.938934e+000
2.538875e+003,5.593036e+000
2.539839e+003,6.144879e+000
2.540803e+003,6.352670e+000
2.541768e+003,6.569778e+000
2.542732e+003,6.925546e+000
2.543696e+003,6.905365e+000
2.544660e+003,6.206671e+000
2.545625e+003,6.120587e+000
2.546589e+003,7.335577e+000
2.547553e+003,8.323148e+000
2.548517e+003,7.862628e+000
2.549482e+003,7.217404e+000
2.550446e+003,7.987500e+000
2.551410e+003,9.005377e+000
2.552374e+003,8.186163e+000
2.553339e+003,6.679040e+000
2.554303e+003,6.187485e+000
2.555267e+003,6.058176e+000
2.556231e+003,5.337015e+000
2.557196e+003,4.493802e+000
2.558160e+003,4.077857e+000
2.559124e+003,4.143610e+000
2.560088e+003,5.116675e+000
2.561052e+003,6.497159e+000
2.562017e+003,6.476669e+000
2.562981e+003,4.997550e+000
2.563945e+003,3.873788e+000
2.564909e+003,2.910446e+000
2.565874e+003,3.794076e+000
2.566838e+003,7.123511e+000
2.567802e+003,7.031647e+000
2.568766e+003,3.035748e+000
2.569730e+003,1.074698e+000
2.570695e+003,2.182120e+000
2.571659e+003,3.485391e+000
2.572623e+003,3.913254e+000
2.573587e+003,4.128607e+000
2.574552e+003,4.474978e+000
2.575516e+003,4.170770e+000
2.576480e+003,2.295386e+000
2.577444e+003,1.026099e+000
2.578409e+003,2.553628e+000
2.579373e+003,3.942331e+000
2.580337e+003,3.659250e+000
2.581301e+003,2.795804e+000
2.582266e+003,1.495316e+000
2.583230e+003,4.554077e-001
2.584194e+003,-4.777832e-002
2.585158e+003,9.814148e-002
2.586123e+003,1.263162e+000
2.587087e+003,2.643820e+000
2.588051e+003,2.804495e+000
2.589015e+003,2.255017e+000
2.589979e+003,2.849182e+000
2.590944e+003,4.015863e+000
2.591908e+003,3.087708e+000
2.592872e+003,1.100855e+000
2.593836e+003,8.150696e-001
2.594801e+003,1.655249e+000
2.595765e+003,2.209094e+000
2.596729e+003,2.243201e+000
2.597693e+003,1.670242e+000
2.598657e+003,6.897522e-001
2.599622e+003,-6.478882e-002
2.600586e+003,-4.817566e-001
2.601550e+003,-1.003290e+000
2.602514e+003,-1.762686e+000
2.603479e+003,-2.512143e+000
2.604443e+003,-3.635709e+000
2.605407e+003,-3.400226e+000
2.606371e+003,-1.289056e+000
2.607336e+003,7.092285e-003
2.608300e+003,-1.181457e-001
2.609264e+003,-7.718841e-001
2.610228e+003,-1.553491e+000
2.611193e+003,-1.771011e+000
2.612157e+003,-1.040863e+000
2.613121e+003,-2.053192e-001
2.614085e+003,1.304688e-001
2.615050e+003,8.648071e-002
2.616014e+003,-1.011908e+000
2.616978e+003,-1.398444e+000
2.617942e+003,1.385074e+000
2.618906e+003,3.598526e+000
2.619871e+003,2.794678e+000
2.620835e+003,6.414002e-001
2.621799e+003,-2.961560e+000
2.622763e+003,-5.311249e+000
2.623728e+003,-3.315192e+000
2.624692e+003,1.599030e-001
2.625656e+003,4.942963e-001
2.626620e+003,-1.018964e+000
2.627584e+003,-8.968018e-001
2.628549e+003,2.928986e-001
2.629513e+003,9.149719e-001
2.630477e+003,9.622742e-001
2.631441e+003,-2.307129e-003
2.632406e+003,-1.302685e+000
2.633370e+003,-1.477969e+000
2.634334e+003,-1.042664e+000
2.635298e+003,-1.688580e+000
2.636263e+003,-2.947855e+000
2.637227e+003,-2.445789e+000
2.638191e+003,-3.393860e-002
2.639155e+003,1.248657e+000
2.640120e+003,1.145102e+000
2.641084e+003,9.435883e-001
2.642048e+003,5.116852e-001
2.643012e+003,6.490326e-001
2.643977e+003,1.439835e+000
2.644941e+003,1.799988e+000
2.645905e+003,1.571542e+000
2.646869e+003,9.153168e-001
2.647833e+003,6.752320e-002
2.648798e+003,1.730377e-001
2.649762e+003,1.550415e+000
2.650726e+003,2.402933e+000
2.651690e+003,1.714160e+000
2.652655e+003,8.366821e-001
2.653619e+003,-4.210510e-002
2.654583e+003,-2.551758e-001
2.655547e+003,1.424783e+000
2.656511e+003,2.048697e+000
2.657476e+003,1.110596e-001
2.658440e+003,-1.135880e+000
2.659404e+003,-1.880341e-001
2.660368e+003,1.038007e+000
2.661333e+003,1.312112e+000
2.662297e+003,1.024515e+000
2.663261e+003,4.779938e-001
2.664225e+003,-1.412353e-002
2.665190e+003,1.630585e-001
2.666154e+003,3.441254e-001
2.667118e+003,-5.689484e-001
2.668082e+003,-1.407834e+000
2.669047e+003,-7.486847e-001
2.670011e+003,2.101440e-002
2.670975e+003,-8.222321e-001
2.671939e+003,-1.844055e+000
2.672904e+003,-1.391840e+000
2.673868e+003,1.293945e-002
2.674832e+003,1.973199e+000
2.675796e+003,3.649698e+000
2.676760e+003,2.596747e+000
2.677725e+003,-2.633331e-001
2.678689e+003,-1.140253e+000
2.679653e+003,-6.056122e-001
2.680617e+003,-1.393280e-001
2.681582e+003,1.786346e-001
2.682546e+003,4.618835e-001
2.683510e+003,6.044677e-001
2.684474e+003,-8.645020e-002
2.685438e+003,-9.854065e-001
2.686403e+003,-1.400696e-001
2.687367e+003,2.205188e+000
2.688331e+003,3.197092e+000
2.689295e+003,2.765521e+000
2.690260e+003,2.445194e+000
2.691224e+003,2.211389e+000
2.692188e+003,2.266242e+000
2.693152e+003,2.539325e+000
2.694117e+003,1.956638e+000
2.695081e+003,7.423523e-001
2.696045e+003,8.001190e-001
2.697009e+003,1.989633e+000
2.697974e+003,1.966305e+000
2.698938e+003,4.325409e-001
2.699902e+003,-1.880310e-001
2.700866e+003,9.684418e-001
2.701831e+003,1.780554e+000
2.702795e+003,1.546991e+000
2.703759e+003,1.100946e+000
2.704723e+003,1.149963e-001
2.705688e+003,2.448273e-001
2.706652e+003,1.926062e+000
2.707616e+003,2.834381e+000
2.708580e+003,2.409241e+000
2.709544e+003,1.531049e+000
2.710509e+003,6.511749e-001
2.711473e+003,3.585083e-001
2.712437e+003,9.562622e-001
2.713401e+003,1.615753e+000
2.714365e+003,1.883441e+000
2.715330e+003,1.910928e+000
2.716294e+003,1.762994e+000
2.717258e+003,1.409479e+000
2.718222e+003,6.394287e-001
2.719187e+003,-8.649292e-002
2.720151e+003,-9.009064e-001
2.721115e+003,-7.186707e-001
2.722079e+003,1.148602e+000
2.723044e+003,2.703925e+000
2.724008e+003,2.444546e+000
2.724972e+003,1.553433e+000
2.725936e+003,1.141525e+000
2.726901e+003,1.117651e+000
2.727865e+003,1.576532e+000
2.728829e+003,2.141412e+000
2.729793e+003,2.758963e+000
2.730758e+003,3.022214e+000
2.731722e+003,2.412405e+000
2.732686e+003,1.575989e+000
2.733650e+003,8.290863e-001
2.734615e+003,4.551422e-001
2.735579e+003,9.061524e-001
2.736543e+003,8.931640e-001
2.737507e+003,-1.588577e+000
2.738471e+003,-4.354883e+000
2.739436e+003,-2.778531e+000
2.740400e+003,7.082550e-001
2.741364e+003,2.724979e+000
2.742328e+003,3.482446e+000
2.743292e+003,2.614789e+000
2.744257e+003,1.257318e+000
2.745221e+003,2.463074e-002
2.746185e+003,-4.631622e-001
2.747149e+003,1.094434e+000
2.748114e+003,3.106702e+000
2.749078e+003,3.239401e+000
2.750042e+003,2.092642e+000
2.751006e+003,1.025436e+000
2.751971e+003,1.926117e-001
2.752935e+003,4.988891e-001
2.753899e+003,1.258673e+000
2.754863e+003,6.691162e-001
2.755828e+003,-2.709228e-001
2.756792e+003,5.365082e-001
2.757756e+003,1.853793e+000
2.758720e+003,1.004846e+000
2.759685e+003,-7.592834e-001
2.760649e+003,3.265320e-001
2.761613e+003,2.952435e+000
2.762577e+003,2.646759e+000
2.763542e+003,-2.867126e-002
2.764506e+003,-5.677398e-001
2.765470e+003,5.861023e-001
2.766434e+003,1.339999e+000
2.767398e+003,1.611230e+000
2.768363e+003,8.273956e-001
2.769327e+003,-2.317841e-001
2.770291e+003,4.841949e-001
2.771255e+003,2.167243e+000
2.772219e+003,2.207849e+000
2.773184e+003,7.758271e-001
2.774148e+003,2.880402e-001
2.775112e+003,7.316162e-001
2.776076e+003,1.284940e+000
2.777041e+003,1.965622e+000
2.778005e+003,1.789850e+000
2.778969e+003,9.447754e-001
2.779933e+003,2.068970e-001
2.780898e+003,-1.592834e-001
2.781862e+003,5.971527e-001
2.782826e+003,2.026517e+000
2.783790e+003,2.905106e+000
2.784755e+003,3.107754e+000
2.785719e+003,3.129556e+000
2.786683e+003,3.034695e+000
2.787647e+003,2.576791e+000
2.788612e+003,1.755905e+000
2.789576e+003,-2.069824e-001
2.790540e+003,-3.137344e+000
2.791504e+003,-1.371670e+000
2.792469e+003,3.845911e+000
2.793433e+003,5.035904e+000
2.794397e+003,2.482272e+000
2.795361e+003,4.795257e-001
2.796325e+003,-1.438263e-001
2.797290e+003,-2.747040e-001
2.798254e+003,-1.070801e-001
2.799218e+003,1.670258e-001
2.800182e+003,4.588653e-001
2.801146e+003,1.298343e+000
2.802111e+003,2.842096e+000
2.803075e+003,3.601126e+000
2.804039e+003,3.542545e+000
2.805003e+003,3.436920e+000
2.805968e+003,3.340802e+000
2.806932e+003,3.292725e+000
2.807896e+003,3.245456e+000
2.808860e+003,2.632056e+000
2.809825e+003,1.485880e+000
2.810789e+003,1.139447e+000
2.811753e+003,1.992813e+000
2.812717e+003,2.621527e+000
2.813682e+003,3.028494e+000
2.814646e+003,3.061673e+000
2.815610e+003,2.747693e+000
2.816574e+003,2.260681e+000
2.817539e+003,1.730844e+000
2.818503e+003,1.817303e+000
2.819467e+003,2.281045e+000
2.820431e+003,1.772668e+000
2.821396e+003,3.225372e-001
2.822360e+003,-2.592865e-001
2.823324e+003,4.898956e-001
2.824288e+003,1.239243e+000
2.825252e+003,1.811407e+000
2.826217e+003,2.888376e+000
2.827181e+003,4.540326e+000
2.828145e+003,4.170072e+000
2.829109e+003,2.043475e+000
2.830073e+003,1.183298e+000
2.831038e+003,1.816550e+000
2.832002e+003,2.828702e+000
2.832966e+003,3.664136e+000
2.833930e+003,3.208246e+000
2.834895e+003,1.216852e+000
2.835859e+003,8.663605e-001
2.836823e+003,2.940756e+000
2.837787e+003,3.569067e+000
2.838752e+003,2.661621e+000
2.839716e+003,2.139456e+000
2.840680e+003,2.065512e+000
2.841644e+003,1.873938e+000
2.842609e+003,1.553445e+000
2.843573e+003,1.658527e+000
2.844537e+003,2.020990e+000
2.845501e+003,1.394659e+000
2.846466e+003,-3.423462e-001
2.847430e+003,-9.480683e-001
2.848394e+003,-3.288879e-002
2.849358e+003,1.332703e-002
2.850323e+003,-9.000489e-001
2.851287e+003,-3.669434e-001
2.852251e+003,1.396973e+000
2.853215e+003,2.770139e+000
2.854179e+003,3.469196e+000
2.855144e+003,3.240213e+000
2.856108e+003,2.301199e+000
2.857072e+003,1.032883e+000
2.858036e+003,-2.104584e-001
2.859000e+003,3.130188e-001
2.859965e+003,2.684226e+000
2.860929e+003,3.972623e+000
2.861893e+003,4.126648e+000
2.862857e+003,3.524106e+000
2.863822e+003,2.487796e+000
2.864786e+003,2.495166e+000
2.865750e+003,3.141000e+000
2.866714e+003,3.293869e+000
2.867679e+003,2.645587e+000
2.868643e+003,4.343902e-001
2.869607e+003,-2.589230e+000
2.870571e+003,-3.212433e+000
2.871536e+003,-1.585001e+000
2.872500e+003,9.898621e-001
2.873464e+003,4.332852e+000
2.874428e+003,4.169959e+000
2.875393e+003,1.687738e+000
2.876357e+003,6.714691e-001
2.877321e+003,9.552795e-001
2.878285e+003,1.914297e+000
2.879250e+003,3.000699e+000
2.880214e+003,3.472903e+000
2.881178e+003,3.432294e+000
2.882142e+003,3.520608e+000
2.883106e+003,3.552240e+000
2.884071e+003,2.377740e+000
2.885035e+003,5.791046e-001
2.885999e+003,1.923953e+000
2.886963e+003,4.804077e+000
2.887927e+003,5.461026e+000
2.888892e+003,4.781464e+000
2.889856e+003,3.796228e+000
2.890820e+003,3.163879e+000
2.891784e+003,4.307944e+000
2.892749e+003,5.673233e+000
2.893713e+003,4.520761e+000
2.894677e+003,2.199847e+000
2.895641e+003,1.790765e+000
2.896606e+003,2.541443e+000
2.897570e+003,2.540246e+000
2.898534e+003,2.134228e+000
2.899498e+003,1.754040e+000
2.900463e+003,1.390149e+000
2.901427e+003,9.216980e-001
2.902391e+003,5.902771e-001
2.903355e+003,6.620941e-001
2.904320e+003,9.673920e-001
2.905284e+003,1.396286e+000
2.906248e+003,1.694238e+000
2.907212e+003,1.433441e+000
2.908177e+003,1.148340e+000
2.909141e+003,1.939032e+000
2.910105e+003,2.841312e+000
2.911069e+003,3.086063e+000
2.912033e+003,2.654221e+000
2.912998e+003,7.285553e-001
2.913962e+003,-6.808807e-001
2.914926e+003,-3.720489e-001
2.915890e+003,6.552063e-001
2.916854e+003,1.760321e+000
2.917819e+003,2.422577e+000
2.918783e+003,2.072958e+000
2.919747e+003,1.301563e+000
2.920711e+003,7.197968e-001
2.921676e+003,-9.957885e-003
2.922640e+003,-2.102240e+000
2.923604e+003,-2.752991e+000
2.924568e+003,-1.610901e-001
2.925533e+003,2.299225e+000
2.926497e+003,3.451392e+000
2.927461e+003,3.773944e+000
2.928425e+003,3.777130e+000
2.929390e+003,2.435605e+000
2.930354e+003,-1.815469e+000
2.931318e+003,-4.426245e+000
2.932282e+003,-3.152557e-001
2.933247e+003,2.112729e+000
2.934211e+003,2.662720e-001
2.935175e+003,-1.010547e+000
2.936139e+003,-1.717114e+000
2.937104e+003,-1.517572e+000
2.938068e+003,-3.767609e-001
2.939032e+003,2.900421e-001
2.939996e+003,1.399506e-001
2.940960e+003,4.437042e-001
2.941925e+003,1.663309e+000
2.942889e+003,2.588873e+000
2.943853e+003,2.905130e+000
2.944817e+003,2.689709e+000
2.945781e+003,1.778580e+000
2.946746e+003,1.467560e+000
2.947710e+003,1.748767e+000
2.948674e+003,1.624075e+000
2.949638e+003,1.230103e+000
2.950603e+003,1.660477e+000
2.951567e+003,2.898779e+000
2.952531e+003,4.253348e+000
2.953495e+003,5.443411e+000
2.954460e+003,5.735742e+000
2.955424e+003,5.157178e+000
2.956388e+003,2.533398e+000
2.957352e+003,-1.668777e+000
2.958317e+003,-2.661111e+000
2.959281e+003,-1.184525e+000
2.960245e+003,1.307986e+000
2.961209e+003,3.587296e+000
2.962174e+003,3.610605e+000
2.963138e+003,2.157306e+000
2.964102e+003,9.620301e-001
2.965066e+003,3.834747e-001
2.966031e+003,1.199319e+000
2.966995e+003,2.852487e+000
2.967959e+003,3.726303e+000
2.968923e+003,3.906409e+000
2.969887e+003,3.116119e+000
2.970852e+003,2.257455e+000
2.971816e+003,2.705096e+000
2.972780e+003,3.367453e+000
2.973744e+003,2.785553e+000
2.974708e+003,2.371487e+000
2.975673e+003,3.505609e+000
2.976637e+003,4.485803e+000
2.977601e+003,3.168268e+000
2.978565e+003,1.155194e+000
2.979530e+003,4.348907e-001
2.980494e+003,2.896149e-001
2.981458e+003,3.706360e-001
2.982422e+003,5.142182e-001
2.983387e+003,4.053009e-001
2.984351e+003,7.938629e-001
2.985315e+003,2.037820e+000
2.986279e+003,3.384290e+000
2.987244e+003,4.402679e+000
2.988208e+003,4.462152e+000
2.989172e+003,3.083072e+000
2.990136e+003,1.889935e+000
2.991101e+003,2.362961e+000
2.992065e+003,2.081583e+000
2.993029e+003,-2.786041e-001
2.993993e+003,-8.381866e-001
2.994958e+003,8.977783e-001
2.995922e+003,1.749820e+000
2.996886e+003,1.241489e+000
2.997850e+003,6.211823e-001
2.998814e+003,3.421936e-001
2.999779e+003,7.407379e-001
3.000743e+003,1.865408e+000
3.001707e+003,1.901608e+000
3.002671e+003,4.570648e-001
3.003635e+003,7.584931e-001
3.004600e+003,2.632187e+000
3.005564e+003,3.544486e+000
3.006528e+003,3.431195e+000
3.007492e+003,1.902365e+000
3.008457e+003,9.529419e-002
3.009421e+003,7.502991e-001
3.010385e+003,2.834934e+000
3.011349e+003,3.289093e+000
3.012314e+003,2.177145e+000
3.013278e+003,-7.745819e-001
3.014242e+003,-4.103973e+000
3.015206e+003,-2.204047e+000
3.016171e+003,1.983575e+000
3.017135e+003,4.524146e+000
3.018099e+003,5.288596e+000
3.019063e+003,2.777625e+000
3.020028e+003,4.917877e-001
3.020992e+003,1.495383e+000
3.021956e+003,3.060452e+000
3.022920e+003,2.823956e+000
3.023885e+003,1.970508e+000
3.024849e+003,1.919858e+000
3.025813e+003,1.512299e+000
3.026777e+003,-1.290546e+000
3.027741e+003,-3.379651e+000
3.028706e+003,-3.014935e+000
3.029670e+003,-1.609558e+000
3.030634e+003,9.468689e-001
3.031598e+003,1.629452e+000
3.032563e+003,-3.841125e-001
3.033527e+003,-1.278674e+000
3.034491e+003,4.059357e-001
3.035455e+003,1.248975e+000
3.036420e+003,-4.863464e-001
3.037384e+003,-1.476657e+000
3.038348e+003,-1.119190e+000
3.039312e+003,3.193115e-001
3.040277e+003,2.822528e+000
3.041241e+003,2.351346e+000
3.042205e+003,-4.127716e-001
3.043169e+003,-9.907410e-001
3.044134e+003,3.530670e-001
3.045098e+003,6.068970e-001
3.046062e+003,-3.890839e-001
3.047026e+003,-9.105865e-001
3.047990e+003,-9.829956e-001
3.048955e+003,-1.230557e+000
3.049919e+003,-1.519617e+000
3.050883e+003,-1.222537e+000
3.051847e+003,-5.653412e-001
3.052812e+003,4.955322e-001
3.053776e+003,1.272424e+000
3.054740e+003,4.722992e-001
3.055704e+003,-4.941010e-001
3.056668e+003,-1.928680e-001
3.057633e+003,2.815521e-001
3.058597e+003,-3.784119e-001
3.059561e+003,-9.088348e-001
3.060525e+003,8.758606e-001
3.061490e+003,2.442981e+000
3.062454e+003,1.251831e+000
3.063418e+003,2.853088e-001
3.064382e+003,8.070618e-001
3.065347e+003,1.220685e+000
3.066311e+003,1.108661e+000
3.067275e+003,8.244995e-001
3.068239e+003,5.734619e-001
3.069204e+003,8.916260e-001
3.070168e+003,1.982355e+000
3.071132e+003,1.658722e+000
3.072096e+003,-2.102582e+000
3.073061e+003,-2.867584e+000
3.074025e+003,-2.265747e-001
3.074989e+003,1.155194e+000
3.075953e+003,1.178821e+000
3.076917e+003,1.042371e+000
3.077882e+003,8.350922e-001
3.078846e+003,1.249573e-001
3.079810e+003,-8.272552e-001
3.080774e+003,-1.251157e+000
3.081739e+003,-1.195749e+000
3.082703e+003,-7.043396e-001
3.083667e+003,-1.017578e-001
3.084631e+003,-7.019318e-001
3.085595e+003,-1.630460e+000
3.086560e+003,-1.476721e+000
3.087524e+003,-8.673462e-001
3.088488e+003,2.612305e-002
3.089452e+003,2.406006e-001
3.090417e+003,-9.893188e-001
3.091381e+003,-2.224963e+000
3.092345e+003,-2.346292e+000
3.093309e+003,-2.169070e+000
3.094274e+003,-2.569565e+000
3.095238e+003,-2.461572e+000
3.096202e+003,-4.400910e-001
3.097166e+003,9.373901e-001
3.098131e+003,1.113827e+000
3.099095e+003,1.173849e+000
3.100059e+003,1.273029e+000
3.101023e+003,6.865814e-001
3.101988e+003,-4.383759e-001
3.102952e+003,-3.480377e-001
3.103916e+003,1.153400e+000
3.104880e+003,1.153699e+000
3.105844e+003,-6.979278e-001
3.106809e+003,-1.257211e+000
3.107773e+003,-7.008454e-001
3.108737e+003,-1.464792e+000
3.109701e+003,-2.712454e+000
3.110666e+003,-1.590244e+000
3.111630e+003,9.385376e-002
3.112594e+003,-1.423840e+000
3.113558e+003,-3.824265e+000
3.114522e+003,-3.882294e+000
3.115487e+003,-2.686307e+000
3.116451e+003,-1.614749e+000
3.117415e+003,-7.788849e-001
3.118379e+003,-4.181213e-001
3.119344e+003,-2.542969e-001
3.120308e+003,3.051727e-001
3.121272e+003,-1.405090e-001
3.122236e+003,-2.536057e+000
3.123201e+003,-3.634708e+000
3.124165e+003,-2.459518e+000
3.125129e+003,-1.948959e+000
3.126093e+003,-3.176910e+000
3.127058e+003,-3.575824e+000
3.128022e+003,-1.860525e+000
3.128986e+003,-1.291422e+000
3.129950e+003,-2.878662e+000
3.130915e+003,-2.793957e+000
3.131879e+003,-1.291174e+000
3.132843e+003,-1.784476e+000
3.133807e+003,-3.287131e+000
3.134771e+003,-1.819354e+000
3.135736e+003,1.143460e+000
3.136700e+003,1.348871e+000
3.137664e+003,-2.410156e-001
3.138628e+003,-1.385956e+000
3.139593e+003,-2.205243e+000
3.140557e+003,-3.258237e+000
3.141521e+003,-3.782013e+000
3.142485e+003,-1.751242e+000
3.143449e+003,2.097748e-001
3.144414e+003,2.738464e-001
3.145378e+003,-1.100555e+000
3.146342e+003,-4.126874e+000
3.147306e+003,-5.479993e+000
3.148271e+003,-3.703433e+000
3.149235e+003,-2.112576e+000
3.150199e+003,-2.586063e+000
3.151163e+003,-3.003274e+000
3.152128e+003,-1.821707e+000
3.153092e+003,-2.440509e+000
3.154056e+003,-5.291623e+000
3.155020e+003,-5.680896e+000
3.155985e+003,-3.934326e+000
3.156949e+003,-2.808987e+000
3.157913e+003,-2.594720e+000
3.158877e+003,-3.138419e+000
3.159842e+003,-4.019907e+000
3.160806e+003,-4.359464e+000
3.161770e+003,-4.102103e+000
3.162734e+003,-2.796527e+000
3.163698e+003,-1.329758e+000
3.164663e+003,-2.264209e+000
3.165627e+003,-3.361197e+000
3.166591e+003,-1.421600e+000
3.167555e+003,-5.902710e-002
3.168520e+003,-1.470328e+000
3.169484e+003,-3.425900e+000
3.170448e+003,-4.878047e+000
3.171412e+003,-5.626025e+000
3.172376e+003,-5.561397e+000
3.173341e+003,-4.670631e+000
3.174305e+003,-2.432281e+000
3.175269e+003,-9.451844e-001
3.176233e+003,-3.033295e-001
3.177198e+003,-1.055585e+000
3.178162e+003,-2.931464e+000
3.179126e+003,-4.187683e+000
3.180090e+003,-4.648015e+000
3.181055e+003,-4.464284e+000
3.182019e+003,-3.873419e+000
3.182983e+003,-3.246927e+000
3.183947e+003,-2.718787e+000
3.184912e+003,-2.607843e+000
3.185876e+003,-2.694644e+000
3.186840e+003,-2.429623e+000
3.187804e+003,-2.186853e+000
3.188769e+003,-2.503415e+000
3.189733e+003,-2.721689e+000
3.190697e+003,-2.367828e+000
3.191661e+003,-2.323865e+000
3.192625e+003,-2.946579e+000
3.193590e+003,-3.599416e+000
3.194554e+003,-3.945505e+000
3.195518e+003,-4.093595e+000
3.196482e+003,-4.165534e+000
3.197447e+003,-3.549454e+000
3.198411e+003,-2.032895e+000
3.199375e+003,-1.520895e+000
3.200339e+003,-1.832031e+000
3.201303e+003,-1.310458e+000
3.202268e+003,-5.094269e-001
3.203232e+003,-1.431162e+000
3.204196e+003,-3.178877e+000
3.205160e+003,-3.376004e+000
3.206125e+003,-3.011711e+000
3.207089e+003,-4.072076e+000
3.208053e+003,-5.364587e+000
3.209017e+003,-4.692096e+000
3.209982e+003,-3.453749e+000
3.210946e+003,-2.857434e+000
3.211910e+003,-1.772952e+000
3.212874e+003,5.634186e-001
3.213839e+003,1.351581e+000
3.214803e+003,-2.306610e-001
3.215767e+003,-2.448216e+000
3.216731e+003,-4.396436e+000
3.217696e+003,-4.876744e+000
3.218660e+003,-3.201059e+000
3.219624e+003,-1.899301e+000
3.220588e+003,-9.869080e-001
3.221552e+003,-1.693298e+000
3.222517e+003,-3.380989e+000
3.223481e+003,-4.541661e+000
3.224445e+003,-5.014535e+000
3.225409e+003,-4.361371e+000
3.226374e+003,-3.421249e+000
3.227338e+003,-3.165404e+000
3.228302e+003,-3.096982e+000
3.229266e+003,-2.578679e+000
3.230230e+003,-2.026799e+000
3.231195e+003,-1.893741e+000
3.232159e+003,-1.813158e+000
3.233123e+003,-1.349522e+000
3.234087e+003,-1.883580e+000
3.235052e+003,-3.644333e+000
3.236016e+003,-3.636693e+000
3.236980e+003,-1.699355e+000
3.237944e+003,-7.588806e-001
3.238909e+003,-1.382097e+000
3.239873e+003,-1.772946e+000
3.240837e+003,-1.795139e+000
3.241801e+003,-1.676431e+000
3.242766e+003,-1.531543e+000
3.243730e+003,-1.945973e+000
3.244694e+003,-2.567342e+000
3.245658e+003,-3.097662e+000
3.246623e+003,-3.298061e+000
3.247587e+003,-2.883847e+000
3.248551e+003,-2.471284e+000
3.249515e+003,-2.446619e+000
3.250479e+003,-2.693619e+000
3.251444e+003,-3.167519e+000
3.252408e+003,-3.637723e+000
3.253372e+003,-3.998355e+000
3.254336e+003,-4.432240e+000
3.255301e+003,-5.036812e+000
3.256265e+003,-3.740205e+000
3.257229e+003,-1.096030e+000
3.258193e+003,9.876404e-002
3.259157e+003,-2.786514e-001
3.260122e+003,-1.790831e+000
3.261086e+003,-3.499519e+000
3.262050e+003,-3.664598e+000
3.263014e+003,-3.106509e+000
3.263979e+003,-3.842996e+000
3.264943e+003,-4.729622e+000
3.265907e+003,-4.287446e+000
3.266871e+003,-3.571101e+000
3.267836e+003,-3.279980e+000
3.268800e+003,-2.321597e+000
3.269764e+003,-4.078018e-001
3.270728e+003,-3.616501e-001
3.271693e+003,-2.850295e+000
3.272657e+003,-4.207983e+000
3.273621e+003,-3.098833e+000
3.274585e+003,-2.966016e+000
3.275550e+003,-4.019094e+000
3.276514e+003,-3.967070e+000
3.277478e+003,-3.177322e+000
3.278442e+003,-2.379553e+000
3.279406e+003,-1.898711e+000
3.280371e+003,-2.404614e+000
3.281335e+003,-3.057030e+000
3.282299e+003,-3.154190e+000
3.283263e+003,-2.850200e+000
3.284228e+003,-2.274342e+000
3.285192e+003,-1.527280e+000
3.286156e+003,-3.459030e-001
3.287120e+003,2.250168e-001
3.288084e+003,-3.117813e-001
3.289049e+003,-1.923843e-001
3.290013e+003,5.528656e-001
3.290977e+003,-3.586853e-001
3.291941e+003,-2.355296e+000
3.292906e+003,-2.313216e+000
3.293870e+003,-6.910019e-001
3.294834e+003,-5.559418e-001
3.295798e+003,-1.405995e+000
3.296763e+003,-1.996890e+000
3.297727e+003,-2.450343e+000
3.298691e+003,-2.898326e+000
3.299655e+003,-3.332835e+000
3.300620e+003,-4.225133e+000
3.301584e+003,-4.064391e+000
3.302548e+003,-2.365999e+000
3.303512e+003,-9.212692e-001
3.304477e+003,-4.209961e-001
3.305441e+003,-6.961594e-001
3.306405e+003,-1.709996e+000
3.307369e+003,-1.904504e+000
3.308333e+003,-1.171396e+000
3.309298e+003,-1.432814e+000
3.310262e+003,-2.140422e+000
3.311226e+003,-1.396344e+000
3.312190e+003,-2.128128e-001
3.313155e+003,-1.233154e-001
3.314119e+003,-5.701996e-001
3.315083e+003,-1.172626e+000
3.316047e+003,-9.364060e-001
3.317011e+003,1.079277e+000
3.317976e+003,2.518504e+000
3.318940e+003,1.136403e+000
3.319904e+003,-6.112518e-002
3.320868e+003,-4.876800e-001
3.321833e+003,-1.204552e+000
3.322797e+003,-2.045856e+000
3.323761e+003,-1.322523e+000
3.324725e+003,4.028595e-001
3.325690e+003,1.351700e+000
3.326654e+003,1.413312e+000
3.327618e+003,8.138062e-001
3.328582e+003,3.387222e-001
3.329547e+003,2.107253e+000
3.330511e+003,3.744098e+000
3.331475e+003,2.089162e+000
3.332439e+003,-1.143448e-001
3.333404e+003,-2.250658e+000
3.334368e+003,-2.414516e+000
3.335332e+003,-4.147797e-001
3.336296e+003,9.272232e-001
3.337260e+003,8.867203e-001
3.338225e+003,4.771271e-001
3.339189e+003,9.429932e-003
3.340153e+003,3.521423e-002
3.341117e+003,4.579498e-001
3.342082e+003,7.417313e-001
3.343046e+003,9.533478e-001
3.344010e+003,1.391353e+000
3.344974e+003,1.555630e+000
3.345938e+003,8.922211e-001
3.346903e+003,4.326828e-001
3.347867e+003,6.544434e-001
3.348831e+003,1.052455e+000
3.349795e+003,1.360065e+000
3.350760e+003,1.301001e+000
3.351724e+003,5.300094e-001
3.352688e+003,3.750854e-001
3.353652e+003,7.994385e-001
3.354617e+003,1.461148e+000
3.355581e+003,2.105110e+000
3.356545e+003,2.369727e+000
3.357509e+003,2.132124e+000
3.358474e+003,1.204494e+000
3.359438e+003,3.096802e-001
3.360402e+003,9.638214e-002
3.361366e+003,4.672455e-001
3.362331e+003,1.791931e+000
3.363295e+003,2.387253e+000
3.364259e+003,1.274545e+000
3.365223e+003,4.727997e-001
3.366188e+003,1.275513e-001
3.367152e+003,-2.265701e-001
3.368116e+003,-4.860733e-001
3.369080e+003,-6.546173e-002
3.370044e+003,8.875351e-001
3.371009e+003,1.819933e+000
3.371973e+003,2.621193e+000
3.372937e+003,3.110612e+000
3.373901e+003,3.216315e+000
3.374865e+003,2.279817e+000
3.375830e+003,1.970799e+000
3.376794e+003,3.366647e+000
3.377758e+003,3.488330e+000
3.378722e+003,1.962971e+000
3.379687e+003,1.543247e+000
3.380651e+003,2.641664e+000
3.381615e+003,3.356778e+000
3.382579e+003,3.438641e+000
3.383544e+003,3.638052e+000
3.384508e+003,3.864323e+000
3.385472e+003,3.698944e+000
3.386436e+003,3.479283e+000
3.387401e+003,3.608983e+000
3.388365e+003,3.869478e+000
3.389329e+003,4.257915e+000
3.390293e+003,3.811496e+000
3.391258e+003,2.311987e+000
3.392222e+003,1.886160e+000
3.393186e+003,3.410161e+000
3.394150e+003,4.173261e+000
3.395115e+003,3.810162e+000
3.396079e+003,4.698493e+000
3.397043e+003,6.127921e+000
3.398007e+003,5.414042e+000
3.398971e+003,4.265808e+000
3.399936e+003,5.608728e+000
3.400900e+003,6.728589e+000
3.401864e+003,5.865335e+000
3.402828e+003,4.915688e+000
3.403792e+003,5.191658e+000
3.404757e+003,5.482321e+000
3.405721e+003,5.020134e+000
3.406685e+003,4.906653e+000
3.407649e+003,5.166125e+000
3.408614e+003,4.854033e+000
3.409578e+003,4.467470e+000
3.410542e+003,5.765620e+000
3.411506e+003,7.546170e+000
3.412471e+003,7.778537e+000
3.413435e+003,7.589468e+000
3.414399e+003,8.106314e+000
3.415363e+003,8.742640e+000
3.416328e+003,9.136912e+000
3.417292e+003,8.841848e+000
3.418256e+003,7.221110e+000
3.419220e+003,7.061171e+000
3.420185e+003,8.227232e+000
3.421149e+003,7.801988e+000
3.422113e+003,6.361937e+000
3.423077e+003,6.306979e+000
3.424042e+003,7.575195e+000
3.425006e+003,9.707634e+000
3.425970e+003,1.139673e+001
3.426934e+003,1.020745e+001
