7.140112e+001,1.578869e+002
7.236536e+001,1.514379e+002
7.332959e+001,1.518115e+002
7.429382e+001,1.573236e+002
7.525806e+001,1.692281e+002
7.622229e+001,1.744978e+002
7.718652e+001,1.639838e+002
7.815076e+001,1.293127e+002
7.911499e+001,1.046829e+002
8.007922e+001,8.567985e+001
8.104346e+001,7.547960e+001
8.200769e+001,7.794373e+001
8.297192e+001,1.020192e+002
8.393616e+001,1.292409e+002
8.490039e+001,1.635136e+002
8.586462e+001,1.969954e+002
8.682886e+001,2.171537e+002
8.779310e+001,1.971042e+002
8.875733e+001,1.630815e+002
8.972157e+001,1.269463e+002
9.068580e+001,9.417522e+001
9.165003e+001,6.646609e+001
9.261427e+001,5.699182e+001
9.357850e+001,5.989509e+001
9.454273e+001,6.622894e+001
9.550697e+001,7.026809e+001
9.647120e+001,7.225496e+001
9.743543e+001,7.024648e+001
9.839967e+001,6.234484e+001
9.936390e+001,5.207207e+001
1.003281e+002,4.330479e+001
1.012924e+002,3.533829e+001
1.022566e+002,3.107372e+001
1.032208e+002,3.224784e+001
1.041851e+002,3.751768e+001
1.051493e+002,4.386741e+001
1.061135e+002,5.308892e+001
1.070778e+002,5.877704e+001
1.080420e+002,5.573405e+001
1.090062e+002,4.347146e+001
1.099705e+002,2.692609e+001
1.109347e+002,1.787479e+001
1.118989e+002,1.396470e+001
1.128632e+002,1.493225e+001
1.138274e+002,2.066484e+001
1.147916e+002,3.230405e+001
1.157559e+002,3.804976e+001
1.167201e+002,3.588619e+001
1.176843e+002,3.140726e+001
1.186486e+002,3.163120e+001
1.196128e+002,4.175824e+001
1.205770e+002,4.960293e+001
1.215413e+002,5.626127e+001
1.225055e+002,6.022312e+001
1.234697e+002,5.856455e+001
1.244340e+002,4.115214e+001
1.253982e+002,2.368545e+001
1.263624e+002,9.061914e+000
1.273267e+002,-8.721436e-001
1.282909e+002,-4.692615e+000
1.292551e+002,8.232813e+000
1.302194e+002,2.639700e+001
1.311836e+002,3.964923e+001
1.321478e+002,4.153181e+001
1.331121e+002,3.183669e+001
1.340763e+002,2.278093e+001
1.350405e+002,1.360629e+001
1.360048e+002,7.050342e+000
1.369690e+002,6.404492e+000
1.379332e+002,1.691475e+001
1.388975e+002,2.568865e+001
1.398617e+002,3.401546e+001
1.408259e+002,4.026925e+001
1.417902e+002,4.179255e+001
1.427544e+002,3.304205e+001
1.437186e+002,2.384385e+001
1.446829e+002,1.608445e+001
1.456471e+002,1.016082e+001
1.466113e+002,5.553186e+000
1.475756e+002,-8.202881e-001
1.485398e+002,-4.599683e+000
1.495040e+002,5.490600e-001
1.504683e+002,1.590131e+001
1.514325e+002,3.751406e+001
1.523967e+002,4.142997e+001
1.533610e+002,3.185596e+001
1.543252e+002,1.946494e+001
1.552894e+002,1.175024e+001
1.562537e+002,1.061122e+001
1.572179e+002,8.931482e+000
1.581821e+002,4.334802e+000
1.591464e+002,6.684570e-001
1.601106e+002,2.798975e+000
1.610748e+002,1.849128e+001
1.620391e+002,2.818137e+001
1.630033e+002,2.431384e+001
1.639676e+002,1.276141e+001
1.649318e+002,2.858838e+000
1.658960e+002,5.853418e+000
1.668603e+002,1.129561e+001
1.678245e+002,1.163373e+001
1.687887e+002,6.917725e+000
1.697530e+002,5.521606e-001
1.707172e+002,2.750329e+000
1.716814e+002,1.029993e+001
1.726457e+002,1.590034e+001
1.736099e+002,1.683285e+001
1.745741e+002,1.295030e+001
1.755384e+002,7.700439e+000
1.765026e+002,-1.255591e+000
1.774668e+002,-8.787451e+000
1.784311e+002,-1.157970e+001
1.793953e+002,-7.608996e+000
1.803595e+002,-4.628613e+000
1.813238e+002,-4.700928e+000
1.822880e+002,-5.725940e+000
1.832522e+002,-5.582532e+000
1.842165e+002,-1.888708e+000
1.851807e+002,1.164429e-001
1.861449e+002,-4.983691e+000
1.871092e+002,-1.353019e+001
1.880734e+002,-2.078385e+001
1.890376e+002,-1.994907e+001
1.900019e+002,-1.304123e+001
1.909661e+002,-6.611707e+000
1.919303e+002,-1.188928e+000
1.928946e+002,2.925952e+000
1.938588e+002,4.410461e+000
1.948230e+002,1.375513e+000
1.957873e+002,-1.392944e-001
1.967515e+002,4.855835e-001
1.977157e+002,3.331763e+000
1.986800e+002,9.199206e+000
1.996442e+002,2.109371e+001
2.006084e+002,3.258281e+001
2.015727e+002,4.261328e+001
2.025369e+002,5.077405e+001
2.035011e+002,5.564506e+001
2.044654e+002,5.661250e+001
2.054296e+002,5.449863e+001
2.063938e+002,4.796875e+001
2.073581e+002,3.632024e+001
2.083223e+002,2.330297e+001
2.092865e+002,1.667749e+001
2.102508e+002,1.544827e+001
2.112150e+002,2.039753e+001
2.121792e+002,3.261419e+001
2.131435e+002,5.517078e+001
2.141077e+002,6.527226e+001
2.150719e+002,5.764236e+001
2.160362e+002,4.240961e+001
2.170004e+002,3.462762e+001
2.179646e+002,4.083329e+001
2.189289e+002,4.658512e+001
2.198931e+002,4.916603e+001
2.208573e+002,5.033010e+001
2.218216e+002,5.395233e+001
2.227858e+002,6.653812e+001
2.237500e+002,7.795683e+001
2.247143e+002,8.611548e+001
2.256785e+002,8.972638e+001
2.266427e+002,8.748916e+001
2.276070e+002,7.199709e+001
2.285712e+002,5.023607e+001
2.295354e+002,3.081494e+001
2.304997e+002,1.636860e+001
2.314639e+002,6.552405e+000
2.324281e+002,9.722900e-002
2.333924e+002,-2.738550e+000
2.343566e+002,-4.358801e+000
2.353208e+002,-5.435132e+000
2.362851e+002,-5.929675e+000
2.372493e+002,-6.168103e+000
2.382135e+002,-6.310803e+000
2.391778e+002,-6.226074e+000
2.401420e+002,-5.429907e+000
2.411062e+002,-3.506629e+000
2.420705e+002,-2.805786e+000
2.430347e+002,-5.406287e+000
2.439989e+002,-9.152453e+000
2.449632e+002,-1.271189e+001
2.459274e+002,-1.511610e+001
2.468916e+002,-1.607888e+001
2.478559e+002,-1.471193e+001
2.488201e+002,-1.201880e+001
2.497843e+002,-1.026245e+001
2.507486e+002,-1.215637e+001
2.517128e+002,-1.895165e+001
2.526770e+002,-2.157543e+001
2.536413e+002,-1.908667e+001
2.546055e+002,-1.373909e+001
2.555697e+002,-8.896912e+000
2.565340e+002,-4.065478e+000
2.574982e+002,-7.039673e-001
2.584625e+002,1.259277e+000
2.594267e+002,1.970618e+000
2.603909e+002,1.504211e+000
2.613552e+002,-1.464807e+000
2.623194e+002,-4.500183e+000
2.632836e+002,-6.566284e+000
2.642479e+002,-7.668042e+000
2.652121e+002,-8.120337e+000
2.661763e+002,-8.005139e+000
2.671406e+002,-7.779114e+000
2.681048e+002,-8.449634e+000
2.690690e+002,-1.012041e+001
2.700333e+002,-1.223654e+001
2.709975e+002,-1.231173e+001
2.719617e+002,-9.495557e+000
2.729260e+002,-7.400342e+000
2.738902e+002,-6.912854e+000
2.748544e+002,-8.025488e+000
2.758187e+002,-9.520764e+000
2.767829e+002,-1.183331e+001
2.777471e+002,-1.417753e+001
2.787114e+002,-1.692707e+001
2.796756e+002,-1.992035e+001
2.806398e+002,-2.103192e+001
2.816041e+002,-1.654266e+001
2.825683e+002,-1.141733e+001
2.835325e+002,-8.471375e+000
2.844968e+002,-8.848902e+000
2.854610e+002,-1.086860e+001
2.864252e+002,-1.050430e+001
2.873895e+002,-8.807630e+000
2.883537e+002,-6.904724e+000
2.893179e+002,-5.455408e+000
2.902822e+002,-4.390796e+000
2.912464e+002,-5.621375e+000
2.922106e+002,-9.938769e+000
2.931749e+002,-1.447587e+001
2.941391e+002,-1.743196e+001
2.951033e+002,-1.845692e+001
2.960676e+002,-1.914790e+001
2.970318e+002,-2.001574e+001
2.979960e+002,-2.029354e+001
2.989603e+002,-1.937244e+001
2.999245e+002,-1.687490e+001
3.008887e+002,-1.380952e+001
3.018530e+002,-1.061171e+001
3.028172e+002,-7.531372e+000
3.037814e+002,-4.639001e+000
3.047457e+002,-1.947046e+000
3.057099e+002,6.177979e-002
3.066741e+002,3.137695e-001
3.076384e+002,-1.002161e+000
3.086026e+002,-3.468665e+000
3.095668e+002,-6.680688e+000
3.105311e+002,-1.104607e+001
3.114953e+002,-1.391626e+001
3.124595e+002,-1.514530e+001
3.134238e+002,-1.535665e+001
3.143880e+002,-1.523744e+001
3.153522e+002,-1.481664e+001
3.163165e+002,-1.409989e+001
3.172807e+002,-1.300836e+001
3.182449e+002,-1.150043e+001
3.192092e+002,-9.416980e+000
3.201734e+002,-6.298694e+000
3.211376e+002,-3.637048e+000
3.221019e+002,-2.895618e+000
3.230661e+002,-3.197229e+000
3.240303e+002,-3.055505e+000
3.249946e+002,-4.949585e-001
3.259588e+002,3.661194e+000
3.269230e+002,4.550683e+000
3.278873e+002,2.039197e+000
3.288515e+002,-1.855933e+000
3.298157e+002,-3.565991e+000
3.307800e+002,-1.235974e+000
3.317442e+002,7.706177e-001
3.327084e+002,1.871997e+000
3.336727e+002,2.647351e+000
3.346369e+002,4.347302e+000
3.356011e+002,9.101770e+000
3.365654e+002,1.207441e+001
3.375296e+002,1.138724e+001
3.384938e+002,8.477710e+000
3.394581e+002,5.402747e+000
3.404223e+002,3.211108e+000
3.413865e+002,2.643994e+000
3.423508e+002,4.537756e+000
3.433150e+002,8.468188e+000
3.442792e+002,1.349236e+001
3.452435e+002,1.821879e+001
3.462077e+002,2.261816e+001
3.471719e+002,2.666592e+001
3.481362e+002,2.941350e+001
3.491004e+002,3.307831e+001
3.500646e+002,4.270304e+001
3.510289e+002,6.117235e+001
3.519931e+002,8.408339e+001
3.529573e+002,1.124784e+002
3.539216e+002,1.448722e+002
3.548858e+002,1.802906e+002
3.558500e+002,2.298634e+002
3.568143e+002,2.645771e+002
3.577785e+002,2.747256e+002
3.587427e+002,2.638961e+002
3.597070e+002,2.380067e+002
3.606712e+002,1.965623e+002
3.616354e+002,1.502395e+002
3.625997e+002,1.115057e+002
3.635639e+002,8.140060e+001
3.645281e+002,5.965871e+001
3.654924e+002,4.571629e+001
3.664566e+002,4.206610e+001
3.674208e+002,3.756495e+001
3.683851e+002,3.168887e+001
3.693493e+002,2.505245e+001
3.703135e+002,1.898497e+001
3.712778e+002,1.316499e+001
3.722420e+002,9.087549e+000
3.732062e+002,7.379407e+000
3.741705e+002,7.250452e+000
3.751347e+002,7.600061e+000
3.760989e+002,8.242762e+000
3.770632e+002,8.711182e+000
3.780274e+002,8.487574e+000
3.789916e+002,7.820190e+000
3.799559e+002,7.250452e+000
3.809201e+002,7.586108e+000
3.818844e+002,8.231799e+000
3.828486e+002,7.068713e+000
3.838128e+002,4.330139e+000
3.847771e+002,1.802380e+000
3.857413e+002,2.226477e+000
3.867055e+002,7.673669e+000
3.876698e+002,1.060901e+001
3.886340e+002,8.876575e+000
3.895982e+002,5.625708e+000
3.905625e+002,5.446533e+000
3.915267e+002,1.142089e+001
3.924909e+002,1.577168e+001
3.934552e+002,1.720231e+001
3.944194e+002,1.656824e+001
3.953836e+002,1.436429e+001
3.963479e+002,1.002011e+001
3.973121e+002,6.447095e+000
3.982763e+002,6.598047e+000
3.992406e+002,8.955066e+000
4.002048e+002,1.148248e+001
4.011690e+002,1.221294e+001
4.021333e+002,1.134885e+001
4.030975e+002,1.134197e+001
4.040617e+002,1.221108e+001
4.050260e+002,1.345397e+001
4.059902e+002,1.438075e+001
4.069544e+002,1.420486e+001
4.079187e+002,1.625051e+001
4.088829e+002,2.150459e+001
4.098471e+002,2.752463e+001
4.108114e+002,3.220150e+001
4.117756e+002,3.451912e+001
4.127398e+002,3.825253e+001
4.137041e+002,4.715606e+001
4.146683e+002,5.631007e+001
4.156325e+002,6.228380e+001
4.165968e+002,6.324952e+001
4.175610e+002,6.055870e+001
4.185252e+002,5.552277e+001
4.194895e+002,4.936430e+001
4.204537e+002,4.304045e+001
4.214179e+002,3.723401e+001
4.223822e+002,3.213021e+001
4.233464e+002,3.184368e+001
4.243106e+002,3.700122e+001
4.252749e+002,4.155775e+001
4.262391e+002,4.108812e+001
4.272033e+002,3.470248e+001
4.281676e+002,3.486521e+001
4.291318e+002,4.502021e+001
4.300960e+002,5.840625e+001
4.310603e+002,7.298151e+001
4.320245e+002,8.827229e+001
4.329887e+002,1.055321e+002
4.339530e+002,1.272573e+002
4.349172e+002,1.505757e+002
4.358814e+002,1.771075e+002
4.368457e+002,2.052205e+002
4.378099e+002,2.304766e+002
4.387741e+002,2.439346e+002
4.397384e+002,2.462762e+002
4.407026e+002,2.381569e+002
4.416668e+002,2.186660e+002
4.426311e+002,1.914148e+002
4.435953e+002,1.685368e+002
4.445595e+002,1.522254e+002
4.455238e+002,1.383642e+002
4.464880e+002,1.268836e+002
4.474522e+002,1.177711e+002
4.484165e+002,1.115383e+002
4.493807e+002,1.118624e+002
4.503449e+002,1.106595e+002
4.513092e+002,1.049608e+002
4.522734e+002,9.622170e+001
4.532376e+002,8.667068e+001
4.542019e+002,7.798903e+001
4.551661e+002,6.975679e+001
4.561303e+002,6.057568e+001
4.570946e+002,5.119038e+001
4.580588e+002,4.317416e+001
4.590230e+002,3.826450e+001
4.599873e+002,3.684414e+001
4.609515e+002,3.512268e+001
4.619157e+002,3.236719e+001
4.628800e+002,3.040209e+001
4.638442e+002,3.118420e+001
4.648084e+002,3.592872e+001
4.657727e+002,3.983147e+001
4.667369e+002,4.209927e+001
4.677011e+002,4.429675e+001
4.686654e+002,4.768987e+001
4.696296e+002,5.268667e+001
4.705938e+002,5.682265e+001
4.715581e+002,5.919395e+001
4.725223e+002,5.943040e+001
4.734865e+002,5.607238e+001
4.744508e+002,4.915836e+001
4.754150e+002,4.089619e+001
4.763792e+002,3.724321e+001
4.773435e+002,3.671731e+001
4.783077e+002,3.593731e+001
4.792719e+002,3.389282e+001
4.802362e+002,3.075016e+001
4.812004e+002,2.725471e+001
4.821646e+002,2.228986e+001
4.831289e+002,1.820407e+001
4.840931e+002,1.512524e+001
4.850573e+002,1.296704e+001
4.860216e+002,1.162410e+001
4.869858e+002,1.225945e+001
4.879500e+002,1.270450e+001
4.889143e+002,1.225676e+001
4.898785e+002,1.109526e+001
4.908427e+002,9.474024e+000
4.918070e+002,7.345630e+000
4.927712e+002,5.310706e+000
4.937354e+002,4.394922e+000
4.946997e+002,4.333337e+000
4.956639e+002,4.333557e+000
4.966281e+002,3.557202e+000
4.975924e+002,1.896704e+000
4.985566e+002,2.229907e+000
4.995208e+002,4.595911e+000
5.004851e+002,8.117126e+000
5.014493e+002,1.261514e+001
5.024135e+002,1.853555e+001
5.033778e+002,2.330283e+001
5.043420e+002,2.706223e+001
5.053063e+002,2.978156e+001
5.062705e+002,3.122144e+001
5.072347e+002,3.128344e+001
5.081990e+002,3.013904e+001
5.091632e+002,2.661663e+001
5.101274e+002,2.283723e+001
5.110917e+002,2.043551e+001
5.120559e+002,1.952089e+001
5.130201e+002,1.896268e+001
5.139844e+002,1.629579e+001
5.149486e+002,1.163828e+001
5.159128e+002,7.766333e+000
5.168771e+002,5.173474e+000
5.178413e+002,3.362073e+000
5.188055e+002,1.217041e+000
5.197698e+002,-1.744531e+000
5.207340e+002,-4.351685e+000
5.216982e+002,-6.401166e+000
5.226625e+002,-8.222687e+000
5.236267e+002,-1.037545e+001
5.245909e+002,-1.347020e+001
5.255552e+002,-1.548744e+001
5.265194e+002,-1.500341e+001
5.274836e+002,-1.352102e+001
5.284479e+002,-1.211171e+001
5.294121e+002,-1.139375e+001
5.303763e+002,-1.131660e+001
5.313406e+002,-1.280036e+001
5.323048e+002,-1.494290e+001
5.332690e+002,-1.543646e+001
5.342333e+002,-1.304371e+001
5.351975e+002,-8.297046e+000
5.361617e+002,-5.615753e+000
5.371260e+002,-5.713769e+000
5.380902e+002,-6.561475e+000
5.390544e+002,-8.996661e+000
5.400187e+002,-1.220369e+001
5.409829e+002,-1.320352e+001
5.419471e+002,-8.465716e+000
5.429114e+002,-4.803626e+000
5.438756e+002,-4.231299e+000
5.448398e+002,-5.921967e+000
5.458041e+002,-8.711695e+000
5.467683e+002,-1.221808e+001
5.477325e+002,-1.513122e+001
5.486968e+002,-1.572404e+001
5.496610e+002,-1.465342e+001
5.506252e+002,-1.293688e+001
5.515895e+002,-1.140531e+001
5.525537e+002,-1.009252e+001
5.535179e+002,-1.004309e+001
5.544822e+002,-1.150913e+001
5.554464e+002,-1.281109e+001
5.564106e+002,-1.311822e+001
5.573749e+002,-1.246207e+001
5.583391e+002,-1.177371e+001
5.593033e+002,-1.023097e+001
5.602676e+002,-9.530896e+000
5.612318e+002,-1.062267e+001
5.621960e+002,-1.306761e+001
5.631603e+002,-1.553787e+001
5.641245e+002,-1.739783e+001
5.650887e+002,-1.837985e+001
5.660530e+002,-1.811099e+001
5.670172e+002,-1.692039e+001
5.679814e+002,-1.540078e+001
5.689457e+002,-1.416677e+001
5.699099e+002,-1.330512e+001
5.708741e+002,-1.303546e+001
5.718384e+002,-1.335654e+001
5.728026e+002,-1.380977e+001
5.737668e+002,-1.411588e+001
5.747311e+002,-1.433595e+001
5.756953e+002,-1.420809e+001
5.766595e+002,-1.301857e+001
5.776238e+002,-1.225172e+001
5.785880e+002,-1.269441e+001
5.795522e+002,-1.425643e+001
5.805165e+002,-1.588138e+001
5.814807e+002,-1.694432e+001
5.824449e+002,-1.771151e+001
5.834092e+002,-1.862669e+001
5.843734e+002,-1.945456e+001
5.853376e+002,-1.945402e+001
5.863019e+002,-1.752598e+001
5.872661e+002,-1.425333e+001
5.882303e+002,-1.291653e+001
5.891946e+002,-1.353718e+001
5.901588e+002,-1.482601e+001
5.911230e+002,-1.556612e+001
5.920873e+002,-1.577120e+001
5.930515e+002,-1.533568e+001
5.940157e+002,-1.329140e+001
5.949800e+002,-1.171321e+001
5.959442e+002,-1.204495e+001
5.969084e+002,-1.428002e+001
5.978727e+002,-1.608522e+001
5.988369e+002,-1.562208e+001
5.998011e+002,-1.483044e+001
6.007654e+002,-1.435275e+001
6.017296e+002,-1.427194e+001
6.026938e+002,-1.440909e+001
6.036581e+002,-1.464258e+001
6.046223e+002,-1.487289e+001
6.055865e+002,-1.465743e+001
6.065508e+002,-1.401407e+001
6.075150e+002,-1.350175e+001
6.084792e+002,-1.381030e+001
6.094435e+002,-1.529786e+001
6.104077e+002,-1.555377e+001
6.113719e+002,-1.385889e+001
6.123362e+002,-1.218674e+001
6.133004e+002,-1.174376e+001
6.142646e+002,-1.254659e+001
6.152289e+002,-1.292878e+001
6.161931e+002,-1.144368e+001
6.171573e+002,-1.012493e+001
6.181216e+002,-9.893170e+000
6.190858e+002,-1.042689e+001
6.200500e+002,-1.075113e+001
6.210143e+002,-9.920166e+000
6.219785e+002,-8.415339e+000
6.229427e+002,-7.457056e+000
6.239070e+002,-6.917358e+000
6.248712e+002,-6.093866e+000
6.258354e+002,-4.232806e+000
6.267997e+002,-1.076349e+000
6.277639e+002,1.400549e+000
6.287281e+002,3.483453e+000
6.296924e+002,4.650495e+000
6.306566e+002,4.332782e+000
6.316208e+002,2.664300e+000
6.325851e+002,1.130316e+000
6.335493e+002,3.196838e-001
6.345135e+002,-2.702881e-001
6.354778e+002,-8.575989e-001
6.364420e+002,-1.383789e+000
6.374063e+002,-1.639740e+000
6.383705e+002,-1.387378e+000
6.393347e+002,-9.424744e-001
6.402990e+002,-6.959289e-001
6.412632e+002,-6.299194e-001
6.422274e+002,-8.287719e-001
6.431917e+002,-1.382532e+000
6.441559e+002,-2.297082e+000
6.451201e+002,-3.017645e+000
6.460844e+002,-3.656921e+000
6.470486e+002,-3.996381e+000
6.480128e+002,-3.394208e+000
6.489771e+002,-2.270148e+000
6.499413e+002,-2.538110e+000
6.509055e+002,-5.985101e+000
6.518698e+002,-9.101801e+000
6.528340e+002,-1.141990e+001
6.537982e+002,-1.269623e+001
6.547625e+002,-1.237815e+001
6.557267e+002,-9.913635e+000
6.566909e+002,-7.243524e+000
6.576552e+002,-7.748248e+000
6.586194e+002,-9.859851e+000
6.595836e+002,-1.122135e+001
6.605479e+002,-1.065059e+001
6.615121e+002,-8.657562e+000
6.624763e+002,-7.535669e+000
6.634406e+002,-7.610754e+000
6.644048e+002,-7.791858e+000
6.653690e+002,-7.864172e+000
6.663333e+002,-8.123517e+000
6.672975e+002,-9.294281e+000
6.682617e+002,-1.251018e+001
6.692260e+002,-1.390995e+001
6.701902e+002,-1.157305e+001
6.711544e+002,-8.200427e+000
6.721187e+002,-5.870532e+000
6.730829e+002,-5.350775e+000
6.740471e+002,-5.789258e+000
6.750114e+002,-6.688586e+000
6.759756e+002,-7.495313e+000
6.769398e+002,-7.377398e+000
6.779041e+002,-6.275805e+000
6.788683e+002,-4.944385e+000
6.798325e+002,-4.772174e+000
6.807968e+002,-6.257605e+000
6.817610e+002,-6.985138e+000
6.827252e+002,-6.407349e+000
6.836895e+002,-5.558960e+000
6.846537e+002,-5.544281e+000
6.856179e+002,-6.666235e+000
6.865822e+002,-7.039972e+000
6.875464e+002,-4.974536e+000
6.885106e+002,-3.293945e+000
6.894749e+002,-3.658173e+000
6.904391e+002,-5.712060e+000
6.914034e+002,-7.702374e+000
6.923676e+002,-8.233264e+000
6.933318e+002,-7.419482e+000
6.942961e+002,-4.993988e+000
6.952603e+002,-1.560938e+000
6.962245e+002,9.300781e-001
6.971888e+002,6.123596e-001
6.981530e+002,-2.623346e+000
6.991172e+002,-3.187701e+000
7.000815e+002,2.850891e-001
7.010457e+002,3.077826e+000
7.020099e+002,2.840863e+000
7.029742e+002,4.046631e-001
7.039384e+002,-3.361206e-001
7.049026e+002,3.269812e+000
7.058669e+002,5.947290e+000
7.068311e+002,5.220581e+000
7.077953e+002,3.185455e+000
7.087596e+002,2.820673e+000
7.097238e+002,5.841241e+000
7.106880e+002,9.556971e+000
7.116523e+002,8.965479e+000
7.126165e+002,6.204993e+000
7.135807e+002,4.414136e+000
7.145450e+002,4.801672e+000
7.155092e+002,6.410767e+000
7.164734e+002,6.555719e+000
7.174377e+002,4.138349e+000
7.184019e+002,2.485321e+000
7.193661e+002,1.999634e+000
7.203304e+002,1.900531e+000
7.212946e+002,1.402032e+000
7.222589e+002,4.008118e-001
7.232231e+002,-5.487976e-001
7.241873e+002,-1.413147e+000
7.251516e+002,-2.079486e+000
7.261158e+002,-2.671710e+000
7.270800e+002,-3.102533e+000
7.280443e+002,-2.974353e+000
7.290085e+002,-1.516608e+000
7.299727e+002,4.922608e-001
7.309370e+002,1.488049e+000
7.319012e+002,1.504608e+000
7.328654e+002,8.219910e-001
7.338297e+002,-3.991150e-001
7.347939e+002,-2.230243e+000
7.357581e+002,-3.209912e+000
7.367224e+002,-2.846069e+000
7.376866e+002,-2.438043e+000
7.386508e+002,-2.220783e+000
7.396151e+002,-2.208154e+000
7.405793e+002,-2.457703e+000
7.415435e+002,-3.203864e+000
7.425078e+002,-3.717114e+000
7.434720e+002,-3.659051e+000
7.444362e+002,-3.361188e+000
7.454005e+002,-3.183758e+000
7.463647e+002,-3.276685e+000
7.473289e+002,-3.406305e+000
7.482932e+002,-2.810333e+000
7.492574e+002,-1.850812e+000
7.502216e+002,-1.809345e+000
7.511859e+002,-3.118433e+000
7.521501e+002,-4.875257e+000
7.531143e+002,-5.279089e+000
7.540786e+002,-3.212640e+000
7.550428e+002,-2.369495e+000
7.560070e+002,-3.790015e+000
7.569713e+002,-5.193841e+000
7.579355e+002,-4.871338e+000
7.588997e+002,-2.895599e+000
7.598640e+002,-1.571130e+000
7.608282e+002,-2.972058e+000
7.617924e+002,-4.491351e+000
7.627567e+002,-5.134570e+000
7.637209e+002,-4.793561e+000
7.646851e+002,-3.562982e+000
7.656494e+002,-1.520050e+000
7.666136e+002,1.335236e+000
7.675778e+002,6.039300e+000
7.685421e+002,1.229839e+001
7.695063e+002,1.594065e+001
7.704705e+002,1.429351e+001
7.714348e+002,8.852869e+000
7.723990e+002,5.679407e+000
7.733632e+002,6.735071e+000
7.743275e+002,7.151715e+000
7.752917e+002,6.018707e+000
7.762559e+002,4.592547e+000
7.772202e+002,4.150403e+000
7.781844e+002,5.004736e+000
7.791486e+002,5.788263e+000
7.801129e+002,4.406250e+000
7.810771e+002,3.020892e+000
7.820413e+002,3.460962e+000
7.830056e+002,5.614594e+000
7.839698e+002,8.180066e+000
7.849340e+002,9.676428e+000
7.858983e+002,1.008790e+001
7.868625e+002,1.025792e+001
7.878267e+002,9.982892e+000
7.887910e+002,1.002601e+001
7.897552e+002,1.113264e+001
7.907194e+002,1.313167e+001
7.916837e+002,1.441101e+001
7.926479e+002,1.414459e+001
7.936121e+002,1.391899e+001
7.945764e+002,1.407169e+001
7.955406e+002,1.436311e+001
7.965048e+002,1.432751e+001
7.974691e+002,1.383007e+001
7.984333e+002,1.386904e+001
7.993975e+002,1.653657e+001
8.003618e+002,2.004949e+001
8.013260e+002,2.247190e+001
8.022902e+002,2.348412e+001
8.032545e+002,2.401160e+001
8.042187e+002,2.549329e+001
8.051829e+002,2.824838e+001
8.061472e+002,3.032251e+001
8.071114e+002,3.099169e+001
8.080756e+002,3.180687e+001
8.090399e+002,3.335342e+001
8.100041e+002,3.570510e+001
8.109683e+002,3.919005e+001
8.119326e+002,4.493166e+001
8.128968e+002,5.045624e+001
8.138610e+002,5.424182e+001
8.148253e+002,5.754175e+001
8.157895e+002,6.193085e+001
8.167537e+002,6.820140e+001
8.177180e+002,7.545795e+001
8.186822e+002,8.281007e+001
8.196464e+002,8.985870e+001
8.206107e+002,9.539330e+001
8.215749e+002,9.900951e+001
8.225391e+002,1.013725e+002
8.235034e+002,1.037816e+002
8.244676e+002,1.072437e+002
8.254318e+002,1.070311e+002
8.263961e+002,1.019582e+002
8.273603e+002,9.608122e+001
8.283245e+002,9.090891e+001
8.292888e+002,8.638226e+001
8.302530e+002,8.173415e+001
8.312172e+002,7.623981e+001
8.321815e+002,7.130391e+001
8.331457e+002,6.815448e+001
8.341099e+002,6.606590e+001
8.350742e+002,6.407920e+001
8.360384e+002,6.168059e+001
8.370026e+002,5.904655e+001
8.379669e+002,5.661853e+001
8.389311e+002,5.436853e+001
8.398953e+002,5.133895e+001
8.408596e+002,4.689547e+001
8.418238e+002,4.236770e+001
8.427880e+002,3.949113e+001
8.437523e+002,3.863171e+001
8.447165e+002,3.765710e+001
8.456807e+002,3.632116e+001
8.466450e+002,3.485449e+001
8.476092e+002,3.321696e+001
8.485734e+002,3.143297e+001
8.495377e+002,2.958221e+001
8.505019e+002,2.773672e+001
8.514661e+002,2.597955e+001
8.524304e+002,2.401075e+001
8.533946e+002,2.225192e+001
8.543588e+002,2.183318e+001
8.553231e+002,2.309295e+001
8.562873e+002,2.481096e+001
8.572515e+002,2.421793e+001
8.582158e+002,1.993685e+001
8.591800e+002,1.763482e+001
8.601442e+002,1.887451e+001
8.611085e+002,2.024277e+001
8.620727e+002,1.907053e+001
8.630369e+002,1.562391e+001
8.640012e+002,1.340482e+001
8.649654e+002,1.424756e+001
8.659296e+002,1.580594e+001
8.668939e+002,1.754467e+001
8.678581e+002,1.912595e+001
8.688223e+002,2.021441e+001
8.697866e+002,2.064281e+001
8.707508e+002,2.062932e+001
8.717150e+002,2.058949e+001
8.726793e+002,2.045831e+001
8.736435e+002,1.990331e+001
8.746077e+002,1.878185e+001
8.755720e+002,1.757472e+001
8.765362e+002,1.711658e+001
8.775004e+002,1.786967e+001
8.784647e+002,1.733230e+001
8.794289e+002,1.341355e+001
8.803931e+002,1.058609e+001
8.813574e+002,1.139124e+001
8.823216e+002,1.411285e+001
8.832858e+002,1.509022e+001
8.842501e+002,1.239532e+001
8.852143e+002,8.929682e+000
8.861785e+002,7.572418e+000
8.871428e+002,7.171844e+000
8.881070e+002,6.475366e+000
8.890712e+002,5.147925e+000
8.900355e+002,3.704907e+000
8.909997e+002,3.008502e+000
8.919639e+002,3.252673e+000
8.929282e+002,2.983295e+000
8.938924e+002,1.938470e+000
8.948566e+002,8.051575e-001
8.958209e+002,-1.582153e-001
8.967851e+002,-9.401184e-001
8.977493e+002,-1.471222e+000
8.987136e+002,-1.504572e+000
8.996778e+002,-1.804401e+000
9.006420e+002,-2.917206e+000
9.016063e+002,-4.172431e+000
9.025705e+002,-4.831018e+000
9.035347e+002,-4.739947e+000
9.044990e+002,-4.490582e+000
9.054632e+002,-4.929437e+000
9.064274e+002,-5.929156e+000
9.073917e+002,-6.538476e+000
9.083559e+002,-6.683520e+000
9.093201e+002,-6.785400e+000
9.102844e+002,-7.260736e+000
9.112486e+002,-8.079260e+000
9.122128e+002,-8.450879e+000
9.131771e+002,-7.638410e+000
9.141413e+002,-7.341583e+000
9.151055e+002,-8.061670e+000
9.160698e+002,-9.104620e+000
9.170340e+002,-9.846423e+000
9.179982e+002,-1.016232e+001
9.189625e+002,-1.033571e+001
9.199267e+002,-1.051207e+001
9.208909e+002,-1.067202e+001
9.218552e+002,-1.059674e+001
9.228194e+002,-1.044716e+001
9.237836e+002,-1.082027e+001
9.247479e+002,-1.220356e+001
9.257121e+002,-1.427890e+001
9.266763e+002,-1.512918e+001
9.276406e+002,-1.417128e+001
9.286048e+002,-1.328622e+001
9.295690e+002,-1.213066e+001
9.305333e+002,-1.143871e+001
9.314975e+002,-1.253541e+001
9.324617e+002,-1.578843e+001
9.334260e+002,-1.802402e+001
9.343902e+002,-1.736522e+001
9.353545e+002,-1.573809e+001
9.363187e+002,-1.290069e+001
9.372830e+002,-9.876605e+000
9.382472e+002,-8.390356e+000
9.392114e+002,-9.452228e+000
9.401757e+002,-1.175485e+001
9.411399e+002,-1.215045e+001
9.421041e+002,-1.102166e+001
9.430684e+002,-1.064689e+001
9.440326e+002,-1.176802e+001
9.449968e+002,-1.319205e+001
9.459611e+002,-1.325651e+001
9.469253e+002,-1.163823e+001
9.478895e+002,-1.024553e+001
9.488538e+002,-9.264331e+000
9.498180e+002,-8.540753e+000
9.507822e+002,-8.020032e+000
9.517465e+002,-7.796985e+000
9.527107e+002,-8.206342e+000
9.536749e+002,-9.386511e+000
9.546392e+002,-1.032114e+001
9.556034e+002,-9.439929e+000
9.565676e+002,-7.739136e+000
9.575319e+002,-6.261963e+000
9.584961e+002,-5.141809e+000
9.594603e+002,-4.247687e+000
9.604246e+002,-3.486762e+000
9.613888e+002,-2.893256e+000
9.623530e+002,-2.489868e+000
9.633173e+002,-3.243079e+000
9.642815e+002,-2.894843e+000
9.652457e+002,-1.185986e+000
9.662100e+002,1.916742e+000
9.671742e+002,6.229034e+000
9.681384e+002,1.164518e+001
9.691027e+002,1.889650e+001
9.700669e+002,2.898969e+001
9.710311e+002,4.088433e+001
9.719954e+002,5.791384e+001
9.729596e+002,7.611858e+001
9.739238e+002,8.683414e+001
9.748881e+002,8.426046e+001
9.758523e+002,7.192104e+001
9.768165e+002,6.113572e+001
9.777808e+002,5.219299e+001
9.787450e+002,4.359063e+001
9.797092e+002,3.458244e+001
9.806735e+002,2.637164e+001
9.816377e+002,2.023825e+001
9.826019e+002,1.622924e+001
9.835662e+002,1.313730e+001
9.845304e+002,1.098508e+001
9.854946e+002,9.529505e+000
9.864589e+002,9.136225e+000
9.874231e+002,9.191480e+000
9.883873e+002,8.594660e+000
9.893516e+002,7.063983e+000
9.903158e+002,5.950104e+000
9.912800e+002,7.489954e+000
9.922443e+002,1.124261e+001
9.932085e+002,1.385376e+001
9.941727e+002,1.504761e+001
9.951370e+002,1.749034e+001
9.961012e+002,2.326478e+001
9.970654e+002,3.186255e+001
9.980297e+002,4.016493e+001
9.989939e+002,4.332520e+001
9.999581e+002,5.533110e+001
1.000922e+003,7.385016e+001
1.001887e+003,1.039723e+002
1.002851e+003,1.561114e+002
1.003815e+003,2.257794e+002
1.004779e+003,2.952298e+002
1.005744e+003,3.603839e+002
1.006708e+003,4.020246e+002
1.007672e+003,3.884313e+002
1.008636e+003,3.355429e+002
1.009600e+003,2.744572e+002
1.010565e+003,2.181223e+002
1.011529e+003,1.680445e+002
1.012493e+003,1.283544e+002
1.013457e+003,1.013533e+002
1.014422e+003,7.947518e+001
1.015386e+003,6.254174e+001
1.016350e+003,4.943027e+001
1.017314e+003,4.112379e+001
1.018279e+003,3.584063e+001
1.019243e+003,3.027047e+001
1.020207e+003,2.314507e+001
1.021171e+003,1.686598e+001
1.022135e+003,1.398931e+001
1.023100e+003,1.260424e+001
1.024064e+003,1.135172e+001
1.025028e+003,9.957123e+000
1.025992e+003,8.688764e+000
1.026957e+003,7.819342e+000
1.027921e+003,7.315216e+000
1.028885e+003,6.623413e+000
1.029849e+003,5.907568e+000
1.030814e+003,4.602203e+000
1.031778e+003,1.401227e+000
1.032742e+003,-1.658386e+000
1.033706e+003,-2.167255e+000
1.034671e+003,-2.827759e-002
1.035635e+003,1.855627e+000
1.036599e+003,2.277508e+000
1.037563e+003,2.294177e+000
1.038527e+003,2.597955e+000
1.039492e+003,2.792090e+000
1.040456e+003,2.085663e+000
1.041420e+003,3.686462e-001
1.042384e+003,-1.379102e+000
1.043349e+003,-1.666431e+000
1.044313e+003,-5.122925e-001
1.045277e+003,2.387695e-002
1.046241e+003,-2.253113e-001
1.047206e+003,-5.432190e-001
1.048170e+003,-8.274292e-001
1.049134e+003,-8.894470e-001
1.050098e+003,-1.587891e-001
1.051063e+003,1.709869e+000
1.052027e+003,3.614685e+000
1.052991e+003,5.935553e+000
1.053955e+003,7.310760e+000
1.054919e+003,6.360437e+000
1.055884e+003,3.880634e+000
1.056848e+003,1.652698e+000
1.057812e+003,7.927490e-001
1.058776e+003,7.653809e-001
1.059741e+003,2.298584e-001
1.060705e+003,-7.095947e-001
1.061669e+003,-5.484864e-001
1.062633e+003,1.344745e+000
1.063598e+003,2.991156e+000
1.064562e+003,1.960828e+000
1.065526e+003,-1.389392e+000
1.066490e+003,-2.349902e+000
1.067454e+003,1.548505e+000
1.068419e+003,4.391602e+000
1.069383e+003,3.792554e+000
1.070347e+003,2.438910e+000
1.071311e+003,2.901898e+000
1.072276e+003,5.078210e+000
1.073240e+003,6.688886e+000
1.074204e+003,5.918622e+000
1.075168e+003,3.713129e+000
1.076133e+003,2.007477e+000
1.077097e+003,7.270263e-001
1.078061e+003,-2.800659e-001
1.079025e+003,-1.151495e+000
1.079990e+003,-1.544647e+000
1.080954e+003,-7.829102e-001
1.081918e+003,1.357660e+000
1.082882e+003,3.110840e+000
1.083846e+003,4.411652e+000
1.084811e+003,5.194238e+000
1.085775e+003,5.202692e+000
1.086739e+003,4.805371e+000
1.087703e+003,4.089838e+000
1.088668e+003,3.303802e+000
1.089632e+003,3.452203e+000
1.090596e+003,5.837293e+000
1.091560e+003,8.986310e+000
1.092525e+003,9.912598e+000
1.093489e+003,9.034381e+000
1.094453e+003,8.094251e+000
1.095417e+003,7.884894e+000
1.096381e+003,8.119165e+000
1.097346e+003,8.229773e+000
1.098310e+003,8.234991e+000
1.099274e+003,8.030780e+000
1.100238e+003,7.614740e+000
1.101203e+003,7.094171e+000
1.102167e+003,6.004645e+000
1.103131e+003,5.001807e+000
1.104095e+003,5.123682e+000
1.105060e+003,6.573810e+000
1.106024e+003,8.163068e+000
1.106988e+003,8.986743e+000
1.107952e+003,9.348401e+000
1.108917e+003,9.541071e+000
1.109881e+003,9.631427e+000
1.110845e+003,9.973547e+000
1.111809e+003,1.078291e+001
1.112773e+003,1.168040e+001
1.113738e+003,1.173258e+001
1.114702e+003,1.048472e+001
1.115666e+003,1.003244e+001
1.116630e+003,1.097928e+001
1.117595e+003,1.169342e+001
1.118559e+003,1.140874e+001
1.119523e+003,1.064617e+001
1.120487e+003,1.023181e+001
1.121452e+003,1.041816e+001
1.122416e+003,1.082313e+001
1.123380e+003,1.113222e+001
1.124344e+003,1.133784e+001
1.125308e+003,1.163637e+001
1.126273e+003,1.197427e+001
1.127237e+003,1.189525e+001
1.128201e+003,1.108258e+001
1.129165e+003,1.007960e+001
1.130130e+003,1.025258e+001
1.131094e+003,1.212405e+001
1.132058e+003,1.331551e+001
1.133022e+003,1.354694e+001
1.133987e+003,1.364453e+001
1.134951e+003,1.404251e+001
1.135915e+003,1.448998e+001
1.136879e+003,1.448309e+001
1.137844e+003,1.390686e+001
1.138808e+003,1.331062e+001
1.139772e+003,1.295629e+001
1.140736e+003,1.284650e+001
1.141700e+003,1.315440e+001
1.142665e+003,1.383166e+001
1.143629e+003,1.469022e+001
1.144593e+003,1.568199e+001
1.145557e+003,1.658313e+001
1.146522e+003,1.677304e+001
1.147486e+003,1.575592e+001
1.148450e+003,1.553859e+001
1.149414e+003,1.700471e+001
1.150379e+003,1.829537e+001
1.151343e+003,1.910195e+001
1.152307e+003,1.943336e+001
1.153271e+003,1.889992e+001
1.154235e+003,1.754482e+001
1.155200e+003,1.668398e+001
1.156164e+003,1.734222e+001
1.157128e+003,1.921561e+001
1.158092e+003,2.232933e+001
1.159057e+003,2.596238e+001
1.160021e+003,2.802444e+001
1.160985e+003,2.765743e+001
1.161949e+003,2.652994e+001
1.162914e+003,2.733110e+001
1.163878e+003,3.044036e+001
1.164842e+003,3.229105e+001
1.165806e+003,3.160333e+001
1.166771e+003,3.110461e+001
1.167735e+003,3.153989e+001
1.168699e+003,3.199656e+001
1.169663e+003,3.105276e+001
1.170627e+003,2.908494e+001
1.171592e+003,2.863680e+001
1.172556e+003,3.174659e+001
1.173520e+003,3.580300e+001
1.174484e+003,3.620040e+001
1.175449e+003,3.470371e+001
1.176413e+003,3.494470e+001
1.177377e+003,3.772126e+001
1.178341e+003,4.087578e+001
1.179306e+003,4.224349e+001
1.180270e+003,4.202936e+001
1.181234e+003,4.219666e+001
1.182198e+003,4.331525e+001
1.183162e+003,4.361060e+001
1.184127e+003,4.152561e+001
1.185091e+003,3.999791e+001
1.186055e+003,4.202929e+001
1.187019e+003,4.604020e+001
1.187984e+003,4.778802e+001
1.188948e+003,4.525182e+001
1.189912e+003,4.129718e+001
1.190876e+003,3.920734e+001
1.191841e+003,3.869769e+001
1.192805e+003,3.915338e+001
1.193769e+003,4.054463e+001
1.194733e+003,4.169935e+001
1.195698e+003,4.189165e+001
1.196662e+003,4.130823e+001
1.197626e+003,4.041640e+001
1.198590e+003,3.909701e+001
1.199554e+003,3.779044e+001
1.200519e+003,3.644003e+001
1.201483e+003,3.542834e+001
1.202447e+003,3.489314e+001
1.203411e+003,3.473906e+001
1.204376e+003,3.477271e+001
1.205340e+003,3.488701e+001
1.206304e+003,3.523879e+001
1.207268e+003,3.622017e+001
1.208233e+003,3.755863e+001
1.209197e+003,3.763274e+001
1.210161e+003,3.656714e+001
1.211125e+003,3.646922e+001
1.212089e+003,3.849141e+001
1.213054e+003,4.044099e+001
1.214018e+003,3.935841e+001
1.214982e+003,3.569783e+001
1.215946e+003,3.429930e+001
1.216911e+003,3.697123e+001
1.217875e+003,3.924879e+001
1.218839e+003,3.994669e+001
1.219803e+003,3.957566e+001
1.220768e+003,3.799436e+001
1.221732e+003,3.591289e+001
1.222696e+003,3.438482e+001
1.223660e+003,3.401243e+001
1.224625e+003,3.491295e+001
1.225589e+003,3.760970e+001
1.226553e+003,4.204158e+001
1.227517e+003,4.450059e+001
1.228481e+003,4.464471e+001
1.229446e+003,4.403242e+001
1.230410e+003,4.282977e+001
1.231374e+003,4.148900e+001
1.232338e+003,4.103083e+001
1.233303e+003,4.164138e+001
1.234267e+003,4.173966e+001
1.235231e+003,4.029626e+001
1.236195e+003,3.868462e+001
1.237160e+003,3.698714e+001
1.238124e+003,3.585028e+001
1.239088e+003,3.650523e+001
1.240052e+003,3.886745e+001
1.241016e+003,4.140513e+001
1.241981e+003,4.264280e+001
1.242945e+003,4.276494e+001
1.243909e+003,4.267098e+001
1.244873e+003,4.235062e+001
1.245838e+003,4.195031e+001
1.246802e+003,4.117211e+001
1.247766e+003,4.057943e+001
1.248730e+003,4.035536e+001
1.249695e+003,4.056838e+001
1.250659e+003,4.161777e+001
1.251623e+003,4.371227e+001
1.252587e+003,4.530720e+001
1.253552e+003,4.510225e+001
1.254516e+003,4.407329e+001
1.255480e+003,4.267134e+001
1.256444e+003,4.135907e+001
1.257408e+003,4.125079e+001
1.258373e+003,4.275823e+001
1.259337e+003,4.502520e+001
1.260301e+003,4.697651e+001
1.261265e+003,4.867075e+001
1.262230e+003,4.948712e+001
1.263194e+003,4.812318e+001
1.264158e+003,4.735104e+001
1.265122e+003,4.806556e+001
1.266087e+003,4.877219e+001
1.267051e+003,4.821143e+001
1.268015e+003,4.691123e+001
1.268979e+003,4.627919e+001
1.269943e+003,4.686892e+001
1.270908e+003,4.800666e+001
1.271872e+003,4.914327e+001
1.272836e+003,5.022237e+001
1.273800e+003,5.103473e+001
1.274765e+003,5.162315e+001
1.275729e+003,5.247852e+001
1.276693e+003,5.398230e+001
1.277657e+003,5.554908e+001
1.278622e+003,5.615295e+001
1.279586e+003,5.568335e+001
1.280550e+003,5.538282e+001
1.281514e+003,5.578376e+001
1.282479e+003,5.604127e+001
1.283443e+003,5.558130e+001
1.284407e+003,5.510249e+001
1.285371e+003,5.515591e+001
1.286335e+003,5.557452e+001
1.287300e+003,5.586245e+001
1.288264e+003,5.582543e+001
1.289228e+003,5.580287e+001
1.290192e+003,5.628793e+001
1.291157e+003,5.722557e+001
1.292121e+003,5.758942e+001
1.293085e+003,5.694607e+001
1.294049e+003,5.663674e+001
1.295014e+003,5.755103e+001
1.295978e+003,5.892204e+001
1.296942e+003,5.972526e+001
1.297906e+003,6.003937e+001
1.298870e+003,6.086500e+001
1.299835e+003,6.280176e+001
1.300799e+003,6.418259e+001
1.301763e+003,6.327959e+001
1.302727e+003,6.182050e+001
1.303692e+003,6.147864e+001
1.304656e+003,6.228864e+001
1.305620e+003,6.345680e+001
1.306584e+003,6.445306e+001
1.307549e+003,6.513300e+001
1.308513e+003,6.517378e+001
1.309477e+003,6.427543e+001
1.310441e+003,6.459540e+001
1.311406e+003,6.609519e+001
1.312370e+003,6.901747e+001
1.313334e+003,7.657227e+001
1.314298e+003,8.289783e+001
1.315263e+003,8.158923e+001
1.316227e+003,7.451604e+001
1.317191e+003,6.865829e+001
1.318155e+003,6.686935e+001
1.319120e+003,6.751399e+001
1.320084e+003,6.967871e+001
1.321048e+003,7.257571e+001
1.322012e+003,7.497902e+001
1.322976e+003,7.672552e+001
1.323941e+003,7.634711e+001
1.324905e+003,7.245667e+001
1.325869e+003,6.779657e+001
1.326833e+003,6.661955e+001
1.327798e+003,6.886095e+001
1.328762e+003,7.016189e+001
1.329726e+003,6.924309e+001
1.330690e+003,6.906792e+001
1.331655e+003,7.113489e+001
1.332619e+003,7.349100e+001
1.333583e+003,7.489177e+001
1.334547e+003,7.549044e+001
1.335511e+003,7.601485e+001
1.336476e+003,7.670857e+001
1.337440e+003,7.696098e+001
1.338404e+003,7.596155e+001
1.339368e+003,7.398273e+001
1.340333e+003,7.300421e+001
1.341297e+003,7.326808e+001
1.342261e+003,7.342143e+001
1.343225e+003,7.322827e+001
1.344190e+003,7.303984e+001
1.345154e+003,7.313326e+001
1.346118e+003,7.341191e+001
1.347082e+003,7.367515e+001
1.348047e+003,7.386751e+001
1.349011e+003,7.363359e+001
1.349975e+003,7.194519e+001
1.350939e+003,7.086432e+001
1.351903e+003,7.378219e+001
1.352868e+003,7.847894e+001
1.353832e+003,7.973872e+001
1.354796e+003,7.636520e+001
1.355760e+003,7.274715e+001
1.356725e+003,7.325497e+001
1.357689e+003,7.682481e+001
1.358653e+003,7.851572e+001
1.359617e+003,7.745818e+001
1.360582e+003,7.700325e+001
1.361546e+003,7.815147e+001
1.362510e+003,7.896317e+001
1.363474e+003,7.852287e+001
1.364438e+003,7.784113e+001
1.365403e+003,7.778548e+001
1.366367e+003,7.844606e+001
1.367331e+003,7.964793e+001
1.368295e+003,8.131631e+001
1.369260e+003,8.309599e+001
1.370224e+003,8.452443e+001
1.371188e+003,8.570223e+001
1.372152e+003,8.597684e+001
1.373117e+003,8.474840e+001
1.374081e+003,8.367178e+001
1.375045e+003,8.325801e+001
1.376009e+003,8.337911e+001
1.376974e+003,8.433765e+001
1.377938e+003,8.590381e+001
1.378902e+003,8.633291e+001
1.379866e+003,8.458562e+001
1.380830e+003,8.335803e+001
1.381795e+003,8.581588e+001
1.382759e+003,8.869289e+001
1.383723e+003,8.860909e+001
1.384687e+003,8.652653e+001
1.385652e+003,8.525458e+001
1.386616e+003,8.587001e+001
1.387580e+003,8.767637e+001
1.388544e+003,9.009653e+001
1.389509e+003,9.287865e+001
1.390473e+003,9.412927e+001
1.391437e+003,9.323470e+001
1.392401e+003,9.251772e+001
1.393365e+003,9.219899e+001
1.394330e+003,9.184922e+001
1.395294e+003,9.065926e+001
1.396258e+003,8.959474e+001
1.397222e+003,9.048169e+001
1.398187e+003,9.315564e+001
1.399151e+003,9.532694e+001
1.400115e+003,9.528068e+001
1.401079e+003,9.395805e+001
1.402044e+003,9.323991e+001
1.403008e+003,9.316433e+001
1.403972e+003,9.290768e+001
1.404936e+003,9.231868e+001
1.405901e+003,9.217572e+001
1.406865e+003,9.295176e+001
1.407829e+003,9.400327e+001
1.408793e+003,9.459251e+001
1.409757e+003,9.491476e+001
1.410722e+003,9.579465e+001
1.411686e+003,9.742882e+001
1.412650e+003,9.899233e+001
1.413614e+003,1.000125e+002
1.414579e+003,1.008441e+002
1.415543e+003,1.021723e+002
1.416507e+003,1.036370e+002
1.417471e+003,1.038852e+002
1.418436e+003,1.024450e+002
1.419400e+003,1.009374e+002
1.420364e+003,1.011877e+002
1.421328e+003,1.028244e+002
1.422292e+003,1.039004e+002
1.423257e+003,1.042834e+002
1.424221e+003,1.040950e+002
1.425185e+003,1.016626e+002
1.426149e+003,1.005485e+002
1.427114e+003,1.030514e+002
1.428078e+003,1.067796e+002
1.429042e+003,1.093486e+002
1.430006e+003,1.106758e+002
1.430971e+003,1.119321e+002
1.431935e+003,1.137532e+002
1.432899e+003,1.156116e+002
1.433863e+003,1.167920e+002
1.434828e+003,1.174066e+002
1.435792e+003,1.177147e+002
1.436756e+003,1.171725e+002
1.437720e+003,1.167529e+002
1.438684e+003,1.168190e+002
1.439649e+003,1.170638e+002
1.440613e+003,1.177519e+002
1.441577e+003,1.183104e+002
1.442541e+003,1.172183e+002
1.443506e+003,1.144449e+002
1.444470e+003,1.126105e+002
1.445434e+003,1.134653e+002
1.446398e+003,1.155665e+002
1.447363e+003,1.171184e+002
1.448327e+003,1.181590e+002
1.449291e+003,1.186493e+002
1.450255e+003,1.185934e+002
1.451219e+003,1.194038e+002
1.452184e+003,1.224464e+002
1.453148e+003,1.257355e+002
1.454112e+003,1.263704e+002
1.455076e+003,1.248220e+002
1.456041e+003,1.243564e+002
1.457005e+003,1.259302e+002
1.457969e+003,1.268559e+002
1.458933e+003,1.241075e+002
1.459898e+003,1.223529e+002
1.460862e+003,1.267111e+002
1.461826e+003,1.328394e+002
1.462790e+003,1.329060e+002
1.463755e+003,1.266445e+002
1.464719e+003,1.220925e+002
1.465683e+003,1.253340e+002
1.466647e+003,1.325786e+002
1.467611e+003,1.348794e+002
1.468576e+003,1.313251e+002
1.469540e+003,1.290465e+002
1.470504e+003,1.288374e+002
1.471468e+003,1.290136e+002
1.472433e+003,1.287414e+002
1.473397e+003,1.293219e+002
1.474361e+003,1.331092e+002
1.475325e+003,1.376666e+002
1.476290e+003,1.385438e+002
1.477254e+003,1.351793e+002
1.478218e+003,1.315175e+002
1.479182e+003,1.307674e+002
1.480146e+003,1.319581e+002
1.481111e+003,1.328775e+002
1.482075e+003,1.334750e+002
1.483039e+003,1.333456e+002
1.484003e+003,1.319444e+002
1.484968e+003,1.307606e+002
1.485932e+003,1.302696e+002
1.486896e+003,1.302636e+002
1.487860e+003,1.304996e+002
1.488825e+003,1.308660e+002
1.489789e+003,1.314351e+002
1.490753e+003,1.322525e+002
1.491717e+003,1.329793e+002
1.492682e+003,1.333047e+002
1.493646e+003,1.335008e+002
1.494610e+003,1.341893e+002
1.495574e+003,1.351061e+002
1.496538e+003,1.353724e+002
1.497503e+003,1.348470e+002
1.498467e+003,1.344414e+002
1.499431e+003,1.349333e+002
1.500395e+003,1.353872e+002
1.501360e+003,1.340643e+002
1.502324e+003,1.317151e+002
1.503288e+003,1.321584e+002
1.504252e+003,1.366927e+002
1.505217e+003,1.393935e+002
1.506181e+003,1.359992e+002
1.507145e+003,1.316015e+002
1.508109e+003,1.301868e+002
1.509073e+003,1.307216e+002
1.510038e+003,1.319580e+002
1.511002e+003,1.334244e+002
1.511966e+003,1.340478e+002
1.512930e+003,1.330410e+002
1.513895e+003,1.315963e+002
1.514859e+003,1.319828e+002
1.515823e+003,1.340318e+002
1.516787e+003,1.342970e+002
1.517752e+003,1.320621e+002
1.518716e+003,1.302332e+002
1.519680e+003,1.296107e+002
1.520644e+003,1.291273e+002
1.521609e+003,1.283838e+002
1.522573e+003,1.274911e+002
1.523537e+003,1.265368e+002
1.524501e+003,1.257840e+002
1.525465e+003,1.256740e+002
1.526430e+003,1.263437e+002
1.527394e+003,1.273077e+002
1.528358e+003,1.280012e+002
1.529322e+003,1.284284e+002
1.530287e+003,1.279991e+002
1.531251e+003,1.264533e+002
1.532215e+003,1.247401e+002
1.533179e+003,1.219054e+002
1.534144e+003,1.199827e+002
1.535108e+003,1.205362e+002
1.536072e+003,1.217628e+002
1.537036e+003,1.218058e+002
1.538000e+003,1.207287e+002
1.538965e+003,1.193968e+002
1.539929e+003,1.182369e+002
1.540893e+003,1.175982e+002
1.541857e+003,1.180778e+002
1.542822e+003,1.192715e+002
1.543786e+003,1.188058e+002
1.544750e+003,1.154426e+002
1.545714e+003,1.143406e+002
1.546679e+003,1.179945e+002
1.547643e+003,1.202986e+002
1.548607e+003,1.185411e+002
1.549571e+003,1.154345e+002
1.550536e+003,1.126943e+002
1.551500e+003,1.108221e+002
1.552464e+003,1.110601e+002
1.553428e+003,1.136700e+002
1.554392e+003,1.160252e+002
1.555357e+003,1.158858e+002
1.556321e+003,1.141510e+002
1.557285e+003,1.125842e+002
1.558249e+003,1.112867e+002
1.559214e+003,1.103485e+002
1.560178e+003,1.101710e+002
1.561142e+003,1.093014e+002
1.562106e+003,1.061924e+002
1.563071e+003,1.029707e+002
1.564035e+003,1.017877e+002
1.564999e+003,1.020909e+002
1.565963e+003,1.023631e+002
1.566927e+003,1.022831e+002
1.567892e+003,1.020203e+002
1.568856e+003,1.016282e+002
1.569820e+003,1.012064e+002
1.570784e+003,1.009818e+002
1.571749e+003,1.007417e+002
1.572713e+003,9.994865e+001
1.573677e+003,9.868429e+001
1.574641e+003,9.764364e+001
1.575606e+003,9.706966e+001
1.576570e+003,9.643135e+001
1.577534e+003,9.531443e+001
1.578498e+003,9.399386e+001
1.579463e+003,9.274351e+001
1.580427e+003,9.159165e+001
1.581391e+003,9.128204e+001
1.582355e+003,9.240178e+001
1.583319e+003,9.297556e+001
1.584284e+003,9.163008e+001
1.585248e+003,8.926573e+001
1.586212e+003,8.607042e+001
1.587176e+003,8.261980e+001
1.588141e+003,8.127443e+001
1.589105e+003,8.264030e+001
1.590069e+003,8.370734e+001
1.591033e+003,8.222485e+001
1.591998e+003,7.971776e+001
1.592962e+003,7.855229e+001
1.593926e+003,7.840215e+001
1.594890e+003,7.738607e+001
1.595854e+003,7.518170e+001
1.596819e+003,7.350618e+001
1.597783e+003,7.316869e+001
1.598747e+003,7.303233e+001
1.599711e+003,7.221770e+001
1.600676e+003,7.112079e+001
1.601640e+003,7.041293e+001
1.602604e+003,7.003737e+001
1.603568e+003,6.924125e+001
1.604533e+003,6.764256e+001
1.605497e+003,6.590623e+001
1.606461e+003,6.488954e+001
1.607425e+003,6.420473e+001
1.608390e+003,6.247103e+001
1.609354e+003,5.971636e+001
1.610318e+003,5.820642e+001
1.611282e+003,5.834742e+001
1.612246e+003,5.913309e+001
1.613211e+003,6.153839e+001
1.614175e+003,6.301887e+001
1.615139e+003,6.095134e+001
1.616103e+003,5.730160e+001
1.617068e+003,5.510979e+001
1.618032e+003,5.482142e+001
1.618996e+003,5.542689e+001
1.619960e+003,5.648685e+001
1.620925e+003,5.704900e+001
1.621889e+003,5.553628e+001
1.622853e+003,5.236723e+001
1.623817e+003,4.975988e+001
1.624781e+003,4.771132e+001
1.625746e+003,4.684019e+001
1.626710e+003,4.810051e+001
1.627674e+003,4.897463e+001
1.628638e+003,4.769518e+001
1.629603e+003,4.589264e+001
1.630567e+003,4.523970e+001
1.631531e+003,4.515440e+001
1.632495e+003,4.394587e+001
1.633460e+003,4.141130e+001
1.634424e+003,3.928260e+001
1.635388e+003,3.881676e+001
1.636352e+003,3.924612e+001
1.637317e+003,3.950505e+001
1.638281e+003,3.953617e+001
1.639245e+003,3.842534e+001
1.640209e+003,3.573508e+001
1.641173e+003,3.343138e+001
1.642138e+003,3.201749e+001
1.643102e+003,3.120463e+001
1.644066e+003,3.135681e+001
1.645030e+003,3.152630e+001
1.645995e+003,3.067354e+001
1.646959e+003,2.904300e+001
1.647923e+003,2.725939e+001
1.648887e+003,2.561593e+001
1.649852e+003,2.483587e+001
1.650816e+003,2.575207e+001
1.651780e+003,2.736184e+001
1.652744e+003,2.748057e+001
1.653708e+003,2.615949e+001
1.654673e+003,2.509087e+001
1.655637e+003,2.455139e+001
1.656601e+003,2.349996e+001
1.657565e+003,2.075134e+001
1.658530e+003,1.868467e+001
1.659494e+003,1.927185e+001
1.660458e+003,2.061323e+001
1.661422e+003,2.047445e+001
1.662387e+003,1.924276e+001
1.663351e+003,1.888443e+001
1.664315e+003,2.001992e+001
1.665279e+003,2.088050e+001
1.666244e+003,1.982772e+001
1.667208e+003,1.778709e+001
1.668172e+003,1.675270e+001
1.669136e+003,1.658489e+001
1.670100e+003,1.533095e+001
1.671065e+003,1.240294e+001
1.672029e+003,1.027338e+001
1.672993e+003,1.015010e+001
1.673957e+003,1.058550e+001
1.674922e+003,1.058708e+001
1.675886e+003,1.055450e+001
1.676850e+003,1.146517e+001
1.677814e+003,1.277312e+001
1.678779e+003,1.228002e+001
1.679743e+003,9.287878e+000
1.680707e+003,6.512927e+000
1.681671e+003,6.244238e+000
1.682635e+003,7.253528e+000
1.683600e+003,7.450061e+000
1.684564e+003,7.004321e+000
1.685528e+003,7.032025e+000
1.686492e+003,7.765265e+000
1.687457e+003,7.186371e+000
1.688421e+003,3.698572e+000
1.689385e+003,5.939758e-001
1.690349e+003,1.265265e+000
1.691314e+003,3.223743e+000
1.692278e+003,3.763238e+000
1.693242e+003,2.951941e+000
1.694206e+003,1.456799e+000
1.695171e+003,-6.625916e-001
1.696135e+003,-2.209540e+000
1.697099e+003,-2.010565e+000
1.698063e+003,-1.282111e+000
1.699027e+003,-1.808051e+000
1.699992e+003,-3.021039e+000
1.700956e+003,-3.176117e+000
1.701920e+003,-2.133655e+000
1.702884e+003,-6.597900e-001
1.703849e+003,1.367841e+000
1.704813e+003,2.144574e+000
1.705777e+003,-5.190857e-001
1.706741e+003,-4.458661e+000
1.707706e+003,-5.923773e+000
1.708670e+003,-5.531555e+000
1.709634e+003,-5.855078e+000
1.710598e+003,-7.415839e+000
1.711563e+003,-8.439062e+000
1.712527e+003,-7.753900e+000
1.713491e+003,-6.730639e+000
1.714455e+003,-6.451349e+000
1.715419e+003,-6.573065e+000
1.716384e+003,-6.443323e+000
1.717348e+003,-6.121893e+000
1.718312e+003,-6.280841e+000
1.719276e+003,-7.139349e+000
1.720241e+003,-7.887860e+000
1.721205e+003,-7.863678e+000
1.722169e+003,-7.640552e+000
1.723133e+003,-8.180170e+000
1.724098e+003,-9.330899e+000
1.725062e+003,-1.027960e+001
1.726026e+003,-1.125191e+001
1.726990e+003,-1.135634e+001
1.727954e+003,-9.533167e+000
1.728919e+003,-8.020190e+000
1.729883e+003,-7.810102e+000
1.730847e+003,-8.376348e+000
1.731811e+003,-9.454397e+000
1.732776e+003,-1.076916e+001
1.733740e+003,-1.205531e+001
1.734704e+003,-1.312583e+001
1.735668e+003,-1.345277e+001
1.736633e+003,-1.274362e+001
1.737597e+003,-1.162294e+001
1.738561e+003,-1.079448e+001
1.739525e+003,-1.039073e+001
1.740490e+003,-1.127574e+001
1.741454e+003,-1.420913e+001
1.742418e+003,-1.569973e+001
1.743382e+003,-1.497534e+001
1.744346e+003,-1.407587e+001
1.745311e+003,-1.277845e+001
1.746275e+003,-1.199623e+001
1.747239e+003,-1.254996e+001
1.748203e+003,-1.367927e+001
1.749168e+003,-1.476715e+001
1.750132e+003,-1.546607e+001
1.751096e+003,-1.508556e+001
1.752060e+003,-1.358445e+001
1.753025e+003,-1.239065e+001
1.753989e+003,-1.283829e+001
1.754953e+003,-1.419959e+001
1.755917e+003,-1.478724e+001
1.756881e+003,-1.458600e+001
1.757846e+003,-1.493468e+001
1.758810e+003,-1.615589e+001
1.759774e+003,-1.691042e+001
1.760738e+003,-1.732739e+001
1.761703e+003,-1.687226e+001
1.762667e+003,-1.434007e+001
1.763631e+003,-1.185361e+001
1.764595e+003,-1.097908e+001
1.765560e+003,-1.138338e+001
1.766524e+003,-1.264525e+001
1.767488e+003,-1.443457e+001
1.768452e+003,-1.564684e+001
1.769417e+003,-1.559918e+001
1.770381e+003,-1.545061e+001
1.771345e+003,-1.695857e+001
1.772309e+003,-1.916934e+001
1.773273e+003,-1.940464e+001
1.774238e+003,-1.788377e+001
1.775202e+003,-1.706623e+001
1.776166e+003,-1.739984e+001
1.777130e+003,-1.724447e+001
1.778095e+003,-1.544786e+001
1.779059e+003,-1.405452e+001
1.780023e+003,-1.562080e+001
1.780987e+003,-1.815304e+001
1.781952e+003,-1.808929e+001
1.782916e+003,-1.598126e+001
1.783880e+003,-1.452997e+001
1.784844e+003,-1.411361e+001
1.785808e+003,-1.428918e+001
1.786773e+003,-1.525194e+001
1.787737e+003,-1.631383e+001
1.788701e+003,-1.715412e+001
1.789665e+003,-1.764635e+001
1.790630e+003,-1.732340e+001
1.791594e+003,-1.648876e+001
1.792558e+003,-1.624386e+001
1.793522e+003,-1.682674e+001
1.794487e+003,-1.737533e+001
1.795451e+003,-1.733233e+001
1.796415e+003,-1.698709e+001
1.797379e+003,-1.675742e+001
1.798344e+003,-1.663689e+001
1.799308e+003,-1.646451e+001
1.800272e+003,-1.624020e+001
1.801236e+003,-1.608727e+001
1.802201e+003,-1.560800e+001
1.803165e+003,-1.567258e+001
1.804129e+003,-1.718232e+001
1.805093e+003,-1.835086e+001
1.806057e+003,-1.795288e+001
1.807022e+003,-1.693707e+001
1.807986e+003,-1.624725e+001
1.808950e+003,-1.596107e+001
1.809914e+003,-1.590063e+001
1.810879e+003,-1.596235e+001
1.811843e+003,-1.594900e+001
1.812807e+003,-1.571219e+001
1.813771e+003,-1.562613e+001
1.814736e+003,-1.641059e+001
1.815700e+003,-1.779551e+001
1.816664e+003,-1.827374e+001
1.817628e+003,-1.777814e+001
1.818593e+003,-1.719689e+001
1.819557e+003,-1.650565e+001
1.820521e+003,-1.596121e+001
1.821485e+003,-1.563210e+001
1.822449e+003,-1.554241e+001
1.823414e+003,-1.606791e+001
1.824378e+003,-1.667897e+001
1.825342e+003,-1.637338e+001
1.826306e+003,-1.544359e+001
1.827271e+003,-1.540793e+001
1.828235e+003,-1.672785e+001
1.829199e+003,-1.754719e+001
1.830163e+003,-1.634224e+001
1.831128e+003,-1.496618e+001
1.832092e+003,-1.529338e+001
1.833056e+003,-1.630165e+001
1.834020e+003,-1.629750e+001
1.834984e+003,-1.551507e+001
1.835949e+003,-1.503818e+001
1.836913e+003,-1.508394e+001
1.837877e+003,-1.549393e+001
1.838841e+003,-1.624471e+001
1.839806e+003,-1.651972e+001
1.840770e+003,-1.524541e+001
1.841734e+003,-1.318885e+001
1.842698e+003,-1.272135e+001
1.843663e+003,-1.407048e+001
1.844627e+003,-1.454887e+001
1.845591e+003,-1.292133e+001
1.846555e+003,-1.243566e+001
1.847520e+003,-1.437224e+001
1.848484e+003,-1.599637e+001
1.849448e+003,-1.604302e+001
1.850412e+003,-1.551028e+001
1.851376e+003,-1.533457e+001
1.852341e+003,-1.521156e+001
1.853305e+003,-1.422259e+001
1.854269e+003,-1.257424e+001
1.855233e+003,-1.159586e+001
1.856198e+003,-1.186654e+001
1.857162e+003,-1.260190e+001
1.858126e+003,-1.318693e+001
1.859090e+003,-1.345195e+001
1.860055e+003,-1.277276e+001
1.861019e+003,-1.146111e+001
1.861983e+003,-1.142478e+001
1.862947e+003,-1.279425e+001
1.863911e+003,-1.340442e+001
1.864876e+003,-1.252383e+001
1.865840e+003,-1.168430e+001
1.866804e+003,-1.173234e+001
1.867768e+003,-1.226587e+001
1.868733e+003,-1.328866e+001
1.869697e+003,-1.430281e+001
1.870661e+003,-1.348418e+001
1.871625e+003,-1.081996e+001
1.872590e+003,-9.286954e+000
1.873554e+003,-9.724863e+000
1.874518e+003,-1.019684e+001
1.875482e+003,-1.019142e+001
1.876447e+003,-1.001653e+001
1.877411e+003,-9.617990e+000
1.878375e+003,-9.316736e+000
1.879339e+003,-9.783526e+000
1.880303e+003,-1.060159e+001
1.881268e+003,-1.063743e+001
1.882232e+003,-9.840860e+000
1.883196e+003,-9.405787e+000
1.884160e+003,-9.917297e+000
1.885125e+003,-1.028209e+001
1.886089e+003,-9.203730e+000
1.887053e+003,-7.424554e+000
1.888017e+003,-7.097708e+000
1.888982e+003,-8.232849e+000
1.889946e+003,-8.682241e+000
1.890910e+003,-8.226313e+000
1.891874e+003,-8.200937e+000
1.892839e+003,-9.165705e+000
1.893803e+003,-9.925039e+000
1.894767e+003,-9.869268e+000
1.895731e+003,-9.400708e+000
1.896695e+003,-8.774005e+000
1.897660e+003,-8.068713e+000
1.898624e+003,-7.358792e+000
1.899588e+003,-6.676267e+000
1.900552e+003,-6.176480e+000
1.901517e+003,-5.868073e+000
1.902481e+003,-5.955838e+000
1.903445e+003,-6.947440e+000
1.904409e+003,-7.769122e+000
1.905374e+003,-7.697043e+000
1.906338e+003,-7.034271e+000
1.907302e+003,-5.716745e+000
1.908266e+003,-4.386701e+000
1.909230e+003,-4.270285e+000
1.910195e+003,-5.384280e+000
1.911159e+003,-7.006491e+000
1.912123e+003,-8.640451e+000
1.913087e+003,-9.295499e+000
1.914052e+003,-7.981653e+000
1.915016e+003,-5.821322e+000
1.915980e+003,-5.120407e+000
1.916944e+003,-5.773392e+000
1.917909e+003,-6.561234e+000
1.918873e+003,-7.607840e+000
1.919837e+003,-7.826233e+000
1.920801e+003,-6.721985e+000
1.921766e+003,-5.899774e+000
1.922730e+003,-5.923541e+000
1.923694e+003,-6.431439e+000
1.924658e+003,-7.797666e+000
1.925622e+003,-8.995547e+000
1.926587e+003,-8.404803e+000
1.927551e+003,-6.578574e+000
1.928515e+003,-5.474356e+000
1.929479e+003,-5.307571e+000
1.930444e+003,-5.733957e+000
1.931408e+003,-7.230963e+000
1.932372e+003,-8.482898e+000
1.933336e+003,-8.913895e+000
1.934301e+003,-8.810120e+000
1.935265e+003,-8.312616e+000
1.936229e+003,-7.470734e+000
1.937193e+003,-5.972229e+000
1.938157e+003,-4.297113e+000
1.939122e+003,-3.657544e+000
1.940086e+003,-4.217554e+000
1.941050e+003,-5.038336e+000
1.942014e+003,-5.552499e+000
1.942979e+003,-5.817667e+000
1.943943e+003,-5.875574e+000
1.944907e+003,-5.731845e+000
1.945871e+003,-5.313208e+000
1.946836e+003,-4.624734e+000
1.947800e+003,-4.475342e+000
1.948764e+003,-5.024558e+000
1.949728e+003,-5.169702e+000
1.950693e+003,-4.606387e+000
1.951657e+003,-3.939658e+000
1.952621e+003,-3.150861e+000
1.953585e+003,-2.877289e+000
1.954549e+003,-4.269623e+000
1.955514e+003,-6.280167e+000
1.956478e+003,-6.459570e+000
1.957442e+003,-4.934531e+000
1.958406e+003,-3.688699e+000
1.959371e+003,-2.835297e+000
1.960335e+003,-2.113898e+000
1.961299e+003,-1.128656e+000
1.962263e+003,-7.321900e-001
1.963228e+003,-1.873010e+000
1.964192e+003,-3.014926e+000
1.965156e+003,-2.864655e+000
1.966120e+003,-2.250787e+000
1.967084e+003,-2.313922e+000
1.968049e+003,-2.866434e+000
1.969013e+003,-3.219369e+000
1.969977e+003,-3.161850e+000
1.970941e+003,-2.653403e+000
1.971906e+003,-1.622339e+000
1.972870e+003,-5.690613e-001
1.973834e+003,3.493591e-001
1.974798e+003,6.307617e-001
1.975763e+003,-1.456793e+000
1.976727e+003,-4.794662e+000
1.977691e+003,-5.615854e+000
1.978655e+003,-4.069479e+000
1.979620e+003,-3.104950e+000
1.980584e+003,-3.362000e+000
1.981548e+003,-3.442145e+000
1.982512e+003,-2.630090e+000
1.983476e+003,-1.576422e+000
1.984441e+003,-8.875000e-001
1.985405e+003,-5.763489e-001
1.986369e+003,-6.776062e-001
1.987333e+003,-1.154156e+000
1.988298e+003,-1.914899e+000
1.989262e+003,-3.454868e+000
1.990226e+003,-3.981299e+000
1.991190e+003,-2.849295e+000
1.992155e+003,-1.727570e+000
1.993119e+003,-7.778808e-001
1.994083e+003,-1.998840e-001
1.995047e+003,-9.411621e-002
1.996011e+003,-4.626892e-001
1.996976e+003,-1.879620e+000
1.997940e+003,-3.550622e+000
1.998904e+003,-3.518317e+000
1.999868e+003,-1.667789e+000
2.000833e+003,1.619812e-001
2.001797e+003,1.716620e+000
2.002761e+003,2.564471e+000
2.003725e+003,2.120960e+000
2.004690e+003,1.454144e+000
2.005654e+003,1.061768e+000
2.006618e+003,9.535950e-001
2.007582e+003,1.367163e+000
2.008547e+003,1.928436e+000
2.009511e+003,2.064142e+000
2.010475e+003,1.728375e+000
2.011439e+003,1.042194e+000
2.012403e+003,1.276550e-001
2.013368e+003,-6.457397e-001
2.014332e+003,-1.036731e+000
2.015296e+003,-8.213318e-001
2.016260e+003,8.716065e-001
2.017225e+003,3.008868e+000
2.018189e+003,2.560791e+000
2.019153e+003,3.934143e-001
2.020117e+003,5.460998e-001
2.021082e+003,2.970068e+000
2.022046e+003,3.873016e+000
2.023010e+003,2.332111e+000
2.023974e+003,-2.059387e-001
2.024938e+003,-3.141727e+000
2.025903e+003,-4.753482e+000
2.026867e+003,-2.977045e+000
2.027831e+003,4.273010e-001
2.028795e+003,1.234723e+000
2.029760e+003,-3.964233e-001
2.030724e+003,-1.025946e+000
2.031688e+003,-3.184631e-001
2.032652e+003,-1.010071e-001
2.033617e+003,-6.339477e-001
2.034581e+003,-1.171384e+000
2.035545e+003,-1.737939e+000
2.036509e+003,-1.828989e+000
2.037474e+003,-9.761597e-001
2.038438e+003,1.555054e-001
2.039402e+003,9.137146e-001
2.040366e+003,1.473444e+000
2.041330e+003,2.466107e+000
2.042295e+003,3.871466e+000
2.043259e+003,4.013220e+000
2.044223e+003,2.027887e+000
2.045187e+003,5.428894e-001
2.046152e+003,1.279297e-001
2.047116e+003,1.719788e-001
2.048080e+003,9.311829e-001
2.049044e+003,1.477093e+000
2.050009e+003,9.110535e-001
2.050973e+003,3.898316e-002
2.051937e+003,-1.792969e-001
2.052901e+003,1.459473e-001
2.053865e+003,4.985107e-001
2.054830e+003,7.395447e-001
2.055794e+003,8.941650e-001
2.056758e+003,9.083802e-001
2.057722e+003,1.523004e+000
2.058687e+003,4.189398e+000
2.059651e+003,6.671546e+000
2.060615e+003,6.424408e+000
2.061579e+003,4.863177e+000
2.062544e+003,3.823029e+000
2.063508e+003,3.176416e+000
2.064472e+003,2.033716e+000
2.065436e+003,5.802857e-001
2.066401e+003,6.801148e-002
2.067365e+003,7.320068e-001
2.068329e+003,1.385803e+000
2.069293e+003,1.285382e+000
2.070258e+003,8.760681e-001
2.071222e+003,5.930847e-001
2.072186e+003,6.001953e-001
2.073150e+003,1.433630e+000
2.074115e+003,2.837488e+000
2.075079e+003,3.791693e+000
2.076043e+003,4.210602e+000
2.077007e+003,3.651318e+000
2.077971e+003,2.163202e+000
2.078936e+003,1.747845e+000
2.079900e+003,3.151874e+000
2.080864e+003,4.281281e+000
2.081828e+003,3.600262e+000
2.082792e+003,2.331653e+000
2.083757e+003,2.166113e+000
2.084721e+003,2.830926e+000
2.085685e+003,3.413489e+000
2.086649e+003,3.921118e+000
2.087614e+003,4.728583e+000
2.088578e+003,6.065247e+000
2.089542e+003,6.537122e+000
2.090506e+003,5.745893e+000
2.091471e+003,4.645984e+000
2.092435e+003,3.344672e+000
2.093399e+003,2.421045e+000
2.094363e+003,2.337451e+000
2.095328e+003,2.711346e+000
2.096292e+003,3.128680e+000
2.097256e+003,3.498700e+000
2.098220e+003,3.601996e+000
2.099185e+003,3.467120e+000
2.100149e+003,3.365491e+000
2.101113e+003,2.950580e+000
2.102077e+003,3.109186e+000
2.103042e+003,4.726813e+000
2.104006e+003,5.661749e+000
2.104970e+003,4.988977e+000
2.105934e+003,4.101379e+000
2.106898e+003,3.371014e+000
2.107863e+003,3.058179e+000
2.108827e+003,4.079846e+000
2.109791e+003,5.526935e+000
2.110755e+003,4.950775e+000
2.111719e+003,2.379962e+000
2.112684e+003,1.146478e+000
2.113648e+003,2.112085e+000
2.114612e+003,3.423480e+000
2.115576e+003,5.510345e+000
2.116541e+003,6.637347e+000
2.117505e+003,5.051440e+000
2.118469e+003,3.709314e+000
2.119433e+003,5.104394e+000
2.120398e+003,7.136792e+000
2.121362e+003,7.716535e+000
2.122326e+003,7.049060e+000
2.123290e+003,5.515167e+000
2.124255e+003,3.609265e+000
2.125219e+003,2.905475e+000
2.126183e+003,3.931934e+000
2.127147e+003,4.821313e+000
2.128112e+003,4.599481e+000
2.129076e+003,4.292657e+000
2.130040e+003,4.414325e+000
2.131004e+003,4.668756e+000
2.131969e+003,4.868524e+000
2.132933e+003,4.983233e+000
2.133897e+003,5.118170e+000
2.134861e+003,5.191003e+000
2.135825e+003,4.945337e+000
2.136790e+003,4.401495e+000
2.137754e+003,3.702838e+000
2.138718e+003,2.976563e+000
2.139682e+003,2.736359e+000
2.140646e+003,3.315057e+000
2.141611e+003,4.347491e+000
2.142575e+003,5.804504e+000
2.143539e+003,7.194690e+000
2.144503e+003,8.595362e+000
2.145468e+003,9.274567e+000
2.146432e+003,7.332129e+000
2.147396e+003,4.277002e+000
2.148360e+003,3.289752e+000
2.149325e+003,4.211005e+000
2.150289e+003,4.735333e+000
2.151253e+003,4.257697e+000
2.152217e+003,4.200360e+000
2.153182e+003,5.406268e+000
2.154146e+003,6.813910e+000
2.155110e+003,7.549066e+000
2.156074e+003,7.754602e+000
2.157039e+003,7.342010e+000
2.158003e+003,6.619910e+000
2.158967e+003,5.958880e+000
2.159931e+003,5.573889e+000
2.160896e+003,5.985888e+000
2.161860e+003,6.980011e+000
2.162824e+003,7.856952e+000
2.163788e+003,8.370417e+000
2.164752e+003,8.428082e+000
2.165717e+003,8.014667e+000
2.166681e+003,7.440796e+000
2.167645e+003,6.911017e+000
2.168609e+003,6.634107e+000
2.169573e+003,7.312402e+000
2.170538e+003,8.218622e+000
2.171502e+003,7.420898e+000
2.172466e+003,5.840295e+000
2.173430e+003,5.972772e+000
2.174395e+003,7.524024e+000
2.175359e+003,8.960431e+000
2.176323e+003,9.812182e+000
2.177287e+003,9.705500e+000
2.178252e+003,8.599548e+000
2.179216e+003,7.301141e+000
2.180180e+003,6.410675e+000
2.181144e+003,5.791736e+000
2.182109e+003,5.160052e+000
2.183073e+003,4.774024e+000
2.184037e+003,5.562476e+000
2.185001e+003,6.859259e+000
2.185966e+003,6.906769e+000
2.186930e+003,6.021350e+000
2.187894e+003,5.247027e+000
2.188858e+003,4.754260e+000
2.189823e+003,4.460693e+000
2.190787e+003,4.275116e+000
2.191751e+003,4.096320e+000
2.192715e+003,3.911011e+000
2.193679e+003,3.649841e+000
2.194644e+003,3.125085e+000
2.195608e+003,2.943768e+000
2.196572e+003,4.791510e+000
2.197536e+003,7.361127e+000
2.198500e+003,7.109632e+000
2.199465e+003,4.990320e+000
2.200429e+003,3.344367e+000
2.201393e+003,2.576211e+000
2.202357e+003,3.767297e+000
2.203322e+003,6.549377e+000
2.204286e+003,8.065478e+000
2.205250e+003,7.358270e+000
2.206214e+003,6.350397e+000
2.207179e+003,6.359448e+000
2.208143e+003,6.555914e+000
2.209107e+003,5.803674e+000
2.210071e+003,4.923999e+000
2.211036e+003,5.631610e+000
2.212000e+003,7.265533e+000
2.212964e+003,8.541620e+000
2.213928e+003,9.213147e+000
2.214893e+003,8.236468e+000
2.215857e+003,6.268481e+000
2.216821e+003,5.952692e+000
2.217785e+003,7.723633e+000
2.218750e+003,1.005916e+001
2.219714e+003,1.214179e+001
2.220678e+003,1.364053e+001
2.221642e+003,1.429977e+001
2.222606e+003,1.450963e+001
2.223571e+003,1.454127e+001
2.224535e+003,1.461301e+001
2.225499e+003,1.526228e+001
2.226463e+003,1.620613e+001
2.227427e+003,1.665072e+001
2.228392e+003,1.693431e+001
2.229356e+003,1.824385e+001
2.230320e+003,2.040861e+001
2.231284e+003,2.226268e+001
2.232249e+003,2.342610e+001
2.233213e+003,2.404966e+001
2.234177e+003,2.428040e+001
2.235141e+003,2.495115e+001
2.236106e+003,2.698831e+001
2.237070e+003,2.915129e+001
2.238034e+003,2.932149e+001
2.238998e+003,2.913936e+001
2.239963e+003,3.117633e+001
2.240927e+003,3.443351e+001
2.241891e+003,3.743118e+001
2.242855e+003,4.000505e+001
2.243820e+003,4.190916e+001
2.244784e+003,4.346064e+001
2.245748e+003,4.582889e+001
2.246712e+003,4.913565e+001
2.247677e+003,5.179264e+001
2.248641e+003,5.296920e+001
2.249605e+003,5.416915e+001
2.250569e+003,5.697405e+001
2.251533e+003,5.956923e+001
2.252498e+003,6.033334e+001
2.253462e+003,5.995310e+001
2.254426e+003,5.891721e+001
2.255390e+003,5.744270e+001
2.256354e+003,5.553289e+001
2.257319e+003,5.342788e+001
2.258283e+003,5.160904e+001
2.259247e+003,5.000631e+001
2.260211e+003,4.799339e+001
2.261176e+003,4.547063e+001
2.262140e+003,4.334290e+001
2.263104e+003,4.229368e+001
2.264068e+003,4.029976e+001
2.265033e+003,3.490262e+001
2.265997e+003,3.001630e+001
2.266961e+003,2.851629e+001
2.267925e+003,2.780508e+001
2.268890e+003,2.595171e+001
2.269854e+003,2.367959e+001
2.270818e+003,2.188770e+001
2.271782e+003,2.043061e+001
2.272747e+003,1.876412e+001
2.273711e+003,1.703344e+001
2.274675e+003,1.599279e+001
2.275639e+003,1.579008e+001
2.276604e+003,1.579133e+001
2.277568e+003,1.637362e+001
2.278532e+003,1.601990e+001
2.279496e+003,1.336505e+001
2.280460e+003,1.099068e+001
2.281425e+003,1.012011e+001
2.282389e+003,9.443952e+000
2.283353e+003,7.986871e+000
2.284317e+003,6.674914e+000
2.285281e+003,6.777661e+000
2.286246e+003,7.402881e+000
2.287210e+003,6.748883e+000
2.288174e+003,5.076898e+000
2.289138e+003,4.452817e+000
2.290103e+003,5.353290e+000
2.291067e+003,5.040784e+000
2.292031e+003,2.326434e+000
2.292995e+003,7.086304e-001
2.293960e+003,4.230255e-001
2.294924e+003,1.041229e+000
2.295888e+003,3.228897e+000
2.296852e+003,4.908325e+000
2.297817e+003,4.982367e+000
2.298781e+003,4.338196e+000
2.299745e+003,3.742896e+000
2.300709e+003,3.001321e+000
2.301674e+003,1.588629e+000
2.302638e+003,-2.600311e-001
2.303602e+003,-1.261349e+000
2.304566e+003,-1.394592e+000
2.305531e+003,-1.402014e+000
2.306495e+003,-1.286832e+000
2.307459e+003,-5.592651e-001
2.308423e+003,8.754852e-001
2.309387e+003,2.378623e+000
2.310352e+003,3.861996e+000
2.311316e+003,4.122348e+000
2.312280e+003,2.521814e+000
2.313244e+003,8.323822e-001
2.314208e+003,4.946533e-001
2.315173e+003,1.043359e+000
2.316137e+003,2.082721e+000
2.317101e+003,2.854648e+000
2.318065e+003,5.727326e-001
2.319030e+003,-3.591733e+000
2.319994e+003,-4.966669e+000
2.320958e+003,-3.929953e+000
2.321922e+003,-1.511997e+000
2.322887e+003,1.490747e+000
2.323851e+003,2.212076e+000
2.324815e+003,5.999939e-001
2.325779e+003,-2.434784e-001
2.326744e+003,7.452576e-001
2.327708e+003,1.441974e+000
2.328672e+003,4.723877e-001
2.329636e+003,-1.217892e+000
2.330601e+003,-3.087427e+000
2.331565e+003,-4.585797e+000
2.332529e+003,-4.790665e+000
2.333493e+003,-4.591599e+000
2.334458e+003,-5.185636e+000
2.335422e+003,-5.944949e+000
2.336386e+003,-5.835791e+000
2.337350e+003,-5.212302e+000
2.338314e+003,-4.730838e+000
2.339279e+003,-4.554004e+000
2.340243e+003,-4.858817e+000
2.341207e+003,-5.570605e+000
2.342171e+003,-5.798932e+000
2.343135e+003,-5.054376e+000
2.344100e+003,-4.838077e+000
2.345064e+003,-6.534345e+000
2.346028e+003,-7.603671e+000
2.346992e+003,-6.633783e+000
2.347957e+003,-5.512113e+000
2.348921e+003,-4.969037e+000
2.349885e+003,-4.831308e+000
2.350849e+003,-5.378522e+000
2.351814e+003,-5.955258e+000
2.352778e+003,-5.574188e+000
2.353742e+003,-4.658746e+000
2.354706e+003,-4.209427e+000
2.355671e+003,-4.183127e+000
2.356635e+003,-4.412711e+000
2.357599e+003,-4.959900e+000
2.358563e+003,-5.614142e+000
2.359528e+003,-6.529434e+000
2.360492e+003,-7.080676e+000
2.361456e+003,-7.109519e+000
2.362420e+003,-7.038519e+000
2.363385e+003,-6.998856e+000
2.364349e+003,-6.898239e+000
2.365313e+003,-6.701349e+000
2.366277e+003,-6.203085e+000
2.367241e+003,-5.129855e+000
2.368206e+003,-4.337375e+000
2.369170e+003,-5.376925e+000
2.370134e+003,-7.378342e+000
2.371098e+003,-7.558585e+000
2.372063e+003,-6.504068e+000
2.373027e+003,-6.760062e+000
2.373991e+003,-7.920227e+000
2.374955e+003,-8.532269e+000
2.375919e+003,-8.467270e+000
2.376884e+003,-7.841773e+000
2.377848e+003,-6.786160e+000
2.378812e+003,-5.241687e+000
2.379776e+003,-3.455777e+000
2.380741e+003,-3.162683e+000
2.381705e+003,-5.383438e+000
2.382669e+003,-7.279144e+000
2.383633e+003,-6.409461e+000
2.384598e+003,-4.959271e+000
2.385562e+003,-4.608063e+000
2.386526e+003,-4.519675e+000
2.387490e+003,-3.958313e+000
2.388455e+003,-3.282388e+000
2.389419e+003,-2.673148e+000
2.390383e+003,-2.331094e+000
2.391347e+003,-2.572125e+000
2.392312e+003,-3.261917e+000
2.393276e+003,-4.173996e+000
2.394240e+003,-5.206955e+000
2.395204e+003,-5.945148e+000
2.396168e+003,-6.375342e+000
2.397133e+003,-6.211160e+000
2.398097e+003,-4.878088e+000
2.399061e+003,-4.075336e+000
2.400025e+003,-4.026453e+000
2.400990e+003,-4.271314e+000
2.401954e+003,-5.032401e+000
2.402918e+003,-5.116882e+000
2.403882e+003,-3.602029e+000
2.404846e+003,-2.580978e+000
2.405811e+003,-3.995221e+000
2.406775e+003,-5.681165e+000
2.407739e+003,-4.379590e+000
2.408703e+003,-1.718503e+000
2.409668e+003,-2.442004e+000
2.410632e+003,-5.630057e+000
2.411596e+003,-6.507861e+000
2.412560e+003,-5.546933e+000
2.413525e+003,-4.473450e+000
2.414489e+003,-3.521524e+000
2.415453e+003,-3.055148e+000
2.416417e+003,-2.972217e+000
2.417382e+003,-2.594354e+000
2.418346e+003,-1.939966e+000
2.419310e+003,-2.190314e+000
2.420274e+003,-3.774741e+000
2.421239e+003,-4.882089e+000
2.422203e+003,-4.185678e+000
2.423167e+003,-3.313806e+000
2.424131e+003,-3.623520e+000
2.425095e+003,-3.874655e+000
2.426060e+003,-3.075827e+000
2.427024e+003,-2.119128e+000
2.427988e+003,-1.559567e+000
2.428952e+003,-1.312659e+000
2.429917e+003,-1.536462e+000
2.430881e+003,-1.766312e+000
2.431845e+003,-1.057590e+000
2.432809e+003,1.540588e-001
2.433773e+003,1.894012e-001
2.434738e+003,-9.425324e-001
2.435702e+003,-1.663272e+000
2.436666e+003,-2.080188e+000
2.437630e+003,-1.602734e+000
2.438595e+003,-1.572266e-002
2.439559e+003,1.526089e+000
2.440523e+003,2.990271e+000
2.441487e+003,3.754593e+000
2.442452e+003,3.563409e+000
2.443416e+003,3.223941e+000
2.444380e+003,3.160675e+000
2.445344e+003,3.511194e+000
2.446309e+003,4.425330e+000
2.447273e+003,5.113226e+000
2.448237e+003,4.176623e+000
2.449201e+003,3.151187e+000
2.450166e+003,5.744745e+000
2.451130e+003,9.075727e+000
2.452094e+003,7.777588e+000
2.453058e+003,4.447357e+000
2.454022e+003,3.323498e+000
2.454987e+003,3.453805e+000
2.455951e+003,2.160986e+000
2.456915e+003,4.992676e-003
2.457879e+003,-7.331177e-001
2.458844e+003,1.792633e-001
2.459808e+003,1.551050e+000
2.460772e+003,3.247101e+000
2.461736e+003,4.057456e+000
2.462700e+003,2.798206e+000
2.463665e+003,2.144580e+000
2.464629e+003,2.955133e+000
2.465593e+003,3.565170e+000
2.466557e+003,3.551212e+000
2.467522e+003,3.398666e+000
2.468486e+003,3.174786e+000
2.469450e+003,3.325601e+000
2.470414e+003,4.288098e+000
2.471379e+003,5.310770e+000
2.472343e+003,5.428290e+000
2.473307e+003,5.159546e+000
2.474271e+003,5.635980e+000
2.475236e+003,6.603711e+000
2.476200e+003,7.457095e+000
2.477164e+003,8.014728e+000
2.478128e+003,7.415741e+000
2.479093e+003,6.188522e+000
2.480057e+003,5.535172e+000
2.481021e+003,5.600754e+000
2.481985e+003,6.753879e+000
2.482949e+003,8.466375e+000
2.483914e+003,8.755682e+000
2.484878e+003,7.327762e+000
2.485842e+003,6.558264e+000
2.486806e+003,7.437308e+000
2.487771e+003,8.312457e+000
2.488735e+003,8.475927e+000
2.489699e+003,8.742810e+000
2.490663e+003,9.502100e+000
2.491627e+003,1.004588e+001
2.492592e+003,9.983038e+000
2.493556e+003,9.969696e+000
2.494520e+003,1.032297e+001
2.495484e+003,1.085056e+001
2.496449e+003,1.140027e+001
2.497413e+003,1.191378e+001
2.498377e+003,1.233852e+001
2.499341e+003,1.270930e+001
2.500306e+003,1.320232e+001
2.501270e+003,1.368672e+001
2.502234e+003,1.323281e+001
2.503198e+003,1.222662e+001
2.504163e+003,1.216561e+001
2.505127e+003,1.273616e+001
2.506091e+003,1.260573e+001
2.507055e+003,1.209094e+001
2.508020e+003,1.278567e+001
2.508984e+003,1.465052e+001
2.509948e+003,1.618555e+001
2.510912e+003,1.690904e+001
2.511876e+003,1.727176e+001
2.512841e+003,1.724810e+001
2.513805e+003,1.773539e+001
2.514769e+003,2.002246e+001
2.515733e+003,2.123666e+001
2.516698e+003,1.907706e+001
2.517662e+003,1.807932e+001
2.518626e+003,2.057755e+001
2.519590e+003,2.293749e+001
2.520554e+003,2.297744e+001
2.521519e+003,2.297011e+001
2.522483e+003,2.497131e+001
2.523447e+003,2.763979e+001
2.524411e+003,2.913318e+001
2.525376e+003,2.970130e+001
2.526340e+003,2.937581e+001
2.527304e+003,2.875720e+001
2.528268e+003,3.047776e+001
2.529233e+003,3.331100e+001
2.530197e+003,3.387875e+001
2.531161e+003,3.324984e+001
2.532125e+003,3.408876e+001
2.533090e+003,3.623909e+001
2.534054e+003,3.875282e+001
2.535018e+003,4.121617e+001
2.535982e+003,4.297810e+001
2.536947e+003,4.392524e+001
2.537911e+003,4.501414e+001
2.538875e+003,4.668207e+001
2.539839e+003,4.780894e+001
2.540803e+003,4.766656e+001
2.541768e+003,4.800097e+001
2.542732e+003,4.928613e+001
2.543696e+003,5.000886e+001
2.544660e+003,4.953684e+001
2.545625e+003,5.002892e+001
2.546589e+003,5.262620e+001
2.547553e+003,5.487579e+001
2.548517e+003,5.480687e+001
2.549482e+003,5.450278e+001
2.550446e+003,5.676335e+001
2.551410e+003,5.885712e+001
2.552374e+003,5.522932e+001
2.553339e+003,4.991486e+001
2.554303e+003,4.884144e+001
2.555267e+003,4.974050e+001
2.556231e+003,5.058667e+001
2.557196e+003,5.067197e+001
2.558160e+003,4.867750e+001
2.559124e+003,4.589918e+001
2.560088e+003,4.467774e+001
2.561052e+003,4.476692e+001
2.562017e+003,4.451756e+001
2.562981e+003,4.376937e+001
2.563945e+003,4.267720e+001
2.564909e+003,4.119970e+001
2.565874e+003,3.946573e+001
2.566838e+003,3.743527e+001
2.567802e+003,3.575926e+001
2.568766e+003,3.450933e+001
2.569730e+003,3.390812e+001
2.570695e+003,3.387656e+001
2.571659e+003,3.319286e+001
2.572623e+003,3.156421e+001
2.573587e+003,3.049876e+001
2.574552e+003,3.075875e+001
2.575516e+003,3.037505e+001
2.576480e+003,2.780025e+001
2.577444e+003,2.495309e+001
2.578409e+003,2.270071e+001
2.579373e+003,2.090311e+001
2.580337e+003,1.978646e+001
2.581301e+003,1.889859e+001
2.582266e+003,1.786561e+001
2.583230e+003,1.720152e+001
2.584194e+003,1.746846e+001
2.585158e+003,1.773888e+001
2.586123e+003,1.701044e+001
2.587087e+003,1.608087e+001
2.588051e+003,1.637252e+001
2.589015e+003,1.728297e+001
2.589979e+003,1.699753e+001
2.590944e+003,1.568069e+001
2.591908e+003,1.381553e+001
2.592872e+003,1.157640e+001
2.593836e+003,8.752820e+000
2.594801e+003,6.354785e+000
2.595765e+003,7.234793e+000
2.596729e+003,9.910583e+000
2.597693e+003,1.026978e+001
2.598657e+003,8.373901e+000
2.599622e+003,7.187625e+000
2.600586e+003,7.267938e+000
2.601550e+003,7.441055e+000
2.602514e+003,7.552237e+000
2.603479e+003,7.690469e+000
2.604443e+003,7.966632e+000
2.605407e+003,7.871973e+000
2.606371e+003,7.359869e+000
2.607336e+003,6.833631e+000
2.608300e+003,6.382697e+000
2.609264e+003,5.147287e+000
2.610228e+003,2.927942e+000
2.611193e+003,1.929263e+000
2.612157e+003,3.381357e+000
2.613121e+003,5.182920e+000
2.614085e+003,5.876264e+000
2.615050e+003,5.535901e+000
2.616014e+003,2.925296e+000
2.616978e+003,1.089609e+000
2.617942e+003,3.050205e+000
2.618906e+003,5.112543e+000
2.619871e+003,5.409772e+000
2.620835e+003,4.381610e+000
2.621799e+003,1.315100e+000
2.622763e+003,-1.356238e+000
2.623728e+003,-1.309210e+000
2.624692e+003,4.693573e-001
2.625656e+003,2.728278e+000
2.626620e+003,4.612869e+000
2.627584e+003,3.184409e+000
2.628549e+003,-1.409973e-001
2.629513e+003,-4.424194e-001
2.630477e+003,9.973358e-001
2.631441e+003,1.507059e+000
2.632406e+003,1.408929e+000
2.633370e+003,1.691473e+000
2.634334e+003,2.215323e+000
2.635298e+003,2.312781e+000
2.636263e+003,2.096307e+000
2.637227e+003,2.336194e+000
2.638191e+003,3.092126e+000
2.639155e+003,3.304315e+000
2.640120e+003,2.785532e+000
2.641084e+003,2.841836e+000
2.642048e+003,3.564227e+000
2.643012e+003,3.975830e+000
2.643977e+003,4.062460e+000
2.644941e+003,3.915802e+000
2.645905e+003,3.510638e+000
2.646869e+003,2.349457e+000
2.647833e+003,5.021515e-001
2.648798e+003,-9.443420e-001
2.649762e+003,-1.478671e+000
2.650726e+003,-8.464844e-001
2.651690e+003,1.330450e+000
2.652655e+003,3.254901e+000
2.653619e+003,4.580469e+000
2.654583e+003,4.806677e+000
2.655547e+003,2.553442e+000
2.656511e+003,1.193515e+000
2.657476e+003,1.899155e+000
2.658440e+003,2.826923e+000
2.659404e+003,3.440164e+000
2.660368e+003,2.757748e+000
2.661333e+003,3.248596e-002
2.662297e+003,-2.124200e+000
2.663261e+003,-1.084402e+000
2.664225e+003,9.146026e-001
2.665190e+003,1.141614e+000
2.666154e+003,5.842468e-001
2.667118e+003,5.733337e-002
2.668082e+003,-2.697266e-001
2.669047e+003,1.182495e-001
2.670011e+003,3.037048e-001
2.670975e+003,-1.176367e+000
2.671939e+003,-2.702737e+000
2.672904e+003,-2.324826e+000
2.673868e+003,-9.471070e-001
2.674832e+003,3.345276e-001
2.675796e+003,1.289020e+000
2.676760e+003,1.301025e+000
2.677725e+003,5.044983e-001
2.678689e+003,-1.051361e+000
2.679653e+003,-2.651959e+000
2.680617e+003,-1.660779e+000
2.681582e+003,5.252228e-001
2.682546e+003,1.054996e+000
2.683510e+003,4.132416e-001
2.684474e+003,-2.176971e-001
2.685438e+003,-6.017395e-001
2.686403e+003,-6.998108e-001
2.687367e+003,-5.175934e-001
2.688331e+003,8.013916e-003
2.689295e+003,9.252564e-001
2.690260e+003,1.217023e+000
2.691224e+003,7.451630e-001
2.692188e+003,8.754761e-001
2.693152e+003,1.540051e+000
2.694117e+003,1.361118e+000
2.695081e+003,4.687927e-001
2.696045e+003,3.853058e-001
2.697009e+003,1.099530e+000
2.697974e+003,1.133020e+000
2.698938e+003,2.589203e-001
2.699902e+003,-2.579224e-001
2.700866e+003,2.539062e-003
2.701831e+003,6.239807e-001
2.702795e+003,2.189941e+000
2.703759e+003,2.489874e+000
2.704723e+003,7.126831e-001
2.705688e+003,-1.355530e-001
2.706652e+003,3.909882e-001
2.707616e+003,1.247516e+000
2.708580e+003,2.144458e+000
2.709544e+003,1.896680e+000
2.710509e+003,1.469421e-001
2.711473e+003,-1.828436e+000
2.712437e+003,-3.313525e+000
2.713401e+003,-3.425989e+000
2.714365e+003,-8.225555e-001
2.715330e+003,1.268610e+000
2.716294e+003,1.113666e+000
2.717258e+003,2.178986e-001
2.718222e+003,-1.770941e+000
2.719187e+003,-3.021826e+000
2.720151e+003,-2.930539e+000
2.721115e+003,-2.076773e+000
2.722079e+003,-6.302795e-001
2.723044e+003,3.800415e-001
2.724008e+003,1.660400e-001
2.724972e+003,-2.293549e-001
2.725936e+003,2.914673e-001
2.726901e+003,1.034241e+000
2.727865e+003,1.118115e+000
2.728829e+003,1.252618e+000
2.729793e+003,2.646667e+000
2.730758e+003,3.483273e+000
2.731722e+003,2.270911e+000
2.732686e+003,1.498291e-001
2.733650e+003,-3.007694e+000
2.734615e+003,-4.685803e+000
2.735579e+003,-2.247641e+000
2.736543e+003,8.051270e-001
2.737507e+003,-3.485718e-001
2.738471e+003,-3.387076e+000
2.739436e+003,-4.396124e+000
2.740400e+003,-3.909918e+000
2.741364e+003,-1.790634e+000
2.742328e+003,2.338837e-001
2.743292e+003,-5.366669e-001
2.744257e+003,-1.843530e+000
2.745221e+003,-6.252533e-001
2.746185e+003,1.085947e+000
2.747149e+003,3.111847e-001
2.748114e+003,-1.602933e+000
2.749078e+003,-2.781735e+000
2.750042e+003,-3.242212e+000
2.751006e+003,-2.947986e+000
2.751971e+003,-2.122742e+000
2.752935e+003,-1.502094e+000
2.753899e+003,-9.496430e-001
2.754863e+003,2.030487e-001
2.755828e+003,1.222723e+000
2.756792e+003,4.981171e-001
2.757756e+003,-8.911530e-001
2.758720e+003,-1.264746e+000
2.759685e+003,-7.698700e-001
2.760649e+003,2.293762e-001
2.761613e+003,1.297357e+000
2.762577e+003,1.042990e+000
2.763542e+003,-3.362915e-001
2.764506e+003,-1.300949e+000
2.765470e+003,-1.816019e+000
2.766434e+003,-1.411252e+000
2.767398e+003,-5.364441e-001
2.768363e+003,-3.613556e-001
2.769327e+003,-7.793030e-001
2.770291e+003,-1.436871e+000
2.771255e+003,-2.089417e+000
2.772219e+003,-2.660574e+000
2.773184e+003,-2.935193e+000
2.774148e+003,-1.647684e+000
2.775112e+003,9.260772e-001
2.776076e+003,3.425690e-001
2.777041e+003,-3.455551e+000
2.778005e+003,-4.595267e+000
2.778969e+003,-3.476852e+000
2.779933e+003,-2.001050e+000
2.780898e+003,-6.392365e-001
2.781862e+003,-2.350800e-001
2.782826e+003,-4.912384e-001
2.783790e+003,-4.037994e-001
2.784755e+003,1.191559e-001
2.785719e+003,7.422211e-001
2.786683e+003,1.394629e+000
2.787647e+003,1.293512e+000
2.788612e+003,3.089386e-001
2.789576e+003,-6.676025e-001
2.790540e+003,-1.581021e+000
2.791504e+003,-8.192841e-001
2.792469e+003,1.119568e+000
2.793433e+003,1.329706e+000
2.794397e+003,1.562195e-002
2.795361e+003,-8.099640e-001
2.796325e+003,-8.776947e-001
2.797290e+003,-9.103211e-001
2.798254e+003,-1.050122e+000
2.799218e+003,-1.342322e+000
2.800182e+003,-1.850388e+000
2.801146e+003,-2.323587e+000
2.802111e+003,-2.827658e+000
2.803075e+003,-1.564621e+000
2.804039e+003,1.171936e+000
2.805003e+003,2.274686e+000
2.805968e+003,1.604437e+000
2.806932e+003,2.416138e-001
2.807896e+003,-1.078122e+000
2.808860e+003,-1.118893e+000
2.809825e+003,1.548248e-001
2.810789e+003,9.760987e-001
2.811753e+003,9.592072e-001
2.812717e+003,3.845673e-001
2.813682e+003,-1.107715e+000
2.814646e+003,-9.174805e-001
2.815610e+003,9.367493e-001
2.816574e+003,1.417468e+000
2.817539e+003,4.222107e-001
2.818503e+003,-9.854309e-001
2.819467e+003,-2.318384e+000
2.820431e+003,-2.901279e+000
2.821396e+003,-2.613379e+000
2.822360e+003,-1.881625e+000
2.823324e+003,-7.789764e-001
2.824288e+003,3.537628e-001
2.825252e+003,1.819833e+000
2.826217e+003,1.589725e+000
2.827181e+003,-4.005341e-001
2.828145e+003,6.437378e-002
2.829109e+003,2.607370e+000
2.830073e+003,2.764270e+000
2.831038e+003,5.026459e-001
2.832002e+003,-1.762964e+000
2.832966e+003,-3.093225e+000
2.833930e+003,-2.258246e+000
2.834895e+003,9.819794e-001
2.835859e+003,2.360654e+000
2.836823e+003,1.151575e+000
2.837787e+003,2.755493e-001
2.838752e+003,-2.726746e-001
2.839716e+003,-1.459656e-002
2.840680e+003,8.633545e-001
2.841644e+003,1.021628e+000
2.842609e+003,4.085937e-001
2.843573e+003,-4.237946e-001
2.844537e+003,-1.239700e+000
2.845501e+003,-1.948001e+000
2.846466e+003,-2.518018e+000
2.847430e+003,-2.509494e+000
2.848394e+003,-1.753104e+000
2.849358e+003,-1.874915e+000
2.850323e+003,-2.937753e+000
2.851287e+003,-3.248932e+000
2.852251e+003,-2.855545e+000
2.853215e+003,-2.584912e+000
2.854179e+003,-2.268433e+000
2.855144e+003,-4.893799e-001
2.856108e+003,1.968747e+000
2.857072e+003,2.009729e+000
2.858036e+003,-4.416474e-001
2.859000e+003,-2.216861e+000
2.859965e+003,-3.099967e+000
2.860929e+003,-2.661575e+000
2.861893e+003,-8.891846e-001
2.862857e+003,2.818390e-001
2.863822e+003,8.150543e-001
2.864786e+003,1.198944e-001
2.865750e+003,-1.201178e+000
2.866714e+003,-1.465256e+000
2.867679e+003,-9.266022e-001
2.868643e+003,-8.003662e-001
2.869607e+003,-1.052737e+000
2.870571e+003,-7.682556e-001
2.871536e+003,1.159668e-003
2.872500e+003,6.847137e-001
2.873464e+003,1.201910e+000
2.874428e+003,6.905212e-002
2.875393e+003,-1.946542e+000
2.876357e+003,-2.230765e+000
2.877321e+003,-1.203836e+000
2.878285e+003,2.412048e-001
2.879250e+003,1.604004e+000
2.880214e+003,2.598740e+000
2.881178e+003,2.839929e+000
2.882142e+003,1.307901e+000
2.883106e+003,-1.339459e+000
2.884071e+003,-2.779746e+000
2.885035e+003,-2.998926e+000
2.885999e+003,-1.010211e+000
2.886963e+003,1.674609e+000
2.887927e+003,8.300293e-001
2.888892e+003,-1.437616e+000
2.889856e+003,-1.828220e+000
2.890820e+003,-9.832184e-001
2.891784e+003,3.282166e-002
2.892749e+003,8.390503e-001
2.893713e+003,9.970459e-001
2.894677e+003,8.192536e-001
2.895641e+003,9.652466e-001
2.896606e+003,1.374634e+000
2.897570e+003,2.321927e+000
2.898534e+003,3.058053e+000
2.899498e+003,1.538226e+000
2.900463e+003,-1.106262e-001
2.901427e+003,1.262515e+000
2.902391e+003,3.200775e+000
2.903355e+003,3.104455e+000
2.904320e+003,1.691144e+000
2.905284e+003,-6.201019e-001
2.906248e+003,-2.622165e+000
2.907212e+003,-2.332062e+000
2.908177e+003,-1.064639e+000
2.909141e+003,-1.089594e+000
2.910105e+003,-1.261395e+000
2.911069e+003,-2.446716e-001
2.912033e+003,1.007983e+000
2.912998e+003,2.596384e+000
2.913962e+003,2.867645e+000
2.914926e+003,2.433655e-001
2.915890e+003,-1.925113e+000
2.916854e+003,-1.129031e+000
2.917819e+003,3.814484e-001
2.918783e+003,3.361511e-001
2.919747e+003,-1.762695e-002
2.920711e+003,1.369427e+000
2.921676e+003,1.866354e+000
2.922640e+003,-1.804950e+000
2.923604e+003,-4.221924e+000
2.924568e+003,-2.683884e+000
2.925533e+003,-1.019147e+000
2.926497e+003,-6.084442e-001
2.927461e+003,1.382355e+000
2.928425e+003,6.134244e+000
2.929390e+003,-1.698880e+000
2.930354e+003,-3.526421e+001
2.931318e+003,-5.561677e+001
2.932282e+003,-2.515111e+001
2.933247e+003,-6.368927e-001
2.934211e+003,-4.798950e-001
2.935175e+003,-1.564023e+000
2.936139e+003,-2.177933e+000
2.937104e+003,-2.441589e+000
2.938068e+003,-2.291031e+000
2.939032e+003,-1.306610e+000
2.939996e+003,4.047699e-001
2.940960e+003,1.496097e+000
2.941925e+003,1.428168e+000
2.942889e+003,9.315216e-001
2.943853e+003,9.114380e-002
2.944817e+003,-6.561096e-001
2.945781e+003,-1.375912e+000
2.946746e+003,-1.452142e+000
2.947710e+003,-9.382995e-001
2.948674e+003,-4.150848e-001
2.949638e+003,-1.892456e-001
2.950603e+003,-1.628152e+000
2.951567e+003,-3.981576e+000
2.952531e+003,-3.561081e+000
2.953495e+003,-1.128693e-001
2.954460e+003,1.651386e+000
2.955424e+003,1.587076e+000
2.956388e+003,6.806122e-001
2.957352e+003,-9.064423e-001
2.958317e+003,-1.464597e+000
2.959281e+003,-1.174564e+000
2.960245e+003,-3.490601e-001
2.961209e+003,5.486206e-001
2.962174e+003,7.648712e-001
2.963138e+003,4.543518e-001
2.964102e+003,-3.291931e-002
2.965066e+003,-4.073609e-001
2.966031e+003,-2.723999e-002
2.966995e+003,8.153747e-001
2.967959e+003,1.068750e+000
2.968923e+003,1.140179e+000
2.969887e+003,2.274765e+000
2.970852e+003,3.365124e+000
2.971816e+003,3.031567e+000
2.972780e+003,1.969681e+000
2.973744e+003,5.873963e-001
2.974708e+003,-5.613129e-001
2.975673e+003,-9.728729e-001
2.976637e+003,-1.344101e+000
2.977601e+003,-2.672031e+000
2.978565e+003,-3.620078e+000
2.979530e+003,-1.976440e+000
2.980494e+003,3.152924e-001
2.981458e+003,2.828583e+000
2.982422e+003,3.777869e+000
2.983387e+003,1.379770e+000
2.984351e+003,-1.257413e+000
2.985315e+003,-3.153775e+000
2.986279e+003,-4.344504e+000
2.987244e+003,-4.845032e+000
2.988208e+003,-4.317099e+000
2.989172e+003,-2.462918e+000
2.990136e+003,-1.207727e+000
2.991101e+003,-2.280087e+000
2.992065e+003,-2.753827e+000
2.993029e+003,-2.005826e+000
2.993993e+003,-5.181274e-001
2.994958e+003,1.753958e+000
2.995922e+003,1.584335e+000
2.996886e+003,-1.045950e+000
2.997850e+003,-2.033725e+000
2.998814e+003,-7.746643e-001
2.999779e+003,-5.655884e-001
3.000743e+003,-2.301483e+000
3.001707e+003,-2.756308e+000
3.002671e+003,-1.299954e+000
3.003635e+003,-2.027890e+000
3.004600e+003,-4.703781e+000
3.005564e+003,-5.050604e+000
3.006528e+003,-3.483575e+000
3.007492e+003,-1.606729e+000
3.008457e+003,1.599823e-001
3.009421e+003,1.720776e+000
3.010385e+003,2.828906e+000
3.011349e+003,3.195834e+000
3.012314e+003,2.619626e+000
3.013278e+003,5.723267e-002
3.014242e+003,-3.357968e+000
3.015206e+003,-3.501611e+000
3.016171e+003,-2.205154e+000
3.017135e+003,-2.521729e+000
3.018099e+003,-3.227536e+000
3.019063e+003,-3.144415e+000
3.020028e+003,-2.352905e+000
3.020992e+003,-7.021027e-001
3.021956e+003,5.582001e-001
3.022920e+003,3.109436e-001
3.023885e+003,-7.040893e-001
3.024849e+003,-1.792838e+000
3.025813e+003,-2.708499e+000
3.026777e+003,-3.499872e+000
3.027741e+003,-3.617383e+000
3.028706e+003,-2.114377e+000
3.029670e+003,-9.760040e-001
3.030634e+003,-5.770081e-001
3.031598e+003,-1.250537e+000
3.032563e+003,-2.998782e+000
3.033527e+003,-3.859692e+000
3.034491e+003,-3.044852e+000
3.035455e+003,-1.905557e+000
3.036420e+003,-9.241821e-001
3.037384e+003,-4.034393e-001
3.038348e+003,-4.153381e-001
3.039312e+003,-1.022638e+000
3.040277e+003,-2.204273e+000
3.041241e+003,-3.070410e+000
3.042205e+003,-3.505179e+000
3.043169e+003,-3.156897e+000
3.044134e+003,-2.455551e+000
3.045098e+003,-2.891760e+000
3.046062e+003,-4.203485e+000
3.047026e+003,-4.260986e+000
3.047990e+003,-3.271353e+000
3.048955e+003,-2.673804e+000
3.049919e+003,-2.293314e+000
3.050883e+003,-8.961090e-001
3.051847e+003,4.108826e-001
3.052812e+003,-5.997864e-001
3.053776e+003,-2.466864e+000
3.054740e+003,-3.927054e+000
3.055704e+003,-4.502215e+000
3.056668e+003,-3.605795e+000
3.057633e+003,-2.652661e+000
3.058597e+003,-3.303522e+000
3.059561e+003,-4.094553e+000
3.060525e+003,-2.736151e+000
3.061490e+003,-1.494370e+000
3.062454e+003,-2.585403e+000
3.063418e+003,-3.488440e+000
3.064382e+003,-3.145303e+000
3.065347e+003,-2.955417e+000
3.066311e+003,-3.299255e+000
3.067275e+003,-3.006317e+000
3.068239e+003,-1.742538e+000
3.069204e+003,-8.469757e-001
3.070168e+003,-9.546692e-001
3.071132e+003,-1.669028e+000
3.072096e+003,-3.386554e+000
3.073061e+003,-3.827872e+000
3.074025e+003,-2.814795e+000
3.074989e+003,-2.316827e+000
3.075953e+003,-2.379297e+000
3.076917e+003,-2.396854e+000
3.077882e+003,-2.391562e+000
3.078846e+003,-2.644360e+000
3.079810e+003,-3.104761e+000
3.080774e+003,-3.918701e+000
3.081739e+003,-4.514334e+000
3.082703e+003,-2.706952e+000
3.083667e+003,7.520752e-002
3.084631e+003,-1.728619e+000
3.085595e+003,-5.031824e+000
3.086560e+003,-4.815210e+000
3.087524e+003,-3.464990e+000
3.088488e+003,-3.030536e+000
3.089452e+003,-3.392749e+000
3.090417e+003,-4.569333e+000
3.091381e+003,-5.531210e+000
3.092345e+003,-5.474448e+000
3.093309e+003,-5.034784e+000
3.094274e+003,-4.736972e+000
3.095238e+003,-4.472501e+000
3.096202e+003,-4.638739e+000
3.097166e+003,-3.676126e+000
3.098131e+003,-6.218475e-001
3.099095e+003,4.887085e-002
3.100059e+003,-2.255670e+000
3.101023e+003,-4.249786e+000
3.101988e+003,-4.918368e+000
3.102952e+003,-3.825946e+000
3.103916e+003,-1.252499e+000
3.104880e+003,-4.869049e-001
3.105844e+003,-1.919714e+000
3.106809e+003,-2.609735e+000
3.107773e+003,-2.660953e+000
3.108737e+003,-3.328037e+000
3.109701e+003,-4.431122e+000
3.110666e+003,-5.645395e+000
3.111630e+003,-6.650699e+000
3.112594e+003,-7.265045e+000
3.113558e+003,-7.098398e+000
3.114522e+003,-5.601904e+000
3.115487e+003,-3.713107e+000
3.116451e+003,-2.627826e+000
3.117415e+003,-2.419653e+000
3.118379e+003,-3.932974e+000
3.119344e+003,-5.303653e+000
3.120308e+003,-4.946921e+000
3.121272e+003,-4.279401e+000
3.122236e+003,-3.712375e+000
3.123201e+003,-3.465088e+000
3.124165e+003,-3.576654e+000
3.125129e+003,-2.602502e+000
3.126093e+003,-2.709595e-001
3.127058e+003,-1.237335e-001
3.128022e+003,-4.131662e+000
3.128986e+003,-5.465665e+000
3.129950e+003,-2.094138e+000
3.130915e+003,-1.037457e+000
3.131879e+003,-2.099338e+000
3.132843e+003,-3.297589e+000
3.133807e+003,-4.402664e+000
3.134771e+003,-5.652173e+000
3.135736e+003,-6.595111e+000
3.136700e+003,-5.732977e+000
3.137664e+003,-4.166654e+000
3.138628e+003,-4.025733e+000
3.139593e+003,-4.916806e+000
3.140557e+003,-6.656876e+000
3.141521e+003,-7.905484e+000
3.142485e+003,-5.782422e+000
3.143449e+003,-3.327414e+000
3.144414e+003,-2.281867e+000
3.145378e+003,-3.067950e+000
3.146342e+003,-6.302353e+000
3.147306e+003,-8.025269e+000
3.148271e+003,-6.437027e+000
3.149235e+003,-4.122476e+000
3.150199e+003,-2.455334e+000
3.151163e+003,-2.094583e+000
3.152128e+003,-4.024890e+000
3.153092e+003,-5.547806e+000
3.154056e+003,-6.635626e+000
3.155020e+003,-6.564871e+000
3.155985e+003,-5.593765e+000
3.156949e+003,-4.654495e+000
3.157913e+003,-4.152926e+000
3.158877e+003,-4.944885e+000
3.159842e+003,-6.587515e+000
3.160806e+003,-7.799361e+000
3.161770e+003,-8.208364e+000
3.162734e+003,-6.419058e+000
3.163698e+003,-3.843787e+000
3.164663e+003,-3.517682e+000
3.165627e+003,-4.191672e+000
3.166591e+003,-5.317691e+000
3.167555e+003,-5.768051e+000
3.168520e+003,-4.810925e+000
3.169484e+003,-3.706097e+000
3.170448e+003,-3.034528e+000
3.171412e+003,-3.402365e+000
3.172376e+003,-5.166654e+000
3.173341e+003,-6.218774e+000
3.174305e+003,-4.940848e+000
3.175269e+003,-4.589899e+000
3.176233e+003,-5.658664e+000
3.177198e+003,-6.398746e+000
3.178162e+003,-6.729218e+000
3.179126e+003,-6.890393e+000
3.180090e+003,-6.785315e+000
3.181055e+003,-5.962561e+000
3.182019e+003,-4.685208e+000
3.182983e+003,-3.826562e+000
3.183947e+003,-3.036807e+000
3.184912e+003,-1.048315e+000
3.185876e+003,7.656342e-001
3.186840e+003,-1.753317e+000
3.187804e+003,-4.865771e+000
3.188769e+003,-4.202332e+000
3.189733e+003,-3.084726e+000
3.190697e+003,-3.382724e+000
3.191661e+003,-3.987134e+000
3.192625e+003,-4.419013e+000
3.193590e+003,-4.509451e+000
3.194554e+003,-4.197904e+000
3.195518e+003,-4.204724e+000
3.196482e+003,-5.188983e+000
3.197447e+003,-4.892004e+000
3.198411e+003,-2.828696e+000
3.199375e+003,-2.368591e+000
3.200339e+003,-3.234936e+000
3.201303e+003,-3.177799e+000
3.202268e+003,-2.448187e+000
3.203232e+003,-1.955454e+000
3.204196e+003,-2.061331e+000
3.205160e+003,-3.380878e+000
3.206125e+003,-4.837991e+000
3.207089e+003,-4.458819e+000
3.208053e+003,-3.045346e+000
3.209017e+003,-1.128714e+000
3.209982e+003,-8.367920e-002
3.210946e+003,-2.431241e+000
3.211910e+003,-3.515961e+000
3.212874e+003,-1.328210e+000
3.213839e+003,6.330261e-002
3.214803e+003,-6.247193e-001
3.215767e+003,-1.373517e+000
3.216731e+003,-1.356122e+000
3.217696e+003,-1.383475e+000
3.218660e+003,-1.766751e+000
3.219624e+003,-2.230130e+000
3.220588e+003,-2.747473e+000
3.221552e+003,-2.392197e+000
3.222517e+003,-1.726572e+000
3.223481e+003,-2.815381e+000
3.224445e+003,-4.608270e+000
3.225409e+003,-5.270911e+000
3.226374e+003,-4.974927e+000
3.227338e+003,-4.030365e+000
3.228302e+003,-3.064420e+000
3.229266e+003,-2.856110e+000
3.230230e+003,-2.941598e+000
3.231195e+003,-3.064587e+000
3.232159e+003,-2.810181e+000
3.233123e+003,-1.417557e+000
3.234087e+003,-1.111899e+000
3.235052e+003,-2.238623e+000
3.236016e+003,-3.108246e+000
3.236980e+003,-3.317954e+000
3.237944e+003,-2.997104e+000
3.238909e+003,-2.360257e+000
3.239873e+003,-2.608405e+000
3.240837e+003,-3.608646e+000
3.241801e+003,-3.512964e+000
3.242766e+003,-2.718939e+000
3.243730e+003,-2.887537e+000
3.244694e+003,-3.502014e+000
3.245658e+003,-3.977512e+000
3.246623e+003,-4.336795e+000
3.247587e+003,-4.785176e+000
3.248551e+003,-4.557517e+000
3.249515e+003,-3.124350e+000
3.250479e+003,-2.304016e+000
3.251444e+003,-3.662195e+000
3.252408e+003,-4.424249e+000
3.253372e+003,-1.843912e+000
3.254336e+003,-1.433688e+000
3.255301e+003,-3.648401e+000
3.256265e+003,-4.808873e+000
3.257229e+003,-4.738408e+000
3.258193e+003,-4.171434e+000
3.259157e+003,-3.466409e+000
3.260122e+003,-2.998080e+000
3.261086e+003,-2.767050e+000
3.262050e+003,-2.678641e+000
3.263014e+003,-2.767398e+000
3.263979e+003,-3.149695e+000
3.264943e+003,-3.683046e+000
3.265907e+003,-4.516684e+000
3.266871e+003,-4.926061e+000
3.267836e+003,-4.491936e+000
3.268800e+003,-3.605096e+000
3.269764e+003,-2.379138e+000
3.270728e+003,-2.230939e+000
3.271693e+003,-3.464938e+000
3.272657e+003,-4.074730e+000
3.273621e+003,-3.340793e+000
3.274585e+003,-2.401892e+000
3.275550e+003,-1.288748e+000
3.276514e+003,-1.601367e+000
3.277478e+003,-2.652188e+000
3.278442e+003,-2.377676e+000
3.279406e+003,-1.597482e+000
3.280371e+003,-1.705228e+000
3.281335e+003,-2.061798e+000
3.282299e+003,-2.031308e+000
3.283263e+003,-1.987363e+000
3.284228e+003,-2.374606e+000
3.285192e+003,-2.057938e+000
3.286156e+003,8.987152e-001
3.287120e+003,2.723792e+000
3.288084e+003,2.337186e+000
3.289049e+003,1.582129e+000
3.290013e+003,6.809052e-001
3.290977e+003,-3.213959e-001
3.291941e+003,-1.211682e+000
3.292906e+003,-1.259872e+000
3.293870e+003,-7.329102e-001
3.294834e+003,-7.007141e-001
3.295798e+003,-1.171466e+000
3.296763e+003,-2.813591e+000
3.297727e+003,-4.077232e+000
3.298691e+003,-1.127542e+000
3.299655e+003,1.720660e+000
3.300620e+003,6.673279e-001
3.301584e+003,-6.907379e-001
3.302548e+003,-1.414966e+000
3.303512e+003,-9.027252e-001
3.304477e+003,8.485168e-001
3.305441e+003,2.078549e+000
3.306405e+003,2.115421e+000
3.307369e+003,1.107779e+000
3.308333e+003,-9.646972e-001
3.309298e+003,2.320618e-001
3.310262e+003,3.236395e+000
3.311226e+003,3.799429e+000
3.312190e+003,2.882401e+000
3.313155e+003,1.421304e+000
3.314119e+003,4.100311e-001
3.315083e+003,5.283264e-001
3.316047e+003,1.213278e+000
3.317011e+003,2.036765e+000
3.317976e+003,2.732376e+000
3.318940e+003,3.032666e+000
3.319904e+003,3.260394e+000
3.320868e+003,3.502118e+000
3.321833e+003,3.771420e+000
3.322797e+003,3.990704e+000
3.323761e+003,3.472217e+000
3.324725e+003,2.598978e+000
3.325690e+003,2.568103e+000
3.326654e+003,3.175250e+000
3.327618e+003,3.631140e+000
3.328582e+003,4.048327e+000
3.329547e+003,4.853342e+000
3.330511e+003,5.405289e+000
3.331475e+003,5.046509e+000
3.332439e+003,3.821970e+000
3.333404e+003,1.172638e+000
3.334368e+003,2.922668e-001
3.335332e+003,1.699075e+000
3.336296e+003,2.818109e+000
3.337260e+003,2.941986e+000
3.338225e+003,3.069962e+000
3.339189e+003,3.267749e+000
3.340153e+003,2.079282e+000
3.341117e+003,-7.498779e-002
3.342082e+003,-9.303940e-001
3.343046e+003,-1.042683e+000
3.344010e+003,-9.005157e-001
3.344974e+003,-9.490692e-001
3.345938e+003,-1.877371e+000
3.346903e+003,-1.688480e+000
3.347867e+003,5.275894e-001
3.348831e+003,2.191876e+000
3.349795e+003,1.876880e+000
3.350760e+003,1.413293e+000
3.351724e+003,1.526996e+000
3.352688e+003,8.058807e-001
3.353652e+003,-5.067199e-001
3.354617e+003,2.725174e-001
3.355581e+003,2.184061e+000
3.356545e+003,3.389523e+000
3.357509e+003,3.592371e+000
3.358474e+003,2.678802e+000
3.359438e+003,1.389780e+000
3.360402e+003,3.130783e-001
3.361366e+003,8.560181e-002
3.362331e+003,1.986087e+000
3.363295e+003,3.075702e+000
3.364259e+003,1.700693e+000
3.365223e+003,1.187448e+000
3.366188e+003,1.751025e+000
3.367152e+003,3.073065e+000
3.368116e+003,4.454950e+000
3.369080e+003,3.941943e+000
3.370044e+003,2.278394e+000
3.371009e+003,1.885188e+000
3.371973e+003,2.453116e+000
3.372937e+003,3.850623e+000
3.373901e+003,4.805832e+000
3.374865e+003,2.846982e+000
3.375830e+003,1.553311e+000
3.376794e+003,2.873379e+000
3.377758e+003,2.480759e+000
3.378722e+003,-1.301086e-001
3.379687e+003,-5.175293e-001
3.380651e+003,1.843756e+000
3.381615e+003,3.395483e+000
3.382579e+003,3.589206e+000
3.383544e+003,3.269217e+000
3.384508e+003,2.690849e+000
3.385472e+003,2.814122e+000
3.386436e+003,3.202966e+000
3.387401e+003,3.078812e+000
3.388365e+003,3.482559e+000
3.389329e+003,5.142453e+000
3.390293e+003,5.529086e+000
3.391258e+003,3.881088e+000
3.392222e+003,3.837292e+000
3.393186e+003,6.894110e+000
3.394150e+003,8.162845e+000
3.395115e+003,7.041281e+000
3.396079e+003,6.863843e+000
3.397043e+003,7.458960e+000
3.398007e+003,8.745257e+000
3.398971e+003,1.003253e+001
3.399936e+003,1.041056e+001
3.400900e+003,1.010778e+001
3.401864e+003,9.191818e+000
3.402828e+003,9.120611e+000
3.403792e+003,1.094929e+001
3.404757e+003,1.266442e+001
3.405721e+003,1.311319e+001
3.406685e+003,1.328259e+001
3.407649e+003,1.322356e+001
3.408614e+003,1.474251e+001
3.409578e+003,1.723717e+001
3.410542e+003,1.936250e+001
3.411506e+003,2.058307e+001
3.412471e+003,2.011521e+001
3.413435e+003,1.957224e+001
3.414399e+003,2.053334e+001
3.415363e+003,2.183759e+001
3.416328e+003,2.228937e+001
3.417292e+003,2.286892e+001
3.418256e+003,2.394093e+001
3.419220e+003,2.526283e+001
3.420185e+003,2.661602e+001
3.421149e+003,2.583912e+001
3.422113e+003,2.387302e+001
3.423077e+003,2.374263e+001
3.424042e+003,2.505050e+001
3.425006e+003,2.668165e+001
3.425970e+003,2.758974e+001
3.426934e+003,2.552622e+001
