7.140112e+001,7.739512e+001
7.236536e+001,7.794411e+001
7.332959e+001,8.176743e+001
7.429382e+001,8.439172e+001
7.525806e+001,8.655408e+001
7.622229e+001,8.557987e+001
7.718652e+001,7.853156e+001
7.815076e+001,6.118561e+001
7.911499e+001,5.167025e+001
8.007922e+001,4.967384e+001
8.104346e+001,5.290200e+001
8.200769e+001,6.000842e+001
8.297192e+001,7.419295e+001
8.393616e+001,8.695787e+001
8.490039e+001,9.847351e+001
8.586462e+001,1.070981e+002
8.682886e+001,1.103952e+002
8.779310e+001,1.010831e+002
8.875733e+001,8.737634e+001
8.972157e+001,7.277961e+001
9.068580e+001,5.905318e+001
9.165003e+001,4.694440e+001
9.261427e+001,4.145772e+001
9.357850e+001,4.054879e+001
9.454273e+001,4.211565e+001
9.550697e+001,4.510903e+001
9.647120e+001,5.091007e+001
9.743543e+001,5.271976e+001
9.839967e+001,4.936563e+001
9.936390e+001,4.345910e+001
1.003281e+002,3.782365e+001
1.012924e+002,3.154295e+001
1.022566e+002,2.745852e+001
1.032208e+002,2.725444e+001
1.041851e+002,2.967947e+001
1.051493e+002,3.186789e+001
1.061135e+002,3.061231e+001
1.070778e+002,2.850296e+001
1.080420e+002,2.632568e+001
1.090062e+002,2.443296e+001
1.099705e+002,2.279145e+001
1.109347e+002,2.073703e+001
1.118989e+002,1.872728e+001
1.128632e+002,1.798507e+001
1.138274e+002,1.943826e+001
1.147916e+002,2.359501e+001
1.157559e+002,2.575888e+001
1.167201e+002,2.564395e+001
1.176843e+002,2.451332e+001
1.186486e+002,2.387619e+001
1.196128e+002,2.416722e+001
1.205770e+002,2.428813e+001
1.215413e+002,2.471626e+001
1.225055e+002,2.495790e+001
1.234697e+002,2.398260e+001
1.244340e+002,1.911155e+001
1.253982e+002,1.437096e+001
1.263624e+002,1.020110e+001
1.273267e+002,7.203687e+000
1.282909e+002,6.366870e+000
1.292551e+002,1.285962e+001
1.302194e+002,2.163395e+001
1.311836e+002,2.834031e+001
1.321478e+002,3.017158e+001
1.331121e+002,2.691007e+001
1.340763e+002,2.254592e+001
1.350405e+002,1.683774e+001
1.360048e+002,1.170106e+001
1.369690e+002,9.155530e+000
1.379332e+002,1.079167e+001
1.388975e+002,1.325240e+001
1.398617e+002,1.758108e+001
1.408259e+002,2.225770e+001
1.417902e+002,2.494292e+001
1.427544e+002,2.380963e+001
1.437186e+002,2.119201e+001
1.446829e+002,1.652492e+001
1.456471e+002,1.063548e+001
1.466113e+002,5.340692e+000
1.475756e+002,2.809442e+000
1.485398e+002,2.509876e+000
1.495040e+002,5.921930e+000
1.504683e+002,1.304120e+001
1.514325e+002,2.228353e+001
1.523967e+002,2.380804e+001
1.533610e+002,1.943621e+001
1.543252e+002,1.384017e+001
1.552894e+002,1.027963e+001
1.562537e+002,9.514819e+000
1.572179e+002,8.827703e+000
1.581821e+002,6.895581e+000
1.591464e+002,5.750934e+000
1.601106e+002,8.081390e+000
1.610748e+002,1.867555e+001
1.620391e+002,2.533503e+001
1.630033e+002,2.369556e+001
1.639676e+002,1.707526e+001
1.649318e+002,1.064827e+001
1.658960e+002,9.569507e+000
1.668603e+002,1.032234e+001
1.678245e+002,1.082552e+001
1.687887e+002,1.078696e+001
1.697530e+002,1.057854e+001
1.707172e+002,1.130953e+001
1.716814e+002,1.261072e+001
1.726457e+002,1.374908e+001
1.736099e+002,1.448605e+001
1.745741e+002,1.483276e+001
1.755384e+002,1.389493e+001
1.765026e+002,1.119761e+001
1.774668e+002,8.217944e+000
1.784311e+002,5.719775e+000
1.793953e+002,3.919403e+000
1.803595e+002,2.181903e+000
1.813238e+002,-7.229736e-001
1.822880e+002,-3.227039e+000
1.832522e+002,-3.726123e+000
1.842165e+002,-3.427307e-001
1.851807e+002,3.050012e+000
1.861449e+002,3.628137e+000
1.871092e+002,2.384503e+000
1.880734e+002,4.990601e-001
1.890376e+002,-6.906555e-001
1.900019e+002,-9.815186e-001
1.909661e+002,1.369629e-002
1.919303e+002,2.286371e+000
1.928946e+002,5.227796e+000
1.938588e+002,6.767480e+000
1.948230e+002,5.826886e+000
1.957873e+002,5.872754e+000
1.967515e+002,7.060523e+000
1.977157e+002,9.471319e+000
1.986800e+002,1.450905e+001
1.996442e+002,2.298154e+001
2.006084e+002,3.294747e+001
2.015727e+002,4.676662e+001
2.025369e+002,6.484291e+001
2.035011e+002,7.672420e+001
2.044654e+002,7.203589e+001
2.054296e+002,6.126971e+001
2.063938e+002,4.882773e+001
2.073581e+002,3.778946e+001
2.083223e+002,2.966183e+001
2.092865e+002,2.718830e+001
2.102508e+002,2.907821e+001
2.112150e+002,3.443095e+001
2.121792e+002,4.246680e+001
2.131435e+002,5.442955e+001
2.141077e+002,6.025693e+001
2.150719e+002,5.772496e+001
2.160362e+002,5.128442e+001
2.170004e+002,4.740508e+001
2.179646e+002,4.759270e+001
2.189289e+002,4.885338e+001
2.198931e+002,4.956583e+001
2.208573e+002,5.104581e+001
2.218216e+002,5.601951e+001
2.227858e+002,7.026293e+001
2.237500e+002,8.456972e+001
2.247143e+002,9.859925e+001
2.256785e+002,1.100304e+002
2.266427e+002,1.149827e+002
2.276070e+002,1.006534e+002
2.285712e+002,7.667524e+001
2.295354e+002,5.466354e+001
2.304997e+002,3.812632e+001
2.314639e+002,2.662460e+001
2.324281e+002,1.822290e+001
2.333924e+002,1.309320e+001
2.343566e+002,9.167895e+000
2.353208e+002,5.702918e+000
2.362851e+002,2.604199e+000
2.372493e+002,7.224426e-001
2.382135e+002,8.553039e-001
2.391778e+002,1.176965e+000
2.401420e+002,8.895508e-001
2.411062e+002,-2.844543e-001
2.420705e+002,-1.973608e+000
2.430347e+002,-4.698138e+000
2.439989e+002,-7.362128e+000
2.449632e+002,-8.933026e+000
2.459274e+002,-8.562037e+000
2.468916e+002,-7.163995e+000
2.478559e+002,-6.977789e+000
2.488201e+002,-7.598834e+000
2.497843e+002,-8.281054e+000
2.507486e+002,-8.147321e+000
2.517128e+002,-6.896136e+000
2.526770e+002,-5.801654e+000
2.536413e+002,-5.108313e+000
2.546055e+002,-4.543677e+000
2.555697e+002,-3.583588e+000
2.565340e+002,-1.351550e+000
2.574982e+002,1.704102e-002
2.584625e+002,-1.174011e-001
2.594267e+002,-9.936218e-001
2.603909e+002,-1.283374e+000
2.613552e+002,5.436096e-001
2.623194e+002,1.979755e+000
2.632836e+002,1.490192e+000
2.642479e+002,-3.853699e-001
2.652121e+002,-2.254767e+000
2.661763e+002,-1.717084e+000
2.671406e+002,4.971313e-002
2.681048e+002,1.377545e+000
2.690690e+002,1.920135e+000
2.700333e+002,1.715942e+000
2.709975e+002,8.153076e-001
2.719617e+002,-1.027435e+000
2.729260e+002,-2.596320e+000
2.738902e+002,-3.508813e+000
2.748544e+002,-3.769928e+000
2.758187e+002,-4.241425e+000
2.767829e+002,-5.472888e+000
2.777471e+002,-6.510943e+000
2.787114e+002,-6.845788e+000
2.796756e+002,-6.405090e+000
2.806398e+002,-6.061188e+000
2.816041e+002,-6.978888e+000
2.825683e+002,-7.942365e+000
2.835325e+002,-8.181372e+000
2.844968e+002,-7.402509e+000
2.854610e+002,-6.147406e+000
2.864252e+002,-5.939685e+000
2.873895e+002,-6.223169e+000
2.883537e+002,-5.947205e+000
2.893179e+002,-4.409436e+000
2.902822e+002,-1.448261e+000
2.912464e+002,-6.353149e-001
2.922106e+002,-2.421497e+000
2.931749e+002,-4.729639e+000
2.941391e+002,-6.260675e+000
2.951033e+002,-6.778961e+000
2.960676e+002,-7.448205e+000
2.970318e+002,-8.475720e+000
2.979960e+002,-9.417322e+000
2.989603e+002,-1.003466e+001
2.999245e+002,-1.027733e+001
3.008887e+002,-1.008065e+001
3.018530e+002,-9.296326e+000
3.028172e+002,-8.253485e+000
3.037814e+002,-7.212958e+000
3.047457e+002,-6.384112e+000
3.057099e+002,-5.721918e+000
3.066741e+002,-4.935693e+000
3.076384e+002,-4.145984e+000
3.086026e+002,-3.842419e+000
3.095668e+002,-4.600446e+000
3.105311e+002,-6.951849e+000
3.114953e+002,-8.096698e+000
3.124595e+002,-7.481616e+000
3.134238e+002,-6.230499e+000
3.143880e+002,-5.685828e+000
3.153522e+002,-6.518274e+000
3.163165e+002,-7.113849e+000
3.172807e+002,-7.302173e+000
3.182449e+002,-6.973541e+000
3.192092e+002,-5.810150e+000
3.201734e+002,-2.981689e+000
3.211376e+002,-8.192749e-001
3.221019e+002,-1.615369e+000
3.230661e+002,-4.082306e+000
3.240303e+002,-6.212470e+000
3.249946e+002,-5.498389e+000
3.259588e+002,-2.420001e+000
3.269230e+002,-1.276520e+000
3.278873e+002,-2.155969e+000
3.288515e+002,-3.738623e+000
3.298157e+002,-3.684973e+000
3.307800e+002,-4.766235e-001
3.317442e+002,2.180469e+000
3.327084e+002,4.053174e+000
3.336727e+002,5.371228e+000
3.346369e+002,6.627899e+000
3.356011e+002,8.331757e+000
3.365654e+002,9.335815e+000
3.375296e+002,9.002002e+000
3.384938e+002,7.944672e+000
3.394581e+002,6.962402e+000
3.404223e+002,6.320374e+000
3.413865e+002,6.710700e+000
3.423508e+002,8.640112e+000
3.433150e+002,1.200403e+001
3.442792e+002,1.648532e+001
3.452435e+002,2.168010e+001
3.462077e+002,2.770468e+001
3.471719e+002,3.395969e+001
3.481362e+002,3.987876e+001
3.491004e+002,4.672588e+001
3.500646e+002,5.728301e+001
3.510289e+002,6.903595e+001
3.519931e+002,9.019933e+001
3.529573e+002,1.230944e+002
3.539216e+002,1.647715e+002
3.548858e+002,2.123339e+002
3.558500e+002,2.822386e+002
3.568143e+002,3.314931e+002
3.577785e+002,3.438198e+002
3.587427e+002,3.263849e+002
3.597070e+002,2.914789e+002
3.606712e+002,2.445837e+002
3.616354e+002,1.944516e+002
3.625997e+002,1.508615e+002
3.635639e+002,1.147955e+002
3.645281e+002,8.633234e+001
3.654924e+002,6.533907e+001
3.664566e+002,5.401032e+001
3.674208e+002,4.474070e+001
3.683851e+002,3.815450e+001
3.693493e+002,3.330768e+001
3.703135e+002,2.820520e+001
3.712778e+002,2.185531e+001
3.722420e+002,1.709652e+001
3.732062e+002,1.465254e+001
3.741705e+002,1.371597e+001
3.751347e+002,1.311398e+001
3.760989e+002,1.250142e+001
3.770632e+002,1.175026e+001
3.780274e+002,1.045972e+001
3.789916e+002,8.931238e+000
3.799559e+002,7.685510e+000
3.809201e+002,7.405878e+000
3.818844e+002,7.835358e+000
3.828486e+002,7.910248e+000
3.838128e+002,7.657062e+000
3.847771e+002,7.303815e+000
3.857413e+002,7.178174e+000
3.867055e+002,7.292798e+000
3.876698e+002,7.940375e+000
3.886340e+002,8.911016e+000
3.895982e+002,1.034434e+001
3.905625e+002,1.272756e+001
3.915267e+002,1.755735e+001
3.924909e+002,2.062787e+001
3.934552e+002,2.075515e+001
3.944194e+002,1.927208e+001
3.953836e+002,1.745284e+001
3.963479e+002,1.581154e+001
3.973121e+002,1.461415e+001
3.982763e+002,1.424032e+001
3.992406e+002,1.432396e+001
4.002048e+002,1.420425e+001
4.011690e+002,1.319886e+001
4.021333e+002,1.165672e+001
4.030975e+002,1.200392e+001
4.040617e+002,1.421500e+001
4.050260e+002,1.714045e+001
4.059902e+002,1.966113e+001
4.069544e+002,2.160821e+001
4.079187e+002,2.344886e+001
4.088829e+002,2.395851e+001
4.098471e+002,2.519193e+001
4.108114e+002,2.883574e+001
4.117756e+002,3.561538e+001
4.127398e+002,4.342078e+001
4.137041e+002,5.346708e+001
4.146683e+002,6.268253e+001
4.156325e+002,6.896745e+001
4.165968e+002,7.119582e+001
4.175610e+002,6.973476e+001
4.185252e+002,6.361661e+001
4.194895e+002,5.542136e+001
4.204537e+002,4.812582e+001
4.214179e+002,4.362413e+001
4.223822e+002,4.181115e+001
4.233464e+002,4.092450e+001
4.243106e+002,4.048656e+001
4.252749e+002,4.105811e+001
4.262391e+002,4.242469e+001
4.272033e+002,4.444818e+001
4.281676e+002,5.014732e+001
4.291318e+002,6.099167e+001
4.300960e+002,7.386370e+001
4.310603e+002,8.706461e+001
4.320245e+002,1.005485e+002
4.329887e+002,1.170918e+002
4.339530e+002,1.404958e+002
4.349172e+002,1.671836e+002
4.358814e+002,2.002683e+002
4.368457e+002,2.372810e+002
4.378099e+002,2.708123e+002
4.387741e+002,2.849522e+002
4.397384e+002,2.824746e+002
4.407026e+002,2.706971e+002
4.416668e+002,2.501557e+002
4.426311e+002,2.235114e+002
4.435953e+002,1.997317e+002
4.445595e+002,1.792061e+002
4.455238e+002,1.618258e+002
4.464880e+002,1.483093e+002
4.474522e+002,1.379013e+002
4.484165e+002,1.293445e+002
4.493807e+002,1.240230e+002
4.503449e+002,1.187440e+002
4.513092e+002,1.129557e+002
4.522734e+002,1.063237e+002
4.532376e+002,9.840521e+001
4.542019e+002,8.858206e+001
4.551661e+002,7.790828e+001
4.561303e+002,6.682785e+001
4.570946e+002,5.618998e+001
4.580588e+002,4.783175e+001
4.590230e+002,4.381304e+001
4.599873e+002,4.462601e+001
4.609515e+002,4.461589e+001
4.619157e+002,4.346426e+001
4.628800e+002,4.212719e+001
4.638442e+002,4.136449e+001
4.648084e+002,4.114986e+001
4.657727e+002,4.176180e+001
4.667369e+002,4.271896e+001
4.677011e+002,4.472774e+001
4.686654e+002,4.915156e+001
4.696296e+002,5.651681e+001
4.705938e+002,6.220986e+001
4.715581e+002,6.246700e+001
4.725223e+002,5.999044e+001
4.734865e+002,5.545464e+001
4.744508e+002,4.963650e+001
4.754150e+002,4.369881e+001
4.763792e+002,4.118551e+001
4.773435e+002,4.093516e+001
4.783077e+002,4.015145e+001
4.792719e+002,3.796472e+001
4.802362e+002,3.457540e+001
4.812004e+002,3.095032e+001
4.821646e+002,2.624245e+001
4.831289e+002,2.222566e+001
4.840931e+002,1.904434e+001
4.850573e+002,1.658524e+001
4.860216e+002,1.459667e+001
4.869858e+002,1.359598e+001
4.879500e+002,1.275060e+001
4.889143e+002,1.156392e+001
4.898785e+002,1.031957e+001
4.908427e+002,9.492895e+000
4.918070e+002,9.485339e+000
4.927712e+002,1.007911e+001
4.937354e+002,1.118718e+001
4.946997e+002,1.249605e+001
4.956639e+002,1.312334e+001
4.966281e+002,1.213007e+001
4.975924e+002,9.315527e+000
4.985566e+002,7.941815e+000
4.995208e+002,7.546600e+000
5.004851e+002,8.648541e+000
5.014493e+002,1.214445e+001
5.024135e+002,1.874920e+001
5.033778e+002,2.438907e+001
5.043420e+002,2.846566e+001
5.053063e+002,3.203088e+001
5.062705e+002,3.623749e+001
5.072347e+002,4.094664e+001
5.081990e+002,4.340110e+001
5.091632e+002,3.807845e+001
5.101274e+002,3.100775e+001
5.110917e+002,2.553582e+001
5.120559e+002,2.242770e+001
5.130201e+002,2.062606e+001
5.139844e+002,1.812919e+001
5.149486e+002,1.492296e+001
5.159128e+002,1.175125e+001
5.168771e+002,8.732965e+000
5.178413e+002,5.814343e+000
5.188055e+002,2.801337e+000
5.197698e+002,-1.207983e+000
5.207340e+002,-3.755792e+000
5.216982e+002,-3.891827e+000
5.226625e+002,-3.133472e+000
5.236267e+002,-3.191821e+000
5.245909e+002,-4.825665e+000
5.255552e+002,-6.580664e+000
5.265194e+002,-7.808472e+000
5.274836e+002,-8.676788e+000
5.284479e+002,-9.340149e+000
5.294121e+002,-9.863818e+000
5.303763e+002,-1.010081e+001
5.313406e+002,-9.635486e+000
5.323048e+002,-8.756720e+000
5.332690e+002,-7.743945e+000
5.342333e+002,-6.681915e+000
5.351975e+002,-5.686005e+000
5.361617e+002,-5.795380e+000
5.371260e+002,-8.464148e+000
5.380902e+002,-9.954010e+000
5.390544e+002,-8.954565e+000
5.400187e+002,-6.254608e+000
5.409829e+002,-4.334869e+000
5.419471e+002,-4.153992e+000
5.429114e+002,-4.269177e+000
5.438756e+002,-4.461352e+000
5.448398e+002,-4.665362e+000
5.458041e+002,-4.931732e+000
5.467683e+002,-5.405371e+000
5.477325e+002,-5.543555e+000
5.486968e+002,-4.131012e+000
5.496610e+002,-1.974762e+000
5.506252e+002,-7.129639e-001
5.515895e+002,-1.701666e+000
5.525537e+002,-4.908905e+000
5.535179e+002,-7.179095e+000
5.544822e+002,-8.649939e+000
5.554464e+002,-9.391235e+000
5.564106e+002,-9.185144e+000
5.573749e+002,-8.050342e+000
5.583391e+002,-7.298700e+000
5.593033e+002,-6.933112e+000
5.602676e+002,-7.042969e+000
5.612318e+002,-8.293005e+000
5.621960e+002,-1.015739e+001
5.631603e+002,-1.107145e+001
5.641245e+002,-8.785571e+000
5.650887e+002,-6.471820e+000
5.660530e+002,-7.273334e+000
5.670172e+002,-1.026033e+001
5.679814e+002,-1.317383e+001
5.689457e+002,-1.357101e+001
5.699099e+002,-1.156787e+001
5.708741e+002,-1.010754e+001
5.718384e+002,-9.029846e+000
5.728026e+002,-8.662189e+000
5.737668e+002,-9.578387e+000
5.747311e+002,-1.222076e+001
5.756953e+002,-1.401240e+001
5.766595e+002,-1.471876e+001
5.776238e+002,-1.495307e+001
5.785880e+002,-1.479712e+001
5.795522e+002,-1.432180e+001
5.805165e+002,-1.372843e+001
5.814807e+002,-1.270743e+001
5.824449e+002,-1.199829e+001
5.834092e+002,-1.245297e+001
5.843734e+002,-1.369392e+001
5.853376e+002,-1.465062e+001
5.863019e+002,-1.395417e+001
5.872661e+002,-1.198137e+001
5.882303e+002,-1.120193e+001
5.891946e+002,-1.163658e+001
5.901588e+002,-1.233326e+001
5.911230e+002,-1.233928e+001
5.920873e+002,-1.151711e+001
5.930515e+002,-1.053522e+001
5.940157e+002,-8.719294e+000
5.949800e+002,-7.394196e+000
5.959442e+002,-7.645599e+000
5.969084e+002,-9.440808e+000
5.978727e+002,-1.071190e+001
5.988369e+002,-9.393598e+000
5.998011e+002,-8.000781e+000
6.007654e+002,-7.438477e+000
6.017296e+002,-7.775708e+000
6.026938e+002,-8.773016e+000
6.036581e+002,-1.046240e+001
6.046223e+002,-1.222745e+001
6.055865e+002,-1.226395e+001
6.065508e+002,-1.066546e+001
6.075150e+002,-8.810565e+000
6.084792e+002,-8.211554e+000
6.094435e+002,-9.186969e+000
6.104077e+002,-9.765058e+000
6.113719e+002,-1.033682e+001
6.123362e+002,-1.035457e+001
6.133004e+002,-9.246844e+000
6.142646e+002,-7.034997e+000
6.152289e+002,-5.153198e+000
6.161931e+002,-4.187701e+000
6.171573e+002,-3.728333e+000
6.181216e+002,-4.010687e+000
6.190858e+002,-4.665973e+000
6.200500e+002,-4.988824e+000
6.210143e+002,-4.265643e+000
6.219785e+002,-2.903717e+000
6.229427e+002,-1.806152e+000
6.239070e+002,-9.631958e-001
6.248712e+002,-2.497864e-001
6.258354e+002,4.629822e-001
6.267997e+002,1.202539e+000
6.277639e+002,2.467767e+000
6.287281e+002,4.843298e+000
6.296924e+002,6.728821e+000
6.306566e+002,7.317822e+000
6.316208e+002,6.698578e+000
6.325851e+002,5.893799e+000
6.335493e+002,4.610938e+000
6.345135e+002,3.920148e+000
6.354778e+002,4.403436e+000
6.364420e+002,5.658350e+000
6.374063e+002,7.061267e+000
6.383705e+002,8.382990e+000
6.393347e+002,8.954584e+000
6.402990e+002,7.485382e+000
6.412632e+002,4.747962e+000
6.422274e+002,2.607153e+000
6.431917e+002,2.485614e+000
6.441559e+002,4.219177e+000
6.451201e+002,3.978631e+000
6.460844e+002,7.335510e-001
6.470486e+002,-2.098334e+000
6.480128e+002,-3.223199e+000
6.489771e+002,-3.031152e+000
6.499413e+002,-3.250061e+000
6.509055e+002,-4.932831e+000
6.518698e+002,-6.059723e+000
6.528340e+002,-5.894641e+000
6.537982e+002,-4.948126e+000
6.547625e+002,-3.757330e+000
6.557267e+002,-2.562726e+000
6.566909e+002,-1.767194e+000
6.576552e+002,-2.064429e+000
6.586194e+002,-3.044415e+000
6.595836e+002,-4.353113e+000
6.605479e+002,-5.751794e+000
6.615121e+002,-6.898712e+000
6.624763e+002,-6.352466e+000
6.634406e+002,-2.934711e+000
6.644048e+002,-9.519104e-001
6.653690e+002,-2.160132e+000
6.663333e+002,-4.915253e+000
6.672975e+002,-5.908148e+000
6.682617e+002,-3.703992e+000
6.692260e+002,-1.914148e+000
6.701902e+002,-1.333899e+000
6.711544e+002,-1.459833e+000
6.721187e+002,-2.188641e+000
6.730829e+002,-3.432501e+000
6.740471e+002,-4.593695e+000
6.750114e+002,-4.759265e+000
6.759756e+002,-4.272925e+000
6.769398e+002,-3.136590e+000
6.779041e+002,-1.478851e+000
6.788683e+002,1.858093e-001
6.798325e+002,9.224121e-001
6.807968e+002,4.104126e-001
6.817610e+002,-1.817017e-002
6.827252e+002,-4.231323e-001
6.836895e+002,-7.032715e-001
6.846537e+002,-7.372376e-001
6.856179e+002,-4.928345e-001
6.865822e+002,-3.154175e-001
6.875464e+002,-3.099670e-001
6.885106e+002,-3.363403e-001
6.894749e+002,-4.357239e-001
6.904391e+002,-5.211792e-001
6.914034e+002,-3.806091e-001
6.923676e+002,2.349426e-001
6.933318e+002,1.190344e+000
6.942961e+002,2.460791e+000
6.952603e+002,3.865417e+000
6.962245e+002,4.752460e+000
6.971888e+002,4.469306e+000
6.981530e+002,2.950909e+000
6.991172e+002,3.232239e+000
7.000815e+002,6.173981e+000
7.010457e+002,8.737310e+000
7.020099e+002,9.431086e+000
7.029742e+002,8.789411e+000
7.039384e+002,9.338178e+000
7.049026e+002,1.332306e+001
7.058669e+002,1.597267e+001
7.068311e+002,1.512257e+001
7.077953e+002,1.261389e+001
7.087596e+002,1.067772e+001
7.097238e+002,1.051505e+001
7.106880e+002,1.128784e+001
7.116523e+002,1.175402e+001
7.126165e+002,1.202643e+001
7.135807e+002,1.241578e+001
7.145450e+002,1.305084e+001
7.155092e+002,1.371260e+001
7.164734e+002,1.372496e+001
7.174377e+002,1.253085e+001
7.184019e+002,1.186368e+001
7.193661e+002,1.246866e+001
7.203304e+002,1.303204e+001
7.212946e+002,1.184316e+001
7.222589e+002,8.237543e+000
7.232231e+002,5.652265e+000
7.241873e+002,6.081238e+000
7.251516e+002,6.941791e+000
7.261158e+002,6.778668e+000
7.270800e+002,5.544391e+000
7.280443e+002,4.273364e+000
7.290085e+002,4.107562e+000
7.299727e+002,4.664472e+000
7.309370e+002,5.070489e+000
7.319012e+002,5.305017e+000
7.328654e+002,5.340698e+000
7.338297e+002,5.141266e+000
7.347939e+002,4.691437e+000
7.357581e+002,4.075574e+000
7.367224e+002,2.789063e+000
7.376866e+002,1.978308e+000
7.386508e+002,2.273743e+000
7.396151e+002,3.276630e+000
7.405793e+002,3.841724e+000
7.415435e+002,3.345563e+000
7.425078e+002,3.021515e+000
7.434720e+002,3.332855e+000
7.444362e+002,4.007367e+000
7.454005e+002,4.850128e+000
7.463647e+002,5.746704e+000
7.473289e+002,6.580426e+000
7.482932e+002,7.202106e+000
7.492574e+002,7.640826e+000
7.502216e+002,7.794366e+000
7.511859e+002,7.603674e+000
7.521501e+002,6.997449e+000
7.531143e+002,5.776062e+000
7.540786e+002,3.206213e+000
7.550428e+002,2.096246e+000
7.560070e+002,3.010925e+000
7.569713e+002,4.468726e+000
7.579355e+002,5.830218e+000
7.588997e+002,6.957214e+000
7.598640e+002,7.626300e+000
7.608282e+002,7.498645e+000
7.617924e+002,7.095184e+000
7.627567e+002,6.269714e+000
7.637209e+002,5.409003e+000
7.646851e+002,5.144348e+000
7.656494e+002,5.990790e+000
7.666136e+002,7.730151e+000
7.675778e+002,9.866943e+000
7.685421e+002,1.234883e+001
7.695063e+002,1.404600e+001
7.704705e+002,1.425256e+001
7.714348e+002,1.334977e+001
7.723990e+002,1.286560e+001
7.733632e+002,1.311223e+001
7.743275e+002,1.326099e+001
7.752917e+002,1.347174e+001
7.762559e+002,1.348524e+001
7.772202e+002,1.271531e+001
7.781844e+002,1.100692e+001
7.791486e+002,9.881213e+000
7.801129e+002,1.146080e+001
7.810771e+002,1.371299e+001
7.820413e+002,1.559105e+001
7.830056e+002,1.685980e+001
7.839698e+002,1.753726e+001
7.849340e+002,1.758594e+001
7.858983e+002,1.706197e+001
7.868625e+002,1.740198e+001
7.878267e+002,1.867115e+001
7.887910e+002,2.017682e+001
7.897552e+002,2.171347e+001
7.907194e+002,2.326667e+001
7.916837e+002,2.457465e+001
7.926479e+002,2.591384e+001
7.936121e+002,2.641351e+001
7.945764e+002,2.499891e+001
7.955406e+002,2.312378e+001
7.965048e+002,2.245627e+001
7.974691e+002,2.370182e+001
7.984333e+002,2.583081e+001
7.993975e+002,2.773985e+001
8.003618e+002,2.950198e+001
8.013260e+002,3.111744e+001
8.022902e+002,3.262788e+001
8.032545e+002,3.418823e+001
8.042187e+002,3.605503e+001
8.051829e+002,3.828117e+001
8.061472e+002,4.085372e+001
8.071114e+002,4.402905e+001
8.080756e+002,4.707953e+001
8.090399e+002,4.928936e+001
8.100041e+002,5.093038e+001
8.109683e+002,5.371548e+001
8.119326e+002,5.863008e+001
8.128968e+002,6.414661e+001
8.138610e+002,6.992767e+001
8.148253e+002,7.582214e+001
8.157895e+002,8.162692e+001
8.167537e+002,8.729087e+001
8.177180e+002,9.289500e+001
8.186822e+002,9.877717e+001
8.196464e+002,1.047730e+002
8.206107e+002,1.107903e+002
8.215749e+002,1.168494e+002
8.225391e+002,1.218918e+002
8.235034e+002,1.242285e+002
8.244676e+002,1.233470e+002
8.254318e+002,1.208111e+002
8.263961e+002,1.161877e+002
8.273603e+002,1.112623e+002
8.283245e+002,1.068511e+002
8.292888e+002,1.027435e+002
8.302530e+002,9.794834e+001
8.312172e+002,9.134806e+001
8.321815e+002,8.515025e+001
8.331457e+002,8.079950e+001
8.341099e+002,7.784013e+001
8.350742e+002,7.583086e+001
8.360384e+002,7.443070e+001
8.370026e+002,7.321925e+001
8.379669e+002,7.113963e+001
8.389311e+002,6.810786e+001
8.398953e+002,6.517154e+001
8.408596e+002,6.251366e+001
8.418238e+002,5.987382e+001
8.427880e+002,5.698395e+001
8.437523e+002,5.382478e+001
8.447165e+002,5.058893e+001
8.456807e+002,4.634847e+001
8.466450e+002,4.309078e+001
8.476092e+002,4.219572e+001
8.485734e+002,4.270040e+001
8.495377e+002,4.253804e+001
8.505019e+002,4.040512e+001
8.514661e+002,3.780645e+001
8.524304e+002,3.677459e+001
8.533946e+002,3.666911e+001
8.543588e+002,3.668282e+001
8.553231e+002,3.647599e+001
8.562873e+002,3.605286e+001
8.572515e+002,3.541346e+001
8.582158e+002,3.442649e+001
8.591800e+002,3.360395e+001
8.601442e+002,3.288609e+001
8.611085e+002,3.226569e+001
8.620727e+002,3.177562e+001
8.630369e+002,3.146374e+001
8.640012e+002,3.139253e+001
8.649654e+002,3.202094e+001
8.659296e+002,3.224637e+001
8.668939e+002,3.102382e+001
8.678581e+002,2.933149e+001
8.688223e+002,2.866238e+001
8.697866e+002,2.971590e+001
8.707508e+002,3.144110e+001
8.717150e+002,3.157278e+001
8.726793e+002,3.042888e+001
8.736435e+002,2.943334e+001
8.746077e+002,2.873201e+001
8.755720e+002,2.852280e+001
8.765362e+002,2.946133e+001
8.775004e+002,3.225383e+001
8.784647e+002,3.303743e+001
8.794289e+002,3.030594e+001
8.803931e+002,2.734204e+001
8.813574e+002,2.496664e+001
8.823216e+002,2.312013e+001
8.832858e+002,2.141175e+001
8.842501e+002,1.964902e+001
8.852143e+002,1.833337e+001
8.861785e+002,1.853948e+001
8.871428e+002,1.906013e+001
8.881070e+002,1.837730e+001
8.890712e+002,1.614535e+001
8.900355e+002,1.309089e+001
8.909997e+002,1.031361e+001
8.919639e+002,7.726678e+000
8.929282e+002,7.022070e+000
8.938924e+002,9.279370e+000
8.948566e+002,1.164999e+001
8.958209e+002,1.304907e+001
8.967851e+002,1.347989e+001
8.977493e+002,1.274456e+001
8.987136e+002,9.584864e+000
8.996778e+002,7.225635e+000
9.006420e+002,7.464728e+000
9.016063e+002,8.587305e+000
9.025705e+002,9.079938e+000
9.035347e+002,8.494672e+000
9.044990e+002,7.439276e+000
9.054632e+002,6.578375e+000
9.064274e+002,5.820831e+000
9.073917e+002,4.956800e+000
9.083559e+002,4.018378e+000
9.093201e+002,3.177948e+000
9.102844e+002,2.596472e+000
9.112486e+002,2.245612e+000
9.122128e+002,1.736560e+000
9.131771e+002,6.289978e-001
9.141413e+002,-2.005005e-002
9.151055e+002,4.725891e-001
9.160698e+002,1.109503e+000
9.170340e+002,6.870667e-001
9.179982e+002,-1.031146e+000
9.189625e+002,-2.659576e+000
9.199267e+002,-2.616797e+000
9.208909e+002,-2.254803e+000
9.218552e+002,-3.012225e+000
9.228194e+002,-4.659778e+000
9.237836e+002,-6.383044e+000
9.247479e+002,-7.549151e+000
9.257121e+002,-8.060681e+000
9.266763e+002,-7.215949e+000
9.276406e+002,-3.842200e+000
9.286048e+002,-1.816754e+000
9.295690e+002,-2.172321e+000
9.305333e+002,-3.601025e+000
9.314975e+002,-4.852820e+000
9.324617e+002,-5.868622e+000
9.334260e+002,-6.370172e+000
9.343902e+002,-5.516321e+000
9.353545e+002,-4.748908e+000
9.363187e+002,-4.759442e+000
9.372830e+002,-5.326166e+000
9.382472e+002,-6.032843e+000
9.392114e+002,-6.584967e+000
9.401757e+002,-6.800775e+000
9.411399e+002,-6.075836e+000
9.421041e+002,-4.615662e+000
9.430684e+002,-3.663532e+000
9.440326e+002,-3.618884e+000
9.449968e+002,-3.876886e+000
9.459611e+002,-3.548834e+000
9.469253e+002,-2.421674e+000
9.478895e+002,-1.674896e+000
9.488538e+002,-1.417224e+000
9.498180e+002,-1.595337e+000
9.507822e+002,-2.897919e+000
9.517465e+002,-4.419592e+000
9.527107e+002,-4.740936e+000
9.536749e+002,-3.249957e+000
9.546392e+002,-1.212305e+000
9.556034e+002,-5.307007e-002
9.565676e+002,5.618531e-001
9.575319e+002,9.923584e-001
9.584961e+002,1.336267e+000
9.594603e+002,1.638019e+000
9.604246e+002,1.905151e+000
9.613888e+002,2.108380e+000
9.623530e+002,2.402917e+000
9.633173e+002,1.999164e+000
9.642815e+002,2.738568e+000
9.652457e+002,4.819763e+000
9.662100e+002,8.291125e+000
9.671742e+002,1.291863e+001
9.681384e+002,1.857763e+001
9.691027e+002,2.635442e+001
9.700669e+002,3.728887e+001
9.710311e+002,5.061399e+001
9.719954e+002,7.012584e+001
9.729596e+002,9.157381e+001
9.739238e+002,1.061837e+002
9.748881e+002,1.079986e+002
9.758523e+002,9.929382e+001
9.768165e+002,8.655192e+001
9.777808e+002,6.849272e+001
9.787450e+002,5.363699e+001
9.797092e+002,4.376927e+001
9.806735e+002,3.666350e+001
9.816377e+002,3.030266e+001
9.826019e+002,2.469128e+001
9.835662e+002,2.060840e+001
9.845304e+002,1.921310e+001
9.854946e+002,1.846537e+001
9.864589e+002,1.789119e+001
9.874231e+002,1.746329e+001
9.883873e+002,1.688421e+001
9.893516e+002,1.616091e+001
9.903158e+002,1.622853e+001
9.912800e+002,1.882195e+001
9.922443e+002,2.345019e+001
9.932085e+002,2.686215e+001
9.941727e+002,2.883919e+001
9.951370e+002,3.132467e+001
9.961012e+002,3.502081e+001
9.970654e+002,4.002768e+001
9.980297e+002,4.817548e+001
9.989939e+002,5.830933e+001
9.999581e+002,7.468446e+001
1.000922e+003,9.144045e+001
1.001887e+003,1.190285e+002
1.002851e+003,1.689974e+002
1.003815e+003,2.389932e+002
1.004779e+003,3.186501e+002
1.005744e+003,4.143504e+002
1.006708e+003,4.893690e+002
1.007672e+003,4.861169e+002
1.008636e+003,4.262267e+002
1.009600e+003,3.504666e+002
1.010565e+003,2.757247e+002
1.011529e+003,2.068211e+002
1.012493e+003,1.548682e+002
1.013457e+003,1.240662e+002
1.014422e+003,9.893242e+001
1.015386e+003,7.967305e+001
1.016350e+003,6.416467e+001
1.017314e+003,5.223875e+001
1.018279e+003,4.318538e+001
1.019243e+003,3.619789e+001
1.020207e+003,3.133879e+001
1.021171e+003,2.723896e+001
1.022135e+003,2.238625e+001
1.023100e+003,1.798146e+001
1.024064e+003,1.540443e+001
1.025028e+003,1.445654e+001
1.025992e+003,1.392794e+001
1.026957e+003,1.274416e+001
1.027921e+003,1.103401e+001
1.028885e+003,9.366046e+000
1.029849e+003,7.585962e+000
1.030814e+003,6.207654e+000
1.031778e+003,5.342371e+000
1.032742e+003,4.711456e+000
1.033706e+003,4.082147e+000
1.034671e+003,3.498865e+000
1.035635e+003,3.226849e+000
1.036599e+003,3.686121e+000
1.037563e+003,4.068298e+000
1.038527e+003,3.876984e+000
1.039492e+003,3.351001e+000
1.040456e+003,2.740247e+000
1.041420e+003,2.197430e+000
1.042384e+003,1.773175e+000
1.043349e+003,1.484741e+000
1.044313e+003,1.385162e+000
1.045277e+003,2.361664e+000
1.046241e+003,4.828162e+000
1.047206e+003,7.004144e+000
1.048170e+003,8.177343e+000
1.049134e+003,8.449188e+000
1.050098e+003,7.900079e+000
1.051063e+003,6.214593e+000
1.052027e+003,4.880768e+000
1.052991e+003,4.089056e+000
1.053955e+003,3.857129e+000
1.054919e+003,4.976587e+000
1.055884e+003,6.593677e+000
1.056848e+003,6.794470e+000
1.057812e+003,4.463049e+000
1.058776e+003,1.247382e+000
1.059741e+003,6.495606e-001
1.060705e+003,2.289246e+000
1.061669e+003,3.573511e+000
1.062633e+003,4.250678e+000
1.063598e+003,4.342676e+000
1.064562e+003,3.570611e+000
1.065526e+003,2.083789e+000
1.066490e+003,1.509119e+000
1.067454e+003,2.578925e+000
1.068419e+003,3.584076e+000
1.069383e+003,3.980591e+000
1.070347e+003,4.187055e+000
1.071311e+003,4.573389e+000
1.072276e+003,5.191217e+000
1.073240e+003,5.897491e+000
1.074204e+003,6.630206e+000
1.075168e+003,7.247022e+000
1.076133e+003,7.431720e+000
1.077097e+003,7.242096e+000
1.078061e+003,6.724951e+000
1.079025e+003,5.839154e+000
1.079990e+003,4.769128e+000
1.080954e+003,3.513831e+000
1.081918e+003,1.859467e+000
1.082882e+003,1.581665e+000
1.083846e+003,4.410083e+000
1.084811e+003,6.679504e+000
1.085775e+003,7.593042e+000
1.086739e+003,7.644244e+000
1.087703e+003,7.208234e+000
1.088668e+003,6.533612e+000
1.089632e+003,6.117896e+000
1.090596e+003,6.440442e+000
1.091560e+003,7.110376e+000
1.092525e+003,7.419037e+000
1.093489e+003,7.381287e+000
1.094453e+003,7.107306e+000
1.095417e+003,6.636255e+000
1.096381e+003,6.087042e+000
1.097346e+003,5.616815e+000
1.098310e+003,5.114490e+000
1.099274e+003,5.095825e+000
1.100238e+003,6.304297e+000
1.101203e+003,7.116651e+000
1.102167e+003,6.520837e+000
1.103131e+003,5.456317e+000
1.104095e+003,5.340075e+000
1.105060e+003,6.497229e+000
1.106024e+003,7.660364e+000
1.106988e+003,7.513361e+000
1.107952e+003,7.045270e+000
1.108917e+003,8.237024e+000
1.109881e+003,1.053720e+001
1.110845e+003,1.146231e+001
1.111809e+003,9.505755e+000
1.112773e+003,6.177008e+000
1.113738e+003,5.277521e+000
1.114702e+003,8.195002e+000
1.115666e+003,9.692835e+000
1.116630e+003,8.691278e+000
1.117595e+003,7.759985e+000
1.118559e+003,7.911878e+000
1.119523e+003,8.624640e+000
1.120487e+003,8.829687e+000
1.121452e+003,8.268176e+000
1.122416e+003,8.311701e+000
1.123380e+003,1.085408e+001
1.124344e+003,1.397692e+001
1.125308e+003,1.500687e+001
1.126273e+003,1.430593e+001
1.127237e+003,1.336918e+001
1.128201e+003,1.298163e+001
1.129165e+003,1.292686e+001
1.130130e+003,1.272612e+001
1.131094e+003,1.236188e+001
1.132058e+003,1.169617e+001
1.133022e+003,9.910993e+000
1.133987e+003,8.913458e+000
1.134951e+003,1.011545e+001
1.135915e+003,1.218261e+001
1.136879e+003,1.305015e+001
1.137844e+003,1.222070e+001
1.138808e+003,1.118870e+001
1.139772e+003,1.094469e+001
1.140736e+003,1.126543e+001
1.141700e+003,1.209260e+001
1.142665e+003,1.326620e+001
1.143629e+003,1.429383e+001
1.144593e+003,1.496058e+001
1.145557e+003,1.523871e+001
1.146522e+003,1.482163e+001
1.147486e+003,1.305335e+001
1.148450e+003,1.296652e+001
1.149414e+003,1.658047e+001
1.150379e+003,1.930754e+001
1.151343e+003,1.960764e+001
1.152307e+003,1.866252e+001
1.153271e+003,1.759935e+001
1.154235e+003,1.671654e+001
1.155200e+003,1.633238e+001
1.156164e+003,1.697625e+001
1.157128e+003,1.803569e+001
1.158092e+003,1.843115e+001
1.159057e+003,1.843525e+001
1.160021e+003,1.875584e+001
1.160985e+003,1.964236e+001
1.161949e+003,2.084037e+001
1.162914e+003,2.205873e+001
1.163878e+003,2.337317e+001
1.164842e+003,2.439130e+001
1.165806e+003,2.527567e+001
1.166771e+003,2.550946e+001
1.167735e+003,2.419057e+001
1.168699e+003,2.283272e+001
1.169663e+003,2.287609e+001
1.170627e+003,2.430002e+001
1.171592e+003,2.607725e+001
1.172556e+003,2.774174e+001
1.173520e+003,2.914252e+001
1.174484e+003,2.960693e+001
1.175449e+003,2.968393e+001
1.176413e+003,3.059875e+001
1.177377e+003,3.260951e+001
1.178341e+003,3.493630e+001
1.179306e+003,3.695167e+001
1.180270e+003,3.866283e+001
1.181234e+003,3.967482e+001
1.182198e+003,3.928343e+001
1.183162e+003,3.930453e+001
1.184127e+003,4.048089e+001
1.185091e+003,4.148641e+001
1.186055e+003,4.156997e+001
1.187019e+003,4.090110e+001
1.187984e+003,3.991275e+001
1.188948e+003,3.875611e+001
1.189912e+003,3.751708e+001
1.190876e+003,3.636189e+001
1.191841e+003,3.524576e+001
1.192805e+003,3.393452e+001
1.193769e+003,3.243450e+001
1.194733e+003,3.115972e+001
1.195698e+003,3.020465e+001
1.196662e+003,2.972697e+001
1.197626e+003,3.042343e+001
1.198590e+003,3.289509e+001
1.199554e+003,3.427100e+001
1.200519e+003,3.308622e+001
1.201483e+003,3.220532e+001
1.202447e+003,3.320889e+001
1.203411e+003,3.467958e+001
1.204376e+003,3.452138e+001
1.205340e+003,3.236917e+001
1.206304e+003,2.988128e+001
1.207268e+003,2.863146e+001
1.208233e+003,2.836915e+001
1.209197e+003,2.796531e+001
1.210161e+003,2.740174e+001
1.211125e+003,2.745511e+001
1.212089e+003,2.874420e+001
1.213054e+003,2.985555e+001
1.214018e+003,2.885137e+001
1.214982e+003,2.604501e+001
1.215946e+003,2.463359e+001
1.216911e+003,2.511130e+001
1.217875e+003,2.663675e+001
1.218839e+003,3.028492e+001
1.219803e+003,3.338816e+001
1.220768e+003,3.375803e+001
1.221732e+003,3.199219e+001
1.222696e+003,2.968006e+001
1.223660e+003,2.779264e+001
1.224625e+003,2.683889e+001
1.225589e+003,2.800721e+001
1.226553e+003,3.129189e+001
1.227517e+003,3.289476e+001
1.228481e+003,3.217086e+001
1.229446e+003,3.161285e+001
1.230410e+003,3.266644e+001
1.231374e+003,3.436361e+001
1.232338e+003,3.505442e+001
1.233303e+003,3.462282e+001
1.234267e+003,3.427275e+001
1.235231e+003,3.472861e+001
1.236195e+003,3.483585e+001
1.237160e+003,3.334887e+001
1.238124e+003,3.144304e+001
1.239088e+003,3.062936e+001
1.240052e+003,3.118313e+001
1.241016e+003,3.243679e+001
1.241981e+003,3.376714e+001
1.242945e+003,3.499397e+001
1.243909e+003,3.530485e+001
1.244873e+003,3.423049e+001
1.245838e+003,3.341515e+001
1.246802e+003,3.288364e+001
1.247766e+003,3.254076e+001
1.248730e+003,3.205325e+001
1.249695e+003,3.177142e+001
1.250659e+003,3.281748e+001
1.251623e+003,3.561058e+001
1.252587e+003,3.779224e+001
1.253552e+003,3.734752e+001
1.254516e+003,3.589511e+001
1.255480e+003,3.497318e+001
1.256444e+003,3.441460e+001
1.257408e+003,3.367746e+001
1.258373e+003,3.256593e+001
1.259337e+003,3.139824e+001
1.260301e+003,3.058040e+001
1.261265e+003,3.013891e+001
1.262230e+003,3.030676e+001
1.263194e+003,3.125409e+001
1.264158e+003,3.241093e+001
1.265122e+003,3.416352e+001
1.266087e+003,3.574454e+001
1.267051e+003,3.669551e+001
1.268015e+003,3.710421e+001
1.268979e+003,3.722598e+001
1.269943e+003,3.714289e+001
1.270908e+003,3.691700e+001
1.271872e+003,3.628080e+001
1.272836e+003,3.580624e+001
1.273800e+003,3.726841e+001
1.274765e+003,4.045256e+001
1.275729e+003,4.230155e+001
1.276693e+003,4.097034e+001
1.277657e+003,3.840593e+001
1.278622e+003,3.755761e+001
1.279586e+003,3.848021e+001
1.280550e+003,3.963743e+001
1.281514e+003,4.200499e+001
1.282479e+003,4.303110e+001
1.283443e+003,4.050877e+001
1.284407e+003,3.782034e+001
1.285371e+003,3.802711e+001
1.286335e+003,4.031173e+001
1.287300e+003,4.171029e+001
1.288264e+003,4.073586e+001
1.289228e+003,3.900637e+001
1.290192e+003,3.898307e+001
1.291157e+003,4.062725e+001
1.292121e+003,4.237854e+001
1.293085e+003,4.439654e+001
1.294049e+003,4.572625e+001
1.295014e+003,4.573726e+001
1.295978e+003,4.529251e+001
1.296942e+003,4.526552e+001
1.297906e+003,4.570704e+001
1.298870e+003,4.662489e+001
1.299835e+003,4.826631e+001
1.300799e+003,4.955996e+001
1.301763e+003,4.998697e+001
1.302727e+003,4.964230e+001
1.303692e+003,4.808588e+001
1.304656e+003,4.591784e+001
1.305620e+003,4.468059e+001
1.306584e+003,4.521412e+001
1.307549e+003,4.668488e+001
1.308513e+003,4.753227e+001
1.309477e+003,4.760445e+001
1.310441e+003,4.787880e+001
1.311406e+003,4.876508e+001
1.312370e+003,4.939705e+001
1.313334e+003,4.920527e+001
1.314298e+003,4.911634e+001
1.315263e+003,5.020620e+001
1.316227e+003,5.211890e+001
1.317191e+003,5.351888e+001
1.318155e+003,5.383157e+001
1.319120e+003,5.355444e+001
1.320084e+003,5.302834e+001
1.321048e+003,5.236045e+001
1.322012e+003,5.188056e+001
1.322976e+003,5.156855e+001
1.323941e+003,5.107927e+001
1.324905e+003,5.006452e+001
1.325869e+003,4.933318e+001
1.326833e+003,5.036415e+001
1.327798e+003,5.310939e+001
1.328762e+003,5.488420e+001
1.329726e+003,5.513328e+001
1.330690e+003,5.491235e+001
1.331655e+003,5.438078e+001
1.332619e+003,5.373960e+001
1.333583e+003,5.280286e+001
1.334547e+003,5.194663e+001
1.335511e+003,5.194510e+001
1.336476e+003,5.302561e+001
1.337440e+003,5.444642e+001
1.338404e+003,5.534628e+001
1.339368e+003,5.574209e+001
1.340333e+003,5.538135e+001
1.341297e+003,5.388255e+001
1.342261e+003,5.264725e+001
1.343225e+003,5.198273e+001
1.344190e+003,5.150621e+001
1.345154e+003,5.084803e+001
1.346118e+003,5.020246e+001
1.347082e+003,5.010356e+001
1.348047e+003,5.067501e+001
1.349011e+003,5.127305e+001
1.349975e+003,5.139647e+001
1.350939e+003,5.159398e+001
1.351903e+003,5.240783e+001
1.352868e+003,5.367336e+001
1.353832e+003,5.531558e+001
1.354796e+003,5.725035e+001
1.355760e+003,5.859055e+001
1.356725e+003,5.841032e+001
1.357689e+003,5.700866e+001
1.358653e+003,5.557777e+001
1.359617e+003,5.376128e+001
1.360582e+003,5.296525e+001
1.361546e+003,5.369629e+001
1.362510e+003,5.489837e+001
1.363474e+003,5.696344e+001
1.364438e+003,5.900686e+001
1.365403e+003,5.987966e+001
1.366367e+003,5.960261e+001
1.367331e+003,5.918535e+001
1.368295e+003,5.930149e+001
1.369260e+003,5.961310e+001
1.370224e+003,5.957793e+001
1.371188e+003,5.929259e+001
1.372152e+003,5.880678e+001
1.373117e+003,5.756891e+001
1.374081e+003,5.716105e+001
1.375045e+003,5.887656e+001
1.376009e+003,6.114476e+001
1.376974e+003,6.225872e+001
1.377938e+003,6.234174e+001
1.378902e+003,6.227340e+001
1.379866e+003,6.220614e+001
1.380830e+003,6.204093e+001
1.381795e+003,6.154691e+001
1.382759e+003,6.106959e+001
1.383723e+003,6.096693e+001
1.384687e+003,6.122273e+001
1.385652e+003,6.164909e+001
1.386616e+003,6.216270e+001
1.387580e+003,6.282935e+001
1.388544e+003,6.380353e+001
1.389509e+003,6.495412e+001
1.390473e+003,6.540379e+001
1.391437e+003,6.494792e+001
1.392401e+003,6.448569e+001
1.393365e+003,6.330523e+001
1.394330e+003,6.291205e+001
1.395294e+003,6.480354e+001
1.396258e+003,6.721188e+001
1.397222e+003,6.775995e+001
1.398187e+003,6.656958e+001
1.399151e+003,6.601759e+001
1.400115e+003,6.769160e+001
1.401079e+003,7.007622e+001
1.402044e+003,7.030917e+001
1.403008e+003,6.835764e+001
1.403972e+003,6.745827e+001
1.404936e+003,6.806950e+001
1.405901e+003,6.872160e+001
1.406865e+003,6.869180e+001
1.407829e+003,6.862254e+001
1.408793e+003,6.942669e+001
1.409757e+003,7.089666e+001
1.410722e+003,7.178937e+001
1.411686e+003,7.160026e+001
1.412650e+003,7.125848e+001
1.413614e+003,7.133103e+001
1.414579e+003,7.184863e+001
1.415543e+003,7.297046e+001
1.416507e+003,7.453450e+001
1.417471e+003,7.628032e+001
1.418436e+003,7.806118e+001
1.419400e+003,7.885069e+001
1.420364e+003,7.722585e+001
1.421328e+003,7.411104e+001
1.422292e+003,7.343462e+001
1.423257e+003,7.610376e+001
1.424221e+003,7.752385e+001
1.425185e+003,7.533055e+001
1.426149e+003,7.375835e+001
1.427114e+003,7.439872e+001
1.428078e+003,7.618794e+001
1.429042e+003,7.836989e+001
1.430006e+003,8.047485e+001
1.430971e+003,8.212825e+001
1.431935e+003,8.311995e+001
1.432899e+003,8.313385e+001
1.433863e+003,8.157175e+001
1.434828e+003,7.874303e+001
1.435792e+003,7.803769e+001
1.436756e+003,8.075809e+001
1.437720e+003,8.233529e+001
1.438684e+003,8.163422e+001
1.439649e+003,8.097678e+001
1.440613e+003,8.185149e+001
1.441577e+003,8.358025e+001
1.442541e+003,8.515112e+001
1.443506e+003,8.620091e+001
1.444470e+003,8.612128e+001
1.445434e+003,8.437740e+001
1.446398e+003,8.234930e+001
1.447363e+003,8.182425e+001
1.448327e+003,8.240188e+001
1.449291e+003,8.306709e+001
1.450255e+003,8.375959e+001
1.451219e+003,8.546117e+001
1.452184e+003,8.955229e+001
1.453148e+003,9.369873e+001
1.454112e+003,9.445265e+001
1.455076e+003,9.239706e+001
1.456041e+003,9.133816e+001
1.457005e+003,9.206154e+001
1.457969e+003,9.283595e+001
1.458933e+003,9.277184e+001
1.459898e+003,9.266833e+001
1.460862e+003,9.292827e+001
1.461826e+003,9.343507e+001
1.462790e+003,9.412034e+001
1.463755e+003,9.490143e+001
1.464719e+003,9.553243e+001
1.465683e+003,9.583824e+001
1.466647e+003,9.599367e+001
1.467611e+003,9.645094e+001
1.468576e+003,9.733594e+001
1.469540e+003,9.720535e+001
1.470504e+003,9.447418e+001
1.471468e+003,9.336120e+001
1.472433e+003,9.602742e+001
1.473397e+003,9.869795e+001
1.474361e+003,9.910531e+001
1.475325e+003,9.791508e+001
1.476290e+003,9.599886e+001
1.477254e+003,9.394060e+001
1.478218e+003,9.273543e+001
1.479182e+003,9.324784e+001
1.480146e+003,9.486983e+001
1.481111e+003,9.619121e+001
1.482075e+003,9.716439e+001
1.483039e+003,9.765187e+001
1.484003e+003,9.731719e+001
1.484968e+003,9.707550e+001
1.485932e+003,9.761946e+001
1.486896e+003,9.807766e+001
1.487860e+003,9.758079e+001
1.488825e+003,9.627448e+001
1.489789e+003,9.437650e+001
1.490753e+003,9.208899e+001
1.491717e+003,9.110782e+001
1.492682e+003,9.311406e+001
1.493646e+003,9.587315e+001
1.494610e+003,9.469699e+001
1.495574e+003,9.120688e+001
1.496538e+003,9.141777e+001
1.497503e+003,9.666480e+001
1.498467e+003,1.002797e+002
1.499431e+003,9.707646e+001
1.500395e+003,9.182494e+001
1.501360e+003,9.117094e+001
1.502324e+003,9.411628e+001
1.503288e+003,9.521800e+001
1.504252e+003,9.316010e+001
1.505217e+003,9.126337e+001
1.506181e+003,9.144534e+001
1.507145e+003,9.200533e+001
1.508109e+003,9.105885e+001
1.509073e+003,8.976630e+001
1.510038e+003,9.038759e+001
1.511002e+003,9.293727e+001
1.511966e+003,9.503999e+001
1.512930e+003,9.530022e+001
1.513895e+003,9.424101e+001
1.514859e+003,9.190479e+001
1.515823e+003,8.825842e+001
1.516787e+003,8.788159e+001
1.517752e+003,9.299762e+001
1.518716e+003,9.630737e+001
1.519680e+003,9.437443e+001
1.520644e+003,9.188612e+001
1.521609e+003,9.077192e+001
1.522573e+003,9.034105e+001
1.523537e+003,8.975112e+001
1.524501e+003,8.894646e+001
1.525465e+003,8.820009e+001
1.526430e+003,8.761794e+001
1.527394e+003,8.716965e+001
1.528358e+003,8.689720e+001
1.529322e+003,8.682162e+001
1.530287e+003,8.701005e+001
1.531251e+003,8.797515e+001
1.532215e+003,8.833409e+001
1.533179e+003,8.736842e+001
1.534144e+003,8.661168e+001
1.535108e+003,8.711964e+001
1.536072e+003,8.774133e+001
1.537036e+003,8.711652e+001
1.538000e+003,8.547059e+001
1.538965e+003,8.378731e+001
1.539929e+003,8.253944e+001
1.540893e+003,8.185368e+001
1.541857e+003,8.198375e+001
1.542822e+003,8.277896e+001
1.543786e+003,8.328886e+001
1.544750e+003,8.349418e+001
1.545714e+003,8.304238e+001
1.546679e+003,8.071456e+001
1.547643e+003,7.931239e+001
1.548607e+003,8.129280e+001
1.549571e+003,8.342017e+001
1.550536e+003,8.122949e+001
1.551500e+003,7.650805e+001
1.552464e+003,7.516161e+001
1.553428e+003,7.882038e+001
1.554392e+003,8.309929e+001
1.555357e+003,8.460207e+001
1.556321e+003,8.400719e+001
1.557285e+003,8.226678e+001
1.558249e+003,7.957816e+001
1.559214e+003,7.843315e+001
1.560178e+003,7.978700e+001
1.561142e+003,8.015623e+001
1.562106e+003,7.705845e+001
1.563071e+003,7.363161e+001
1.564035e+003,7.330437e+001
1.564999e+003,7.475130e+001
1.565963e+003,7.413699e+001
1.566927e+003,7.098180e+001
1.567892e+003,6.897611e+001
1.568856e+003,7.017824e+001
1.569820e+003,7.249583e+001
1.570784e+003,7.396592e+001
1.571749e+003,7.456731e+001
1.572713e+003,7.418015e+001
1.573677e+003,7.288805e+001
1.574641e+003,7.168297e+001
1.575606e+003,7.071056e+001
1.576570e+003,7.002488e+001
1.577534e+003,7.034930e+001
1.578498e+003,7.078004e+001
1.579463e+003,6.897307e+001
1.580427e+003,6.507050e+001
1.581391e+003,6.249773e+001
1.582355e+003,6.230000e+001
1.583319e+003,6.329149e+001
1.584284e+003,6.582803e+001
1.585248e+003,6.814746e+001
1.586212e+003,6.792765e+001
1.587176e+003,6.558339e+001
1.588141e+003,6.205656e+001
1.589105e+003,5.759214e+001
1.590069e+003,5.444662e+001
1.591033e+003,5.455640e+001
1.591998e+003,5.598690e+001
1.592962e+003,5.600823e+001
1.593926e+003,5.483514e+001
1.594890e+003,5.358073e+001
1.595854e+003,5.228680e+001
1.596819e+003,5.177699e+001
1.597783e+003,5.307063e+001
1.598747e+003,5.396324e+001
1.599711e+003,5.229543e+001
1.600676e+003,4.964954e+001
1.601640e+003,4.767686e+001
1.602604e+003,4.662900e+001
1.603568e+003,4.670654e+001
1.604533e+003,4.804353e+001
1.605497e+003,4.923658e+001
1.606461e+003,4.855054e+001
1.607425e+003,4.686808e+001
1.608390e+003,4.700667e+001
1.609354e+003,4.910010e+001
1.610318e+003,4.971292e+001
1.611282e+003,4.755019e+001
1.612246e+003,4.551512e+001
1.613211e+003,4.553378e+001
1.614175e+003,4.555847e+001
1.615139e+003,4.378756e+001
1.616103e+003,4.134788e+001
1.617068e+003,4.029363e+001
1.618032e+003,4.071554e+001
1.618996e+003,4.087611e+001
1.619960e+003,3.976470e+001
1.620925e+003,3.788039e+001
1.621889e+003,3.564674e+001
1.622853e+003,3.326380e+001
1.623817e+003,3.186400e+001
1.624781e+003,3.163478e+001
1.625746e+003,3.159210e+001
1.626710e+003,3.160693e+001
1.627674e+003,3.154422e+001
1.628638e+003,3.109578e+001
1.629603e+003,3.064761e+001
1.630567e+003,3.098405e+001
1.631531e+003,3.152306e+001
1.632495e+003,3.069181e+001
1.633460e+003,2.835638e+001
1.634424e+003,2.657341e+001
1.635388e+003,2.694702e+001
1.636352e+003,2.818265e+001
1.637317e+003,2.791840e+001
1.638281e+003,2.625342e+001
1.639245e+003,2.483304e+001
1.640209e+003,2.365373e+001
1.641173e+003,2.282272e+001
1.642138e+003,2.247950e+001
1.643102e+003,2.243589e+001
1.644066e+003,2.321631e+001
1.645030e+003,2.370667e+001
1.645995e+003,2.230482e+001
1.646959e+003,1.974553e+001
1.647923e+003,1.819601e+001
1.648887e+003,1.827649e+001
1.649852e+003,1.847524e+001
1.650816e+003,1.739884e+001
1.651780e+003,1.595571e+001
1.652744e+003,1.634929e+001
1.653708e+003,1.848367e+001
1.654673e+003,1.952222e+001
1.655637e+003,1.909108e+001
1.656601e+003,1.837106e+001
1.657565e+003,1.741929e+001
1.658530e+003,1.666455e+001
1.659494e+003,1.647345e+001
1.660458e+003,1.645287e+001
1.661422e+003,1.623972e+001
1.662387e+003,1.581485e+001
1.663351e+003,1.528157e+001
1.664315e+003,1.467909e+001
1.665279e+003,1.390113e+001
1.666244e+003,1.279848e+001
1.667208e+003,1.158051e+001
1.668172e+003,1.059365e+001
1.669136e+003,9.824072e+000
1.670100e+003,9.390512e+000
1.671065e+003,9.403437e+000
1.672029e+003,9.265009e+000
1.672993e+003,8.686478e+000
1.673957e+003,8.156878e+000
1.674922e+003,8.066693e+000
1.675886e+003,8.077478e+000
1.676850e+003,7.909167e+000
1.677814e+003,7.502734e+000
1.678779e+003,6.581995e+000
1.679743e+003,5.052478e+000
1.680707e+003,4.159961e+000
1.681671e+003,5.424448e+000
1.682635e+003,7.267001e+000
1.683600e+003,6.450311e+000
1.684564e+003,3.567752e+000
1.685528e+003,2.546039e+000
1.686492e+003,4.019705e+000
1.687457e+003,4.775088e+000
1.688421e+003,3.203119e+000
1.689385e+003,1.699725e+000
1.690349e+003,2.632684e+000
1.691314e+003,4.348608e+000
1.692278e+003,5.106183e+000
1.693242e+003,4.891479e+000
1.694206e+003,3.940259e+000
1.695171e+003,2.238342e+000
1.696135e+003,6.820282e-001
1.697099e+003,-1.459167e-001
1.698063e+003,-5.613312e-001
1.699027e+003,-8.739716e-001
1.699992e+003,-1.103339e+000
1.700956e+003,-1.429645e+000
1.701920e+003,-1.870831e+000
1.702884e+003,-1.945364e+000
1.703849e+003,-1.357251e+000
1.704813e+003,-8.940827e-001
1.705777e+003,-1.183002e+000
1.706741e+003,-1.920407e+000
1.707706e+003,-2.677954e+000
1.708670e+003,-3.424899e+000
1.709634e+003,-4.257233e+000
1.710598e+003,-5.358200e+000
1.711563e+003,-5.558688e+000
1.712527e+003,-3.561072e+000
1.713491e+003,-1.368240e+000
1.714455e+003,-6.713532e-001
1.715419e+003,-8.241638e-001
1.716384e+003,-5.604187e-001
1.717348e+003,-2.331543e-003
1.718312e+003,-4.755829e-001
1.719276e+003,-2.401572e+000
1.720241e+003,-4.486814e+000
1.721205e+003,-5.937332e+000
1.722169e+003,-6.686984e+000
1.723133e+003,-6.452576e+000
1.724098e+003,-5.343985e+000
1.725062e+003,-4.413022e+000
1.726026e+003,-3.565347e+000
1.726990e+003,-3.389172e+000
1.727954e+003,-4.605951e+000
1.728919e+003,-5.703409e+000
1.729883e+003,-6.003302e+000
1.730847e+003,-5.844367e+000
1.731811e+003,-5.182428e+000
1.732776e+003,-4.489630e+000
1.733740e+003,-5.016739e+000
1.734704e+003,-6.700827e+000
1.735668e+003,-7.552289e+000
1.736633e+003,-6.429099e+000
1.737597e+003,-4.881400e+000
1.738561e+003,-4.949860e+000
1.739525e+003,-6.260010e+000
1.740490e+003,-7.162494e+000
1.741454e+003,-7.707614e+000
1.742418e+003,-7.724957e+000
1.743382e+003,-6.715277e+000
1.744346e+003,-5.975952e+000
1.745311e+003,-5.491214e+000
1.746275e+003,-5.577689e+000
1.747239e+003,-7.027725e+000
1.748203e+003,-8.706326e+000
1.749168e+003,-9.322888e+000
1.750132e+003,-8.828937e+000
1.751096e+003,-7.526831e+000
1.752060e+003,-5.735910e+000
1.753025e+003,-4.295148e+000
1.753989e+003,-3.976196e+000
1.754953e+003,-4.503677e+000
1.755917e+003,-5.366321e+000
1.756881e+003,-6.581159e+000
1.757846e+003,-7.352280e+000
1.758810e+003,-7.460025e+000
1.759774e+003,-7.675031e+000
1.760738e+003,-8.509381e+000
1.761703e+003,-8.968036e+000
1.762667e+003,-8.045154e+000
1.763631e+003,-7.228473e+000
1.764595e+003,-7.901071e+000
1.765560e+003,-9.433225e+000
1.766524e+003,-1.075584e+001
1.767488e+003,-1.161915e+001
1.768452e+003,-1.202567e+001
1.769417e+003,-1.192821e+001
1.770381e+003,-1.163436e+001
1.771345e+003,-1.148313e+001
1.772309e+003,-1.142195e+001
1.773273e+003,-1.131070e+001
1.774238e+003,-1.116626e+001
1.775202e+003,-1.104647e+001
1.776166e+003,-1.095701e+001
1.777130e+003,-1.075212e+001
1.778095e+003,-1.018428e+001
1.779059e+003,-9.870148e+000
1.780023e+003,-1.073986e+001
1.780987e+003,-1.193786e+001
1.781952e+003,-1.191330e+001
1.782916e+003,-1.093654e+001
1.783880e+003,-1.027491e+001
1.784844e+003,-1.007371e+001
1.785808e+003,-1.026891e+001
1.786773e+003,-1.138542e+001
1.787737e+003,-1.226644e+001
1.788701e+003,-1.174311e+001
1.789665e+003,-1.062321e+001
1.790630e+003,-9.902460e+000
1.791594e+003,-9.708673e+000
1.792558e+003,-1.013074e+001
1.793522e+003,-1.113557e+001
1.794487e+003,-1.236895e+001
1.795451e+003,-1.366245e+001
1.796415e+003,-1.416398e+001
1.797379e+003,-1.250647e+001
1.798344e+003,-9.344403e+000
1.799308e+003,-7.854376e+000
1.800272e+003,-8.561560e+000
1.801236e+003,-9.034409e+000
1.802201e+003,-8.744797e+000
1.803165e+003,-8.964526e+000
1.804129e+003,-1.056551e+001
1.805093e+003,-1.190927e+001
1.806057e+003,-1.193783e+001
1.807022e+003,-1.139917e+001
1.807986e+003,-1.122540e+001
1.808950e+003,-1.125762e+001
1.809914e+003,-1.065088e+001
1.810879e+003,-9.311316e+000
1.811843e+003,-8.191278e+000
1.812807e+003,-8.006912e+000
1.813771e+003,-8.432370e+000
1.814736e+003,-9.080429e+000
1.815700e+003,-9.809216e+000
1.816664e+003,-9.692157e+000
1.817628e+003,-8.577991e+000
1.818593e+003,-8.299210e+000
1.819557e+003,-9.280255e+000
1.820521e+003,-1.036788e+001
1.821485e+003,-1.141456e+001
1.822449e+003,-1.211968e+001
1.823414e+003,-1.226115e+001
1.824378e+003,-1.199767e+001
1.825342e+003,-1.128655e+001
1.826306e+003,-1.029017e+001
1.827271e+003,-9.601196e+000
1.828235e+003,-9.359241e+000
1.829199e+003,-9.356256e+000
1.830163e+003,-9.456922e+000
1.831128e+003,-9.768911e+000
1.832092e+003,-1.086862e+001
1.833056e+003,-1.195137e+001
1.834020e+003,-1.141669e+001
1.834984e+003,-9.738968e+000
1.835949e+003,-8.755301e+000
1.836913e+003,-8.798480e+000
1.837877e+003,-8.926432e+000
1.838841e+003,-8.662839e+000
1.839806e+003,-7.997977e+000
1.840770e+003,-6.741446e+000
1.841734e+003,-5.528961e+000
1.842698e+003,-6.465402e+000
1.843663e+003,-9.959488e+000
1.844627e+003,-1.159670e+001
1.845591e+003,-1.007026e+001
1.846555e+003,-8.734515e+000
1.847520e+003,-7.530332e+000
1.848484e+003,-6.784485e+000
1.849448e+003,-6.760785e+000
1.850412e+003,-7.035614e+000
1.851376e+003,-7.404416e+000
1.852341e+003,-7.763776e+000
1.853305e+003,-8.097455e+000
1.854269e+003,-8.346466e+000
1.855233e+003,-8.254089e+000
1.856198e+003,-7.703937e+000
1.857162e+003,-7.119607e+000
1.858126e+003,-6.899896e+000
1.859090e+003,-6.966379e+000
1.860055e+003,-7.352075e+000
1.861019e+003,-7.971335e+000
1.861983e+003,-8.008041e+000
1.862947e+003,-7.385242e+000
1.863911e+003,-7.178744e+000
1.864876e+003,-7.779279e+000
1.865840e+003,-8.073959e+000
1.866804e+003,-7.256543e+000
1.867768e+003,-6.241843e+000
1.868733e+003,-6.308469e+000
1.869697e+003,-6.923056e+000
1.870661e+003,-6.269662e+000
1.871625e+003,-4.337683e+000
1.872590e+003,-3.318927e+000
1.873554e+003,-3.823654e+000
1.874518e+003,-4.447623e+000
1.875482e+003,-4.726904e+000
1.876447e+003,-5.087637e+000
1.877411e+003,-6.371078e+000
1.878375e+003,-7.383636e+000
1.879339e+003,-6.123422e+000
1.880303e+003,-3.765289e+000
1.881268e+003,-3.230335e+000
1.882232e+003,-4.722672e+000
1.883196e+003,-5.760046e+000
1.884160e+003,-5.008978e+000
1.885125e+003,-3.623483e+000
1.886089e+003,-2.895807e+000
1.887053e+003,-2.648914e+000
1.888017e+003,-2.283630e+000
1.888982e+003,-1.778635e+000
1.889946e+003,-2.025513e+000
1.890910e+003,-3.216000e+000
1.891874e+003,-4.175705e+000
1.892839e+003,-4.723724e+000
1.893803e+003,-5.014990e+000
1.894767e+003,-5.228128e+000
1.895731e+003,-5.037326e+000
1.896695e+003,-3.582663e+000
1.897660e+003,-1.828662e+000
1.898624e+003,-1.672974e+000
1.899588e+003,-2.933511e+000
1.900552e+003,-3.542401e+000
1.901517e+003,-3.024558e+000
1.902481e+003,-2.267700e+000
1.903445e+003,-1.166373e+000
1.904409e+003,-4.456848e-001
1.905374e+003,-9.284973e-001
1.906338e+003,-1.720724e+000
1.907302e+003,-1.741156e+000
1.908266e+003,-1.316415e+000
1.909230e+003,-1.177039e+000
1.910195e+003,-1.484747e+000
1.911159e+003,-2.259485e+000
1.912123e+003,-3.406656e+000
1.913087e+003,-4.188538e+000
1.914052e+003,-3.895257e+000
1.915016e+003,-3.054996e+000
1.915980e+003,-2.723459e+000
1.916944e+003,-2.865247e+000
1.917909e+003,-3.147977e+000
1.918873e+003,-3.671902e+000
1.919837e+003,-3.517145e+000
1.920801e+003,-2.083429e+000
1.921766e+003,-1.445764e+000
1.922730e+003,-2.877176e+000
1.923694e+003,-4.529291e+000
1.924658e+003,-5.344705e+000
1.925622e+003,-5.414090e+000
1.926587e+003,-4.409811e+000
1.927551e+003,-2.751083e+000
1.928515e+003,-1.864096e+000
1.929479e+003,-1.919025e+000
1.930444e+003,-2.481836e+000
1.931408e+003,-4.195783e+000
1.932372e+003,-5.260269e+000
1.933336e+003,-4.333753e+000
1.934301e+003,-2.957144e+000
1.935265e+003,-2.263849e+000
1.936229e+003,-2.003763e+000
1.937193e+003,-1.844360e+000
1.938157e+003,-1.696869e+000
1.939122e+003,-1.376404e+000
1.940086e+003,-9.386566e-001
1.941050e+003,-9.754761e-001
1.942014e+003,-1.835413e+000
1.942979e+003,-2.875595e+000
1.943943e+003,-3.311835e+000
1.944907e+003,-3.265253e+000
1.945871e+003,-3.073419e+000
1.946836e+003,-2.713840e+000
1.947800e+003,-1.932214e+000
1.948764e+003,-6.200256e-001
1.949728e+003,-3.849518e-001
1.950693e+003,-1.918167e+000
1.951657e+003,-3.221188e+000
1.952621e+003,-3.324820e+000
1.953585e+003,-2.746780e+000
1.954549e+003,-1.596146e+000
1.955514e+003,-3.844727e-001
1.956478e+003,-4.739197e-001
1.957442e+003,-1.745871e+000
1.958406e+003,-2.249027e+000
1.959371e+003,-1.587799e+000
1.960335e+003,-1.186926e+000
1.961299e+003,-1.814377e+000
1.962263e+003,-1.884283e+000
1.963228e+003,8.601685e-002
1.964192e+003,1.747287e+000
1.965156e+003,8.550262e-001
1.966120e+003,-8.830872e-001
1.967084e+003,-1.316190e+000
1.968049e+003,-5.125183e-001
1.969013e+003,6.657623e-001
1.969977e+003,1.840469e+000
1.970941e+003,2.825815e+000
1.971906e+003,3.549704e+000
1.972870e+003,3.706403e+000
1.973834e+003,2.675266e+000
1.974798e+003,1.166479e+000
1.975763e+003,3.815002e-001
1.976727e+003,1.038300e-001
1.977691e+003,-3.195984e-001
1.978655e+003,-8.696106e-001
1.979620e+003,-9.332581e-001
1.980584e+003,-3.745209e-001
1.981548e+003,7.012940e-003
1.982512e+003,-2.480042e-001
1.983476e+003,-6.462677e-001
1.984441e+003,-6.668549e-001
1.985405e+003,-4.463074e-001
1.986369e+003,-3.165222e-001
1.987333e+003,-2.489685e-001
1.988298e+003,8.772583e-002
1.989262e+003,6.296539e-001
1.990226e+003,1.524457e+000
1.991190e+003,3.177350e+000
1.992155e+003,4.479507e+000
1.993119e+003,5.432709e+000
1.994083e+003,5.658957e+000
1.995047e+003,4.436145e+000
1.996011e+003,2.792197e+000
1.996976e+003,1.688657e+000
1.997940e+003,1.070508e+000
1.998904e+003,7.086395e-001
1.999868e+003,5.751709e-001
2.000833e+003,6.107849e-001
2.001797e+003,7.438965e-001
2.002761e+003,1.136276e+000
2.003725e+003,2.115332e+000
2.004690e+003,3.068173e+000
2.005654e+003,3.554144e+000
2.006618e+003,3.857047e+000
2.007582e+003,4.649798e+000
2.008547e+003,5.303436e+000
2.009511e+003,4.222659e+000
2.010475e+003,1.929663e+000
2.011439e+003,7.691132e-001
2.012403e+003,1.472015e+000
2.013368e+003,2.710519e+000
2.014332e+003,3.600253e+000
2.015296e+003,4.015811e+000
2.016260e+003,3.499304e+000
2.017225e+003,2.592001e+000
2.018189e+003,2.661630e+000
2.019153e+003,3.431772e+000
2.020117e+003,3.834888e+000
2.021082e+003,3.794656e+000
2.022046e+003,3.674310e+000
2.023010e+003,3.585303e+000
2.023974e+003,3.302518e+000
2.024938e+003,2.670291e+000
2.025903e+003,1.889923e+000
2.026867e+003,1.141125e+000
2.027831e+003,5.465576e-001
2.028795e+003,4.221466e-001
2.029760e+003,7.826904e-001
2.030724e+003,1.277039e+000
2.031688e+003,1.995880e+000
2.032652e+003,2.312143e+000
2.033617e+003,2.097369e+000
2.034581e+003,1.744467e+000
2.035545e+003,1.085922e+000
2.036509e+003,8.172089e-001
2.037474e+003,1.587125e+000
2.038438e+003,2.561337e+000
2.039402e+003,3.074875e+000
2.040366e+003,3.120691e+000
2.041330e+003,2.448071e+000
2.042295e+003,1.117392e+000
2.043259e+003,3.898865e-001
2.044223e+003,4.339661e-001
2.045187e+003,9.868439e-001
2.046152e+003,2.618909e+000
2.047116e+003,3.866870e+000
2.048080e+003,4.288406e+000
2.049044e+003,3.977292e+000
2.050009e+003,2.568964e+000
2.050973e+003,8.822204e-001
2.051937e+003,-5.933746e-001
2.052901e+003,-1.411279e+000
2.053865e+003,-4.075409e-001
2.054830e+003,2.137875e+000
2.055794e+003,3.548715e+000
2.056758e+003,2.559558e+000
2.057722e+003,1.323001e+000
2.058687e+003,1.430121e+000
2.059651e+003,2.010873e+000
2.060615e+003,2.319977e+000
2.061579e+003,2.449905e+000
2.062544e+003,2.690774e+000
2.063508e+003,2.865237e+000
2.064472e+003,2.225314e+000
2.065436e+003,1.062518e+000
2.066401e+003,9.110382e-001
2.067365e+003,2.009439e+000
2.068329e+003,2.505304e+000
2.069293e+003,1.252695e+000
2.070258e+003,-2.027405e-001
2.071222e+003,2.212524e-003
2.072186e+003,1.176483e+000
2.073150e+003,2.023877e+000
2.074115e+003,2.497119e+000
2.075079e+003,2.156546e+000
2.076043e+003,1.115131e+000
2.077007e+003,6.003662e-001
2.077971e+003,8.132935e-001
2.078936e+003,1.117072e+000
2.079900e+003,1.258402e+000
2.080864e+003,1.820319e+000
2.081828e+003,3.306216e+000
2.082792e+003,4.651258e+000
2.083757e+003,4.256589e+000
2.084721e+003,2.768356e+000
2.085685e+003,2.595450e+000
2.086649e+003,3.846634e+000
2.087614e+003,3.885520e+000
2.088578e+003,2.219125e+000
2.089542e+003,1.964075e+000
2.090506e+003,4.157935e+000
2.091471e+003,5.196307e+000
2.092435e+003,3.265481e+000
2.093399e+003,1.513907e+000
2.094363e+003,2.351947e+000
2.095328e+003,3.928021e+000
2.096292e+003,3.696030e+000
2.097256e+003,2.272195e+000
2.098220e+003,1.959854e+000
2.099185e+003,2.958774e+000
2.100149e+003,3.391541e+000
2.101113e+003,2.315256e+000
2.102077e+003,2.342847e+000
2.103042e+003,5.288849e+000
2.104006e+003,6.794632e+000
2.104970e+003,4.070630e+000
2.105934e+003,1.872730e+000
2.106898e+003,3.803372e+000
2.107863e+003,6.576172e+000
2.108827e+003,6.536514e+000
2.109791e+003,4.836453e+000
2.110755e+003,4.183652e+000
2.111719e+003,4.689618e+000
2.112684e+003,5.176477e+000
2.113648e+003,5.622485e+000
2.114612e+003,5.678153e+000
2.115576e+003,4.914773e+000
2.116541e+003,4.194519e+000
2.117505e+003,3.833642e+000
2.118469e+003,3.629599e+000
2.119433e+003,3.492835e+000
2.120398e+003,3.427435e+000
2.121362e+003,3.444663e+000
2.122326e+003,3.497595e+000
2.123290e+003,3.367303e+000
2.124255e+003,3.211984e+000
2.125219e+003,3.937909e+000
2.126183e+003,5.899301e+000
2.127147e+003,7.181643e+000
2.128112e+003,6.570645e+000
2.129076e+003,5.650851e+000
2.130040e+003,5.038803e+000
2.131004e+003,4.684784e+000
2.131969e+003,4.750043e+000
2.132933e+003,4.843518e+000
2.133897e+003,4.222547e+000
2.134861e+003,3.525430e+000
2.135825e+003,4.179419e+000
2.136790e+003,5.888489e+000
2.137754e+003,7.053751e+000
2.138718e+003,7.164520e+000
2.139682e+003,6.645831e+000
2.140646e+003,5.406579e+000
2.141611e+003,4.845288e+000
2.142575e+003,6.789209e+000
2.143539e+003,9.178518e+000
2.144503e+003,1.039660e+001
2.145468e+003,1.048987e+001
2.146432e+003,8.738147e+000
2.147396e+003,6.322040e+000
2.148360e+003,5.593573e+000
2.149325e+003,6.378747e+000
2.150289e+003,6.960650e+000
2.151253e+003,6.790427e+000
2.152217e+003,6.369525e+000
2.153182e+003,5.991092e+000
2.154146e+003,5.923712e+000
2.155110e+003,6.610214e+000
2.156074e+003,7.443555e+000
2.157039e+003,7.552396e+000
2.158003e+003,7.278940e+000
2.158967e+003,7.233935e+000
2.159931e+003,7.325747e+000
2.160896e+003,7.059500e+000
2.161860e+003,6.647326e+000
2.162824e+003,7.021176e+000
2.163788e+003,8.239761e+000
2.164752e+003,9.514612e+000
2.165717e+003,1.036600e+001
2.166681e+003,1.009540e+001
2.167645e+003,7.837936e+000
2.168609e+003,5.316470e+000
2.169573e+003,5.239652e+000
2.170538e+003,6.403628e+000
2.171502e+003,6.386911e+000
2.172466e+003,5.707873e+000
2.173430e+003,5.687451e+000
2.174395e+003,6.320331e+000
2.175359e+003,7.309479e+000
2.176323e+003,8.383939e+000
2.177287e+003,8.770132e+000
2.178252e+003,8.203128e+000
2.179216e+003,7.160944e+000
2.180180e+003,5.991995e+000
2.181144e+003,5.201272e+000
2.182109e+003,5.588788e+000
2.183073e+003,6.375775e+000
2.184037e+003,5.739899e+000
2.185001e+003,4.484625e+000
2.185966e+003,4.956024e+000
2.186930e+003,6.645770e+000
2.187894e+003,7.427094e+000
2.188858e+003,7.253934e+000
2.189823e+003,7.600159e+000
2.190787e+003,8.740015e+000
2.191751e+003,9.624792e+000
2.192715e+003,9.697153e+000
2.193679e+003,8.861804e+000
2.194644e+003,6.799640e+000
2.195608e+003,4.888837e+000
2.196572e+003,6.050604e+000
2.197536e+003,8.692401e+000
2.198500e+003,8.634161e+000
2.199465e+003,6.851227e+000
2.200429e+003,6.159549e+000
2.201393e+003,6.540262e+000
2.202357e+003,7.035806e+000
2.203322e+003,7.352429e+000
2.204286e+003,7.090775e+000
2.205250e+003,6.251349e+000
2.206214e+003,6.071414e+000
2.207179e+003,7.401358e+000
2.208143e+003,8.924982e+000
2.209107e+003,9.022369e+000
2.210071e+003,8.444403e+000
2.211036e+003,8.360168e+000
2.212000e+003,8.765637e+000
2.212964e+003,1.019968e+001
2.213928e+003,1.194823e+001
2.214893e+003,1.146305e+001
2.215857e+003,9.309146e+000
2.216821e+003,8.662115e+000
2.217785e+003,1.009161e+001
2.218750e+003,1.173930e+001
2.219714e+003,1.271751e+001
2.220678e+003,1.359402e+001
2.221642e+003,1.485636e+001
2.222606e+003,1.626211e+001
2.223571e+003,1.783039e+001
2.224535e+003,1.894060e+001
2.225499e+003,1.787982e+001
2.226463e+003,1.587816e+001
2.227427e+003,1.539721e+001
2.228392e+003,1.627128e+001
2.229356e+003,1.780077e+001
2.230320e+003,1.968140e+001
2.231284e+003,2.174806e+001
2.232249e+003,2.372120e+001
2.233213e+003,2.440297e+001
2.234177e+003,2.331290e+001
2.235141e+003,2.295456e+001
2.236106e+003,2.570848e+001
2.237070e+003,2.952698e+001
2.238034e+003,3.220066e+001
2.238998e+003,3.408611e+001
2.239963e+003,3.546875e+001
2.240927e+003,3.667076e+001
2.241891e+003,3.806373e+001
2.242855e+003,3.979839e+001
2.243820e+003,4.219406e+001
2.244784e+003,4.505726e+001
2.245748e+003,4.769611e+001
2.246712e+003,4.992726e+001
2.247677e+003,5.208764e+001
2.248641e+003,5.437554e+001
2.249605e+003,5.685263e+001
2.250569e+003,5.998408e+001
2.251533e+003,6.257281e+001
2.252498e+003,6.369171e+001
2.253462e+003,6.349519e+001
2.254426e+003,6.145901e+001
2.255390e+003,5.880516e+001
2.256354e+003,5.736054e+001
2.257319e+003,5.639088e+001
2.258283e+003,5.406211e+001
2.259247e+003,5.058276e+001
2.260211e+003,4.738803e+001
2.261176e+003,4.492493e+001
2.262140e+003,4.329568e+001
2.263104e+003,4.286324e+001
2.264068e+003,4.175867e+001
2.265033e+003,3.825706e+001
2.265997e+003,3.469209e+001
2.266961e+003,3.255441e+001
2.267925e+003,3.076431e+001
2.268890e+003,2.840452e+001
2.269854e+003,2.598422e+001
2.270818e+003,2.441216e+001
2.271782e+003,2.309949e+001
2.272747e+003,2.047637e+001
2.273711e+003,1.709479e+001
2.274675e+003,1.566037e+001
2.275639e+003,1.671472e+001
2.276604e+003,1.739078e+001
2.277568e+003,1.730029e+001
2.278532e+003,1.605655e+001
2.279496e+003,1.152003e+001
2.280460e+003,8.640244e+000
2.281425e+003,1.086564e+001
2.282389e+003,1.322917e+001
2.283353e+003,1.260973e+001
2.284317e+003,1.110577e+001
2.285281e+003,1.092897e+001
2.286246e+003,1.117915e+001
2.287210e+003,9.776962e+000
2.288174e+003,7.122592e+000
2.289138e+003,6.072815e+000
2.290103e+003,7.139349e+000
2.291067e+003,7.535199e+000
2.292031e+003,6.955823e+000
2.292995e+003,6.299197e+000
2.293960e+003,5.283734e+000
2.294924e+003,4.752136e+000
2.295888e+003,5.305862e+000
2.296852e+003,5.643735e+000
2.297817e+003,5.134451e+000
2.298781e+003,4.132806e+000
2.299745e+003,2.668454e+000
2.300709e+003,1.435242e+000
2.301674e+003,1.771597e+000
2.302638e+003,3.202686e+000
2.303602e+003,3.330423e+000
2.304566e+003,2.008487e+000
2.305531e+003,1.180368e+000
2.306495e+003,8.389801e-001
2.307459e+003,1.604114e+000
2.308423e+003,3.737280e+000
2.309387e+003,4.677307e+000
2.310352e+003,3.670685e+000
2.311316e+003,2.576001e+000
2.312280e+003,2.301315e+000
2.313244e+003,2.492306e+000
2.314208e+003,2.849829e+000
2.315173e+003,3.228595e+000
2.316137e+003,3.570267e+000
2.317101e+003,3.473004e+000
2.318065e+003,9.949554e-001
2.319030e+003,-2.696930e+000
2.319994e+003,-2.085730e+000
2.320958e+003,1.534485e+000
2.321922e+003,2.439355e+000
2.322887e+003,7.586487e-001
2.323851e+003,-9.956054e-002
2.324815e+003,4.576843e-001
2.325779e+003,1.170431e+000
2.326744e+003,1.464835e+000
2.327708e+003,1.188702e+000
2.328672e+003,2.128540e-001
2.329636e+003,-7.430084e-001
2.330601e+003,-8.888611e-001
2.331565e+003,-8.382294e-001
2.332529e+003,-1.515652e+000
2.333493e+003,-2.150809e+000
2.334458e+003,-1.460840e+000
2.335422e+003,-4.530548e-001
2.336386e+003,-7.788849e-001
2.337350e+003,-1.702917e+000
2.338314e+003,-1.595428e+000
2.339279e+003,-6.753143e-001
2.340243e+003,-1.997223e-001
2.341207e+003,-4.509430e-001
2.342171e+003,-1.087769e+000
2.343135e+003,-2.073975e+000
2.344100e+003,-3.050772e+000
2.345064e+003,-4.222909e+000
2.346028e+003,-4.861780e+000
2.346992e+003,-4.196655e+000
2.347957e+003,-3.594336e+000
2.348921e+003,-3.796649e+000
2.349885e+003,-4.232687e+000
2.350849e+003,-4.905273e+000
2.351814e+003,-5.260180e+000
2.352778e+003,-4.110599e+000
2.353742e+003,-2.314810e+000
2.354706e+003,-2.018616e+000
2.355671e+003,-3.092099e+000
2.356635e+003,-4.081445e+000
2.357599e+003,-5.118414e+000
2.358563e+003,-5.536127e+000
2.359528e+003,-5.086279e+000
2.360492e+003,-4.885132e+000
2.361456e+003,-5.110476e+000
2.362420e+003,-5.250162e+000
2.363385e+003,-5.107001e+000
2.364349e+003,-5.215610e+000
2.365313e+003,-5.932635e+000
2.366277e+003,-6.418689e+000
2.367241e+003,-5.836267e+000
2.368206e+003,-5.088895e+000
2.369170e+003,-5.781552e+000
2.370134e+003,-7.115915e+000
2.371098e+003,-6.438333e+000
2.372063e+003,-4.407681e+000
2.373027e+003,-3.806161e+000
2.373991e+003,-4.295245e+000
2.374955e+003,-4.594562e+000
2.375919e+003,-4.616214e+000
2.376884e+003,-4.620288e+000
2.377848e+003,-4.667697e+000
2.378812e+003,-4.682519e+000
2.379776e+003,-4.640241e+000
2.380741e+003,-4.524530e+000
2.381705e+003,-4.302152e+000
2.382669e+003,-4.631909e+000
2.383633e+003,-6.819571e+000
2.384598e+003,-8.288942e+000
2.385562e+003,-6.059323e+000
2.386526e+003,-3.452139e+000
2.387490e+003,-3.206982e+000
2.388455e+003,-3.832687e+000
2.389419e+003,-3.878668e+000
2.390383e+003,-3.755176e+000
2.391347e+003,-4.405908e+000
2.392312e+003,-5.405011e+000
2.393276e+003,-5.560788e+000
2.394240e+003,-4.897372e+000
2.395204e+003,-4.510684e+000
2.396168e+003,-4.561777e+000
2.397133e+003,-4.594876e+000
2.398097e+003,-4.874268e+000
2.399061e+003,-4.553809e+000
2.400025e+003,-2.925290e+000
2.400990e+003,-2.199832e+000
2.401954e+003,-3.314172e+000
2.402918e+003,-4.353851e+000
2.403882e+003,-4.521780e+000
2.404846e+003,-3.997241e+000
2.405811e+003,-2.810788e+000
2.406775e+003,-1.328003e+000
2.407739e+003,2.362671e-002
2.408703e+003,8.294220e-001
2.409668e+003,-4.100983e-001
2.410632e+003,-3.069952e+000
2.411596e+003,-3.867398e+000
2.412560e+003,-3.162289e+000
2.413525e+003,-2.034558e+000
2.414489e+003,-9.162689e-001
2.415453e+003,-1.492450e+000
2.416417e+003,-3.332950e+000
2.417382e+003,-3.529013e+000
2.418346e+003,-1.776508e+000
2.419310e+003,-1.250540e+000
2.420274e+003,-3.232098e+000
2.421239e+003,-4.665057e+000
2.422203e+003,-3.408887e+000
2.423167e+003,-1.792340e+000
2.424131e+003,-1.297180e+000
2.425095e+003,-1.231735e+000
2.426060e+003,-1.236087e+000
2.427024e+003,-1.387622e+000
2.427988e+003,-2.079614e+000
2.428952e+003,-2.641840e+000
2.429917e+003,-2.246973e+000
2.430881e+003,-1.382733e+000
2.431845e+003,-8.291809e-001
2.432809e+003,-5.415131e-001
2.433773e+003,-1.199860e-001
2.434738e+003,4.471069e-001
2.435702e+003,7.236908e-001
2.436666e+003,5.154602e-001
2.437630e+003,8.806335e-001
2.438595e+003,2.190070e+000
2.439559e+003,2.123184e+000
2.440523e+003,9.202270e-002
2.441487e+003,-7.967469e-001
2.442452e+003,4.137360e-001
2.443416e+003,1.731519e+000
2.444380e+003,2.144540e+000
2.445344e+003,2.185907e+000
2.446309e+003,2.296436e+000
2.447273e+003,2.319897e+000
2.448237e+003,1.871426e+000
2.449201e+003,1.576379e+000
2.450166e+003,3.037970e+000
2.451130e+003,4.938962e+000
2.452094e+003,4.915640e+000
2.453058e+003,3.977011e+000
2.454022e+003,3.501450e+000
2.454987e+003,3.581928e+000
2.455951e+003,4.473715e+000
2.456915e+003,5.640378e+000
2.457879e+003,5.774255e+000
2.458844e+003,4.869397e+000
2.459808e+003,4.147528e+000
2.460772e+003,3.873926e+000
2.461736e+003,3.690768e+000
2.462700e+003,3.016361e+000
2.463665e+003,3.251389e+000
2.464629e+003,5.758505e+000
2.465593e+003,7.233951e+000
2.466557e+003,6.670505e+000
2.467522e+003,5.672867e+000
2.468486e+003,4.632953e+000
2.469450e+003,4.116809e+000
2.470414e+003,4.607638e+000
2.471379e+003,5.557223e+000
2.472343e+003,6.334399e+000
2.473307e+003,6.916968e+000
2.474271e+003,7.283096e+000
2.475236e+003,7.438620e+000
2.476200e+003,7.261728e+000
2.477164e+003,6.949466e+000
2.478128e+003,7.287720e+000
2.479093e+003,7.930045e+000
2.480057e+003,7.476007e+000
2.481021e+003,6.537512e+000
2.481985e+003,7.517273e+000
2.482949e+003,1.002801e+001
2.483914e+003,1.124133e+001
2.484878e+003,1.046214e+001
2.485842e+003,9.075043e+000
2.486806e+003,7.339536e+000
2.487771e+003,6.430417e+000
2.488735e+003,7.189313e+000
2.489699e+003,8.174991e+000
2.490663e+003,9.300418e+000
2.491627e+003,1.011880e+001
2.492592e+003,1.082054e+001
2.493556e+003,1.064763e+001
2.494520e+003,8.505447e+000
2.495484e+003,6.793823e+000
2.496449e+003,7.622183e+000
2.497413e+003,9.628504e+000
2.498377e+003,1.095918e+001
2.499341e+003,1.167288e+001
2.500306e+003,1.172898e+001
2.501270e+003,1.140659e+001
2.502234e+003,1.206143e+001
2.503198e+003,1.339179e+001
2.504163e+003,1.447106e+001
2.505127e+003,1.516421e+001
2.506091e+003,1.536505e+001
2.507055e+003,1.505693e+001
2.508020e+003,1.368763e+001
2.508984e+003,1.182952e+001
2.509948e+003,1.198468e+001
2.510912e+003,1.465131e+001
2.511876e+003,1.644225e+001
2.512841e+003,1.574169e+001
2.513805e+003,1.551163e+001
2.514769e+003,1.739054e+001
2.515733e+003,1.877944e+001
2.516698e+003,1.837581e+001
2.517662e+003,1.831609e+001
2.518626e+003,1.965977e+001
2.519590e+003,2.086713e+001
2.520554e+003,2.086387e+001
2.521519e+003,2.114635e+001
2.522483e+003,2.318040e+001
2.523447e+003,2.551180e+001
2.524411e+003,2.602350e+001
2.525376e+003,2.545905e+001
2.526340e+003,2.534404e+001
2.527304e+003,2.569820e+001
2.528268e+003,2.682858e+001
2.529233e+003,2.850037e+001
2.530197e+003,3.012546e+001
2.531161e+003,3.179328e+001
2.532125e+003,3.399557e+001
2.533090e+003,3.637183e+001
2.534054e+003,3.808323e+001
2.535018e+003,3.907375e+001
2.535982e+003,3.947942e+001
2.536947e+003,3.940808e+001
2.537911e+003,4.019854e+001
2.538875e+003,4.261506e+001
2.539839e+003,4.452746e+001
2.540803e+003,4.529346e+001
2.541768e+003,4.613618e+001
2.542732e+003,4.721156e+001
2.543696e+003,4.817372e+001
2.544660e+003,4.906545e+001
2.545625e+003,4.947920e+001
2.546589e+003,4.909824e+001
2.547553e+003,4.948257e+001
2.548517e+003,5.185526e+001
2.549482e+003,5.420550e+001
2.550446e+003,5.410783e+001
2.551410e+003,5.315959e+001
2.552374e+003,5.440491e+001
2.553339e+003,5.577712e+001
2.554303e+003,5.367823e+001
2.555267e+003,5.048483e+001
2.556231e+003,4.900991e+001
2.557196e+003,4.859885e+001
2.558160e+003,4.840110e+001
2.559124e+003,4.820232e+001
2.560088e+003,4.803257e+001
2.561052e+003,4.781317e+001
2.562017e+003,4.727590e+001
2.562981e+003,4.632441e+001
2.563945e+003,4.439977e+001
2.564909e+003,4.104457e+001
2.565874e+003,3.938100e+001
2.566838e+003,3.978218e+001
2.567802e+003,3.905228e+001
2.568766e+003,3.693295e+001
2.569730e+003,3.535246e+001
2.570695e+003,3.456184e+001
2.571659e+003,3.257848e+001
2.572623e+003,2.900970e+001
2.573587e+003,2.635590e+001
2.574552e+003,2.594516e+001
2.575516e+003,2.646012e+001
2.576480e+003,2.755502e+001
2.577444e+003,2.735827e+001
2.578409e+003,2.297247e+001
2.579373e+003,1.902464e+001
2.580337e+003,1.837984e+001
2.581301e+003,1.861841e+001
2.582266e+003,1.922054e+001
2.583230e+003,1.916538e+001
2.584194e+003,1.714845e+001
2.585158e+003,1.514807e+001
2.586123e+003,1.533259e+001
2.587087e+003,1.633995e+001
2.588051e+003,1.582365e+001
2.589015e+003,1.434594e+001
2.589979e+003,1.351096e+001
2.590944e+003,1.325482e+001
2.591908e+003,1.380621e+001
2.592872e+003,1.449689e+001
2.593836e+003,1.325024e+001
2.594801e+003,1.095995e+001
2.595765e+003,9.665335e+000
2.596729e+003,9.277814e+000
2.597693e+003,8.947540e+000
2.598657e+003,8.525208e+000
2.599622e+003,8.179273e+000
2.600586e+003,7.936707e+000
2.601550e+003,7.681811e+000
2.602514e+003,7.578299e+000
2.603479e+003,6.778137e+000
2.604443e+003,4.702600e+000
2.605407e+003,3.793365e+000
2.606371e+003,4.525217e+000
2.607336e+003,4.867337e+000
2.608300e+003,4.358435e+000
2.609264e+003,3.878885e+000
2.610228e+003,3.757138e+000
2.611193e+003,3.816910e+000
2.612157e+003,3.957095e+000
2.613121e+003,4.109378e+000
2.614085e+003,4.307321e+000
2.615050e+003,4.078943e+000
2.616014e+003,2.531229e+000
2.616978e+003,1.093967e+000
2.617942e+003,9.726745e-001
2.618906e+003,9.435974e-001
2.619871e+003,1.131134e-001
2.620835e+003,-7.905701e-001
2.621799e+003,-1.655933e+000
2.622763e+003,-1.709644e+000
2.623728e+003,1.479065e-001
2.624692e+003,2.457971e+000
2.625656e+003,2.842194e+000
2.626620e+003,2.000409e+000
2.627584e+003,1.740210e+000
2.628549e+003,1.881985e+000
2.629513e+003,1.863055e+000
2.630477e+003,1.767157e+000
2.631441e+003,1.730850e+000
2.632406e+003,1.774387e+000
2.633370e+003,2.096170e+000
2.634334e+003,2.447952e+000
2.635298e+003,2.174902e+000
2.636263e+003,1.460245e+000
2.637227e+003,1.198419e+000
2.638191e+003,1.470328e+000
2.639155e+003,1.433521e+000
2.640120e+003,1.093515e+000
2.641084e+003,1.305542e-002
2.642048e+003,-2.350626e+000
2.643012e+003,-1.493585e+000
2.643977e+003,2.863205e+000
2.644941e+003,3.809561e+000
2.645905e+003,7.324737e-001
2.646869e+003,-1.266757e+000
2.647833e+003,-9.282287e-001
2.648798e+003,-5.097290e-001
2.649762e+003,-9.428558e-001
2.650726e+003,-1.582813e+000
2.651690e+003,-2.196677e+000
2.652655e+003,-2.495902e+000
2.653619e+003,-2.539185e+000
2.654583e+003,-1.905481e+000
2.655547e+003,5.226380e-001
2.656511e+003,2.049463e+000
2.657476e+003,1.806448e+000
2.658440e+003,9.022766e-001
2.659404e+003,-3.207886e-001
2.660368e+003,-1.626321e+000
2.661333e+003,-2.905786e+000
2.662297e+003,-3.040463e+000
2.663261e+003,-7.730774e-001
2.664225e+003,1.706216e+000
2.665190e+003,1.583048e+000
2.666154e+003,1.679596e-001
2.667118e+003,-2.226453e+000
2.668082e+003,-3.725781e+000
2.669047e+003,-1.291855e+000
2.670011e+003,1.348459e+000
2.670975e+003,2.849030e-001
2.671939e+003,-1.958170e+000
2.672904e+003,-2.822968e+000
2.673868e+003,-2.410083e+000
2.674832e+003,-4.052673e-001
2.675796e+003,1.815137e+000
2.676760e+003,2.969879e-001
2.677725e+003,-3.594156e+000
2.678689e+003,-4.226326e+000
2.679653e+003,-2.531900e+000
2.680617e+003,-6.166351e-001
2.681582e+003,9.540802e-001
2.682546e+003,1.115079e+000
2.683510e+003,4.190430e-001
2.684474e+003,-2.801086e-001
2.685438e+003,-7.046143e-001
2.686403e+003,-3.901581e-001
2.687367e+003,4.907562e-001
2.688331e+003,6.712281e-001
2.689295e+003,1.359863e-001
2.690260e+003,-5.779877e-001
2.691224e+003,-1.632834e+000
2.692188e+003,-1.133398e+000
2.693152e+003,7.657654e-001
2.694117e+003,5.721222e-001
2.695081e+003,-1.534994e+000
2.696045e+003,-2.720725e+000
2.697009e+003,-2.577142e+000
2.697974e+003,-2.218292e+000
2.698938e+003,-1.945255e+000
2.699902e+003,-1.227390e+000
2.700866e+003,1.670074e-001
2.701831e+003,9.149841e-001
2.702795e+003,2.362244e-001
2.703759e+003,-2.616547e-001
2.704723e+003,-5.182068e-001
2.705688e+003,-3.960052e-001
2.706652e+003,1.894653e-001
2.707616e+003,5.546905e-001
2.708580e+003,5.349671e-001
2.709544e+003,1.287659e-001
2.710509e+003,-6.138092e-001
2.711473e+003,-1.334805e+000
2.712437e+003,-1.838776e+000
2.713401e+003,-1.659683e+000
2.714365e+003,1.581238e-001
2.715330e+003,9.935211e-001
2.716294e+003,-1.790738e+000
2.717258e+003,-3.841142e+000
2.718222e+003,-2.595195e+000
2.719187e+003,-2.056647e+000
2.720151e+003,-4.109329e+000
2.721115e+003,-4.878317e+000
2.722079e+003,-2.259640e+000
2.723044e+003,2.524200e-001
2.724008e+003,3.247681e-002
2.724972e+003,-8.709778e-001
2.725936e+003,-3.008148e-001
2.726901e+003,3.501434e-001
2.727865e+003,-8.703766e-001
2.728829e+003,-2.144420e+000
2.729793e+003,-1.637295e+000
2.730758e+003,-1.097458e+000
2.731722e+003,-2.295499e+000
2.732686e+003,-3.250218e+000
2.733650e+003,-2.403182e+000
2.734615e+003,-9.207886e-001
2.735579e+003,4.509338e-001
2.736543e+003,1.011066e+000
2.737507e+003,-3.591766e-001
2.738471e+003,-2.366985e+000
2.739436e+003,-2.725201e+000
2.740400e+003,-1.947356e+000
2.741364e+003,1.700348e-001
2.742328e+003,1.802655e+000
2.743292e+003,-1.576355e-001
2.744257e+003,-2.812605e+000
2.745221e+003,-2.765904e+000
2.746185e+003,-1.669003e+000
2.747149e+003,-2.011156e+000
2.748114e+003,-2.735449e+000
2.749078e+003,-2.147789e+000
2.750042e+003,-8.026825e-001
2.751006e+003,-1.838501e-001
2.751971e+003,-8.450623e-002
2.752935e+003,2.693817e-001
2.753899e+003,6.282349e-001
2.754863e+003,2.840180e-001
2.755828e+003,-2.994446e-001
2.756792e+003,-3.991150e-001
2.757756e+003,-1.732880e-001
2.758720e+003,3.643768e-001
2.759685e+003,7.580902e-001
2.760649e+003,-6.364746e-002
2.761613e+003,-1.686449e+000
2.762577e+003,-3.016885e+000
2.763542e+003,-3.958818e+000
2.764506e+003,-3.305403e+000
2.765470e+003,-1.471678e+000
2.766434e+003,-4.431061e-001
2.767398e+003,-2.687225e-001
2.768363e+003,-1.554302e+000
2.769327e+003,-3.336107e+000
2.770291e+003,-3.684373e+000
2.771255e+003,-2.820145e+000
2.772219e+003,-1.610954e+000
2.773184e+003,-3.925842e-001
2.774148e+003,1.140564e-001
2.775112e+003,-8.221436e-002
2.776076e+003,-8.888519e-001
2.777041e+003,-2.309418e+000
2.778005e+003,-3.170012e+000
2.778969e+003,-3.440755e+000
2.779933e+003,-2.656726e+000
2.780898e+003,-1.335460e+000
2.781862e+003,-1.014441e+000
2.782826e+003,-1.522130e+000
2.783790e+003,-1.914484e+000
2.784755e+003,-1.986232e+000
2.785719e+003,-1.617985e+000
2.786683e+003,-8.224945e-001
2.787647e+003,-9.012238e-001
2.788612e+003,-2.019833e+000
2.789576e+003,-2.812389e+000
2.790540e+003,-3.248215e+000
2.791504e+003,-2.436237e+000
2.792469e+003,-7.124573e-001
2.793433e+003,2.033783e-001
2.794397e+003,2.505524e-001
2.795361e+003,1.631805e-001
2.796325e+003,5.140686e-002
2.797290e+003,-2.580841e-001
2.798254e+003,-8.160431e-001
2.799218e+003,-2.262842e+000
2.800182e+003,-5.110907e+000
2.801146e+003,-5.284024e+000
2.802111e+003,-2.485790e+000
2.803075e+003,2.995941e-001
2.804039e+003,2.722748e+000
2.805003e+003,3.315091e+000
2.805968e+003,2.231470e+000
2.806932e+003,6.462585e-001
2.807896e+003,-9.136734e-001
2.808860e+003,-2.177737e+000
2.809825e+003,-3.017894e+000
2.810789e+003,-2.874249e+000
2.811753e+003,-1.389603e+000
2.812717e+003,-7.594360e-001
2.813682e+003,-1.259616e+000
2.814646e+003,-1.221402e+000
2.815610e+003,-6.178375e-001
2.816574e+003,-1.336609e-001
2.817539e+003,9.393311e-002
2.818503e+003,-2.048798e-001
2.819467e+003,-9.277466e-001
2.820431e+003,-1.667252e+000
2.821396e+003,-2.205858e+000
2.822360e+003,-2.233407e+000
2.823324e+003,-1.674616e+000
2.824288e+003,-5.541412e-001
2.825252e+003,1.673434e+000
2.826217e+003,1.835767e+000
2.827181e+003,-1.308227e-001
2.828145e+003,-8.519546e-001
2.829109e+003,-3.182800e-001
2.830073e+003,-4.270737e-001
2.831038e+003,-1.219234e+000
2.832002e+003,-1.550708e+000
2.832966e+003,-1.233926e+000
2.833930e+003,-7.440537e-001
2.834895e+003,-2.029648e-001
2.835859e+003,2.057098e-001
2.836823e+003,5.170410e-001
2.837787e+003,4.206604e-001
2.838752e+003,-1.186340e-001
2.839716e+003,-2.364090e-001
2.840680e+003,3.137207e-002
2.841644e+003,1.088196e-001
2.842609e+003,-9.470215e-002
2.843573e+003,-6.229675e-001
2.844537e+003,-1.280173e+000
2.845501e+003,-1.385265e+000
2.846466e+003,-8.911667e-001
2.847430e+003,-9.950653e-001
2.848394e+003,-1.927654e+000
2.849358e+003,-2.115282e+000
2.850323e+003,-1.488950e+000
2.851287e+003,-1.304549e+000
2.852251e+003,-1.543977e+000
2.853215e+003,-1.770816e+000
2.854179e+003,-1.895351e+000
2.855144e+003,-1.883745e+000
2.856108e+003,-1.762737e+000
2.857072e+003,-1.575670e+000
2.858036e+003,-1.330534e+000
2.859000e+003,-9.829971e-001
2.859965e+003,-5.264893e-001
2.860929e+003,-8.885162e-001
2.861893e+003,-2.125719e+000
2.862857e+003,-2.217696e+000
2.863822e+003,-1.388235e+000
2.864786e+003,-1.039198e+000
2.865750e+003,-1.032925e+000
2.866714e+003,-5.668777e-001
2.867679e+003,2.201157e-001
2.868643e+003,9.238342e-001
2.869607e+003,1.349728e+000
2.870571e+003,6.931671e-001
2.871536e+003,-7.738647e-001
2.872500e+003,-4.624085e-001
2.873464e+003,1.471436e+000
2.874428e+003,1.434726e+000
2.875393e+003,1.056625e-001
2.876357e+003,-4.347809e-001
2.877321e+003,-1.498154e-001
2.878285e+003,1.010986e+000
2.879250e+003,2.454868e+000
2.880214e+003,3.276547e+000
2.881178e+003,3.424201e+000
2.882142e+003,3.216049e+000
2.883106e+003,2.581043e+000
2.884071e+003,8.014801e-001
2.885035e+003,-1.546005e+000
2.885999e+003,-7.320236e-001
2.886963e+003,1.665659e+000
2.887927e+003,1.987125e+000
2.888892e+003,1.011221e+000
2.889856e+003,-5.453049e-001
2.890820e+003,-1.697527e+000
2.891784e+003,-5.780517e-001
2.892749e+003,1.302145e+000
2.893713e+003,1.425433e+000
2.894677e+003,3.988220e-001
2.895641e+003,-5.917709e-001
2.896606e+003,-1.349902e+000
2.897570e+003,-1.171657e+000
2.898534e+003,-5.163086e-001
2.899498e+003,-2.239685e-002
2.900463e+003,3.620239e-001
2.901427e+003,9.703110e-001
2.902391e+003,1.278464e+000
2.903355e+003,4.885589e-001
2.904320e+003,-6.266114e-001
2.905284e+003,-1.409445e+000
2.906248e+003,-1.599156e+000
2.907212e+003,-6.244446e-001
2.908177e+003,6.558548e-001
2.909141e+003,7.670578e-001
2.910105e+003,4.351624e-001
2.911069e+003,3.319931e-001
2.912033e+003,2.548035e-001
2.912998e+003,1.460648e-001
2.913962e+003,-1.471024e-001
2.914926e+003,-8.609665e-001
2.915890e+003,-1.342493e+000
2.916854e+003,-1.090570e+000
2.917819e+003,-7.064117e-001
2.918783e+003,-8.496674e-001
2.919747e+003,-8.257675e-001
2.920711e+003,5.799179e-001
2.921676e+003,1.718802e+000
2.922640e+003,1.316010e+000
2.923604e+003,7.258590e-001
2.924568e+003,4.314957e-001
2.925533e+003,1.705612e-001
2.926497e+003,-1.950012e-001
2.927461e+003,2.555572e-001
2.928425e+003,1.934286e+000
2.929390e+003,-1.599492e+000
2.930354e+003,-1.598802e+001
2.931318e+003,-2.457627e+001
2.932282e+003,-1.102137e+001
2.933247e+003,-3.631043e-001
2.934211e+003,-6.841217e-001
2.935175e+003,-1.548196e+000
2.936139e+003,-2.335332e+000
2.937104e+003,-2.255589e+000
2.938068e+003,-1.222859e+000
2.939032e+003,-1.189438e+000
2.939996e+003,-2.534863e+000
2.940960e+003,-3.004691e+000
2.941925e+003,-1.763937e+000
2.942889e+003,-1.319614e+000
2.943853e+003,-3.083138e+000
2.944817e+003,-3.415553e+000
2.945781e+003,-1.843336e+000
2.946746e+003,-1.105080e+000
2.947710e+003,-1.305740e+000
2.948674e+003,-1.466049e+000
2.949638e+003,-1.351355e+000
2.950603e+003,-6.857818e-001
2.951567e+003,3.637375e-001
2.952531e+003,1.142580e+000
2.953495e+003,1.503781e+000
2.954460e+003,1.680717e+000
2.955424e+003,1.707985e+000
2.956388e+003,-4.186249e-002
2.957352e+003,-3.138992e+000
2.958317e+003,-2.702538e+000
2.959281e+003,-1.807083e-001
2.960245e+003,2.633148e-001
2.961209e+003,-7.809952e-001
2.962174e+003,-2.019965e+000
2.963138e+003,-2.713779e+000
2.964102e+003,-1.287697e+000
2.965066e+003,9.941467e-001
2.966031e+003,1.247714e+000
2.966995e+003,2.013367e-001
2.967959e+003,2.914200e-001
2.968923e+003,7.595154e-001
2.969887e+003,-2.989853e-001
2.970852e+003,-1.605888e+000
2.971816e+003,-1.616734e+000
2.972780e+003,-9.728119e-001
2.973744e+003,5.205536e-002
2.974708e+003,6.377395e-001
2.975673e+003,1.607361e-002
2.976637e+003,-9.599854e-001
2.977601e+003,-1.337740e+000
2.978565e+003,-1.270717e+000
2.979530e+003,-7.252533e-001
2.980494e+003,-1.377853e-001
2.981458e+003,2.665268e-001
2.982422e+003,4.230911e-001
2.983387e+003,3.275528e-001
2.984351e+003,-1.933502e-001
2.985315e+003,-1.247591e+000
2.986279e+003,-2.449568e+000
2.987244e+003,-3.550241e+000
2.988208e+003,-3.282669e+000
2.989172e+003,-7.266876e-001
2.990136e+003,1.124422e+000
2.991101e+003,-2.077438e-001
2.992065e+003,-8.993515e-001
2.993029e+003,1.134720e-001
2.993993e+003,9.096192e-001
2.994958e+003,1.271988e+000
2.995922e+003,1.548573e+000
2.996886e+003,1.801971e+000
2.997850e+003,1.815392e+000
2.998814e+003,1.580168e+000
2.999779e+003,1.415887e+000
3.000743e+003,1.395009e+000
3.001707e+003,8.250855e-001
3.002671e+003,-4.601623e-001
3.003635e+003,-9.853607e-001
3.004600e+003,-7.932388e-001
3.005564e+003,-1.809036e-001
3.006528e+003,4.825287e-001
3.007492e+003,-4.025772e-001
3.008457e+003,-1.718396e+000
3.009421e+003,-3.337616e-001
3.010385e+003,2.617725e+000
3.011349e+003,3.676132e+000
3.012314e+003,3.072273e+000
3.013278e+003,1.284538e+000
3.014242e+003,-1.031262e+000
3.015206e+003,-1.704257e+000
3.016171e+003,-1.364011e+000
3.017135e+003,-4.965759e-001
3.018099e+003,1.438385e-001
3.019063e+003,-6.870285e-001
3.020028e+003,-1.474057e+000
3.020992e+003,-7.794449e-001
3.021956e+003,-6.274720e-002
3.022920e+003,-6.224915e-001
3.023885e+003,-1.541295e+000
3.024849e+003,-1.904205e+000
3.025813e+003,-1.744673e+000
3.026777e+003,-4.688477e-001
3.027741e+003,3.343353e-001
3.028706e+003,-6.767212e-001
3.029670e+003,-1.383797e+000
3.030634e+003,-1.284975e+000
3.031598e+003,-7.783874e-001
3.032563e+003,-3.672943e-002
3.033527e+003,8.961731e-001
3.034491e+003,1.926759e+000
3.035455e+003,2.200972e+000
3.036420e+003,1.206482e+000
3.037384e+003,4.112244e-001
3.038348e+003,1.629150e-001
3.039312e+003,-2.947220e-001
3.040277e+003,-9.583527e-001
3.041241e+003,-4.711319e-001
3.042205e+003,7.785446e-001
3.043169e+003,6.114715e-001
3.044134e+003,-6.913177e-001
3.045098e+003,-1.386052e+000
3.046062e+003,-1.341724e+000
3.047026e+003,-1.351063e+000
3.047990e+003,-1.389439e+000
3.048955e+003,-1.168744e+000
3.049919e+003,-8.152359e-001
3.050883e+003,-8.869278e-001
3.051847e+003,-1.219548e+000
3.052812e+003,-1.695064e+000
3.053776e+003,-2.086852e+000
3.054740e+003,-2.249925e+000
3.055704e+003,-2.077806e+000
3.056668e+003,-1.409309e+000
3.057633e+003,-5.728470e-001
3.058597e+003,7.922058e-002
3.059561e+003,5.700775e-001
3.060525e+003,1.022250e+000
3.061490e+003,1.136057e+000
3.062454e+003,2.906784e-001
3.063418e+003,-2.957870e-001
3.064382e+003,-1.051544e-001
3.065347e+003,1.954620e-001
3.066311e+003,4.409683e-001
3.067275e+003,5.074402e-001
3.068239e+003,3.822021e-001
3.069204e+003,3.134613e-001
3.070168e+003,3.879456e-001
3.071132e+003,4.613892e-001
3.072096e+003,6.166748e-001
3.073061e+003,3.635956e-001
3.074025e+003,-3.202118e-001
3.074989e+003,-1.192325e+000
3.075953e+003,-2.021588e+000
3.076917e+003,-1.380826e+000
3.077882e+003,7.617645e-002
3.078846e+003,5.970154e-002
3.079810e+003,-9.496902e-001
3.080774e+003,-2.942734e-001
3.081739e+003,1.231160e+000
3.082703e+003,9.215195e-001
3.083667e+003,-6.128815e-001
3.084631e+003,-1.537650e+000
3.085595e+003,-1.971593e+000
3.086560e+003,-2.233202e+000
3.087524e+003,-1.937575e+000
3.088488e+003,5.156616e-001
3.089452e+003,1.759030e+000
3.090417e+003,-8.427719e-001
3.091381e+003,-3.039417e+000
3.092345e+003,-1.462079e+000
3.093309e+003,1.746368e-001
3.094274e+003,-1.893506e+000
3.095238e+003,-3.645674e+000
3.096202e+003,-1.852750e+000
3.097166e+003,-4.563614e-001
3.098131e+003,-3.388977e-002
3.099095e+003,-1.022465e+000
3.100059e+003,-3.291724e+000
3.101023e+003,-3.331001e+000
3.101988e+003,-8.594849e-001
3.102952e+003,1.128958e+000
3.103916e+003,1.693796e+000
3.104880e+003,7.557755e-001
3.105844e+003,-1.646523e+000
3.106809e+003,-2.396651e+000
3.107773e+003,-1.642130e+000
3.108737e+003,-7.973145e-001
3.109701e+003,-2.023193e-001
3.110666e+003,-9.353317e-001
3.111630e+003,-2.022023e+000
3.112594e+003,-1.496271e+000
3.113558e+003,-7.190307e-001
3.114522e+003,-1.753938e+000
3.115487e+003,-3.126205e+000
3.116451e+003,-2.682616e+000
3.117415e+003,-1.495482e+000
3.118379e+003,-1.007231e+000
3.119344e+003,-6.397690e-001
3.120308e+003,8.630829e-001
3.121272e+003,7.531235e-001
3.122236e+003,-2.586441e+000
3.123201e+003,-4.507987e+000
3.124165e+003,-3.566066e+000
3.125129e+003,-2.068016e+000
3.126093e+003,-1.087672e+000
3.127058e+003,-6.455536e-001
3.128022e+003,-7.961960e-001
3.128986e+003,-1.082368e+000
3.129950e+003,-1.594087e+000
3.130915e+003,-1.187567e+000
3.131879e+003,-6.584625e-002
3.132843e+003,-9.758118e-001
3.133807e+003,-2.960123e+000
3.134771e+003,-2.601669e+000
3.135736e+003,-8.606018e-001
3.136700e+003,-6.825043e-001
3.137664e+003,-1.546198e+000
3.138628e+003,-2.128171e+000
3.139593e+003,-2.475891e+000
3.140557e+003,-2.764528e+000
3.141521e+003,-2.791196e+000
3.142485e+003,-1.909267e+000
3.143449e+003,-1.056686e+000
3.144414e+003,-5.831375e-001
3.145378e+003,-1.292133e+000
3.146342e+003,-3.897034e+000
3.147306e+003,-4.869517e+000
3.148271e+003,-2.656963e+000
3.149235e+003,-7.278259e-001
3.150199e+003,-1.049141e+000
3.151163e+003,-1.358040e+000
3.152128e+003,-1.229630e-001
3.153092e+003,-5.664536e-001
3.154056e+003,-3.110202e+000
3.155020e+003,-2.782504e+000
3.155985e+003,-2.569870e-001
3.156949e+003,-5.942093e-001
3.157913e+003,-2.916406e+000
3.158877e+003,-3.156241e+000
3.159842e+003,-1.734953e+000
3.160806e+003,-1.659389e+000
3.161770e+003,-2.192496e+000
3.162734e+003,-1.046581e+000
3.163698e+003,7.053741e-001
3.164663e+003,5.711243e-001
3.165627e+003,-8.165741e-002
3.166591e+003,2.289703e-001
3.167555e+003,4.602814e-001
3.168520e+003,-1.256363e-001
3.169484e+003,-4.879715e-001
3.170448e+003,-1.330750e-001
3.171412e+003,1.841629e-001
3.172376e+003,1.678009e-002
3.173341e+003,-1.023148e-001
3.174305e+003,2.401215e-001
3.175269e+003,1.910889e-001
3.176233e+003,-3.520950e-001
3.177198e+003,-1.022693e+000
3.178162e+003,-1.795738e+000
3.179126e+003,-2.977119e+000
3.180090e+003,-4.065555e+000
3.181055e+003,-3.338109e+000
3.182019e+003,-1.575360e+000
3.182983e+003,-1.458672e+000
3.183947e+003,-2.233296e+000
3.184912e+003,-2.011658e+000
3.185876e+003,-1.136916e+000
3.186840e+003,1.790146e-001
3.187804e+003,9.997422e-001
3.188769e+003,3.990784e-002
3.189733e+003,-1.416502e+000
3.190697e+003,-2.994119e+000
3.191661e+003,-3.717480e+000
3.192625e+003,-3.184099e+000
3.193590e+003,-2.298672e+000
3.194554e+003,-1.546646e+000
3.195518e+003,-8.582947e-001
3.196482e+003,-1.401398e-001
3.197447e+003,2.108383e-001
3.198411e+003,1.286056e-001
3.199375e+003,-9.850617e-002
3.200339e+003,-3.228348e-001
3.201303e+003,6.198730e-001
3.202268e+003,1.899068e+000
3.203232e+003,1.192104e+000
3.204196e+003,-7.216827e-001
3.205160e+003,-1.865355e+000
3.206125e+003,-2.178673e+000
3.207089e+003,-1.461005e+000
3.208053e+003,-3.515716e-001
3.209017e+003,2.412476e-001
3.209982e+003,3.932480e-001
3.210946e+003,-3.257019e-001
3.211910e+003,-5.865753e-001
3.212874e+003,1.324432e-001
3.213839e+003,1.174373e+000
3.214803e+003,2.173157e+000
3.215767e+003,1.395720e+000
3.216731e+003,-1.581567e+000
3.217696e+003,-3.675526e+000
3.218660e+003,-3.800108e+000
3.219624e+003,-2.815312e+000
3.220588e+003,-7.250137e-001
3.221552e+003,3.720627e-001
3.222517e+003,5.644821e-001
3.223481e+003,-1.546005e-001
3.224445e+003,-1.186737e+000
3.225409e+003,-1.718941e+000
3.226374e+003,-1.746832e+000
3.227338e+003,-1.385692e+000
3.228302e+003,-6.346833e-001
3.229266e+003,6.793762e-001
3.230230e+003,1.610400e+000
3.231195e+003,6.522903e-001
3.232159e+003,-1.874985e-001
3.233123e+003,3.979675e-001
3.234087e+003,5.210876e-002
3.235052e+003,-1.592072e+000
3.236016e+003,-1.818810e+000
3.236980e+003,-4.220993e-001
3.237944e+003,1.387970e-001
3.238909e+003,-5.644501e-001
3.239873e+003,-4.385986e-001
3.240837e+003,3.821869e-001
3.241801e+003,-1.091066e+000
3.242766e+003,-3.890683e+000
3.243730e+003,-3.659155e+000
3.244694e+003,-2.441209e+000
3.245658e+003,-3.720624e+000
3.246623e+003,-4.831505e+000
3.247587e+003,-3.179797e+000
3.248551e+003,-1.291342e+000
3.249515e+003,-7.678650e-001
3.250479e+003,-5.998001e-001
3.251444e+003,2.132111e-002
3.252408e+003,-8.274841e-003
3.253372e+003,-2.000145e+000
3.254336e+003,-3.268686e+000
3.255301e+003,-3.685391e+000
3.256265e+003,-2.725214e+000
3.257229e+003,-9.188385e-001
3.258193e+003,-4.309891e-001
3.259157e+003,-1.201291e+000
3.260122e+003,-2.599374e+000
3.261086e+003,-3.850330e+000
3.262050e+003,-3.602779e+000
3.263014e+003,-2.508310e+000
3.263979e+003,-1.908285e+000
3.264943e+003,-1.509543e+000
3.265907e+003,-1.047292e+000
3.266871e+003,-4.658508e-001
3.267836e+003,4.465515e-001
3.268800e+003,8.158264e-001
3.269764e+003,4.229752e-001
3.270728e+003,2.141769e-001
3.271693e+003,4.616958e-001
3.272657e+003,2.661545e-001
3.273621e+003,-7.209183e-001
3.274585e+003,-1.306328e+000
3.275550e+003,-1.436583e+000
3.276514e+003,-6.557846e-001
3.277478e+003,4.965958e-001
3.278442e+003,3.548675e-001
3.279406e+003,-4.038559e-001
3.280371e+003,-8.135574e-001
3.281335e+003,-1.015752e+000
3.282299e+003,-1.220474e+000
3.283263e+003,-1.178763e+000
3.284228e+003,-6.514114e-001
3.285192e+003,9.077301e-002
3.286156e+003,1.310922e+000
3.287120e+003,1.566287e+000
3.288084e+003,-3.983002e-002
3.289049e+003,9.594879e-002
3.290013e+003,1.945085e+000
3.290977e+003,1.701671e+000
3.291941e+003,-1.888550e-001
3.292906e+003,-1.923706e-001
3.293870e+003,1.425633e+000
3.294834e+003,1.919353e+000
3.295798e+003,1.538872e+000
3.296763e+003,6.535934e-001
3.297727e+003,-1.399506e-001
3.298691e+003,3.363541e-001
3.299655e+003,1.168059e+000
3.300620e+003,1.901831e+000
3.301584e+003,2.307729e+000
3.302548e+003,2.307658e+000
3.303512e+003,2.027121e+000
3.304477e+003,1.644720e+000
3.305441e+003,2.232521e+000
3.306405e+003,4.181892e+000
3.307369e+003,3.854015e+000
3.308333e+003,9.631683e-001
3.309298e+003,1.140698e+000
3.310262e+003,3.189436e+000
3.311226e+003,3.670148e+000
3.312190e+003,3.305649e+000
3.313155e+003,3.289536e+000
3.314119e+003,3.205545e+000
3.315083e+003,2.625116e+000
3.316047e+003,2.136108e+000
3.317011e+003,2.235739e+000
3.317976e+003,2.325166e+000
3.318940e+003,1.552852e+000
3.319904e+003,1.805428e+000
3.320868e+003,3.791385e+000
3.321833e+003,4.071826e+000
3.322797e+003,2.831351e+000
3.323761e+003,2.747807e+000
3.324725e+003,3.562100e+000
3.325690e+003,3.633853e+000
3.326654e+003,3.059465e+000
3.327618e+003,2.478244e+000
3.328582e+003,2.067023e+000
3.329547e+003,2.392564e+000
3.330511e+003,2.714763e+000
3.331475e+003,2.242607e+000
3.332439e+003,1.222211e+000
3.333404e+003,-6.783539e-001
3.334368e+003,-1.157185e+000
3.335332e+003,1.446426e-001
3.336296e+003,1.195665e+000
3.337260e+003,1.460754e+000
3.338225e+003,1.782398e+000
3.339189e+003,2.278888e+000
3.340153e+003,2.301535e+000
3.341117e+003,1.847716e+000
3.342082e+003,3.353897e-001
3.343046e+003,-1.129942e+000
3.344010e+003,-4.483520e-001
3.344974e+003,7.776657e-001
3.345938e+003,1.542395e+000
3.346903e+003,1.441072e+000
3.347867e+003,2.999161e-001
3.348831e+003,-4.820145e-001
3.349795e+003,-1.230850e-001
3.350760e+003,3.557846e-001
3.351724e+003,6.944580e-001
3.352688e+003,5.585083e-001
3.353652e+003,2.372894e-002
3.354617e+003,-3.637146e-001
3.355581e+003,-5.209335e-001
3.356545e+003,-1.586884e-001
3.357509e+003,2.631637e-001
3.358474e+003,1.537170e-001
3.359438e+003,-8.536987e-002
3.360402e+003,-8.879242e-002
3.361366e+003,1.362656e-001
3.362331e+003,9.609253e-001
3.363295e+003,8.762360e-001
3.364259e+003,-1.626619e+000
3.365223e+003,-1.678194e+000
3.366188e+003,7.330963e-001
3.367152e+003,1.627864e+000
3.368116e+003,1.026166e+000
3.369080e+003,8.323700e-001
3.370044e+003,9.720642e-001
3.371009e+003,5.062469e-001
3.371973e+003,-2.180344e-001
3.372937e+003,-5.976974e-001
3.373901e+003,-7.761230e-001
3.374865e+003,-9.706497e-001
3.375830e+003,-8.866165e-001
3.376794e+003,-1.320984e-001
3.377758e+003,-4.425461e-001
3.378722e+003,-1.971724e+000
3.379687e+003,-2.712526e+000
3.380651e+003,-2.169074e+000
3.381615e+003,-4.378327e-001
3.382579e+003,1.834503e+000
3.383544e+003,1.317773e+000
3.384508e+003,-9.283966e-001
3.385472e+003,-1.430080e+000
3.386436e+003,-9.083344e-001
3.387401e+003,3.757828e-001
3.388365e+003,1.283846e+000
3.389329e+003,1.257191e+000
3.390293e+003,1.273721e+000
3.391258e+003,1.672504e+000
3.392222e+003,1.315689e+000
3.393186e+003,-2.409439e-001
3.394150e+003,3.560654e-001
3.395115e+003,3.476886e+000
3.396079e+003,3.349806e+000
3.397043e+003,1.415822e+000
3.398007e+003,2.242133e+000
3.398971e+003,4.294916e+000
3.399936e+003,5.743498e+000
3.400900e+003,6.340988e+000
3.401864e+003,5.973704e+000
3.402828e+003,5.419388e+000
3.403792e+003,5.201097e+000
3.404757e+003,5.637723e+000
3.405721e+003,7.255675e+000
3.406685e+003,8.497973e+000
3.407649e+003,9.280340e+000
3.408614e+003,8.728195e+000
3.409578e+003,7.977725e+000
3.410542e+003,1.086239e+001
3.411506e+003,1.461005e+001
3.412471e+003,1.443728e+001
3.413435e+003,1.350039e+001
3.414399e+003,1.495426e+001
3.415363e+003,1.690695e+001
3.416328e+003,1.777019e+001
3.417292e+003,1.783285e+001
3.418256e+003,1.675250e+001
3.419220e+003,1.673160e+001
3.420185e+003,1.773832e+001
3.421149e+003,1.812559e+001
3.422113e+003,1.796160e+001
3.423077e+003,1.793951e+001
3.424042e+003,1.830251e+001
3.425006e+003,1.954220e+001
3.425970e+003,2.017944e+001
3.426934e+003,1.707233e+001
