7.140112e+001,7.606865e+001
7.236536e+001,7.377171e+001
7.332959e+001,7.304351e+001
7.429382e+001,7.283433e+001
7.525806e+001,7.350962e+001
7.622229e+001,7.248817e+001
7.718652e+001,6.764919e+001
7.815076e+001,5.659686e+001
7.911499e+001,4.949667e+001
8.007922e+001,4.411509e+001
8.104346e+001,4.246660e+001
8.200769e+001,4.717920e+001
8.297192e+001,6.453228e+001
8.393616e+001,8.028932e+001
8.490039e+001,9.285361e+001
8.586462e+001,1.011396e+002
8.682886e+001,1.039790e+002
8.779310e+001,9.569909e+001
8.875733e+001,8.355653e+001
8.972157e+001,7.093242e+001
9.068580e+001,5.931240e+001
9.165003e+001,4.899683e+001
9.261427e+001,4.185473e+001
9.357850e+001,3.702302e+001
9.454273e+001,3.508510e+001
9.550697e+001,3.692925e+001
9.647120e+001,4.488893e+001
9.743543e+001,4.807233e+001
9.839967e+001,4.494062e+001
9.936390e+001,3.884108e+001
1.003281e+002,3.353477e+001
1.012924e+002,2.926205e+001
1.022566e+002,2.615385e+001
1.032208e+002,2.457435e+001
1.041851e+002,2.423369e+001
1.051493e+002,2.446288e+001
1.061135e+002,2.552438e+001
1.070778e+002,2.627748e+001
1.080420e+002,2.622565e+001
1.090062e+002,2.519869e+001
1.099705e+002,2.335913e+001
1.109347e+002,1.982103e+001
1.118989e+002,1.577967e+001
1.128632e+002,1.356964e+001
1.138274e+002,1.493591e+001
1.147916e+002,2.067463e+001
1.157559e+002,2.416204e+001
1.167201e+002,2.536060e+001
1.176843e+002,2.518659e+001
1.186486e+002,2.463160e+001
1.196128e+002,2.286712e+001
1.205770e+002,2.183001e+001
1.215413e+002,2.271181e+001
1.225055e+002,2.443853e+001
1.234697e+002,2.466702e+001
1.244340e+002,1.933704e+001
1.253982e+002,1.410759e+001
1.263624e+002,1.020611e+001
1.273267e+002,8.233124e+000
1.282909e+002,8.347534e+000
1.292551e+002,1.367175e+001
1.302194e+002,2.044005e+001
1.311836e+002,2.528713e+001
1.321478e+002,2.604009e+001
1.331121e+002,2.247877e+001
1.340763e+002,1.767247e+001
1.350405e+002,1.138252e+001
1.360048e+002,5.603766e+000
1.369690e+002,2.326190e+000
1.379332e+002,2.449115e+000
1.388975e+002,4.749616e+000
1.398617e+002,1.095898e+001
1.408259e+002,1.858184e+001
1.417902e+002,2.376260e+001
1.427544e+002,2.409983e+001
1.437186e+002,2.225059e+001
1.446829e+002,1.737226e+001
1.456471e+002,1.055956e+001
1.466113e+002,4.292840e+000
1.475756e+002,1.848810e+000
1.485398e+002,1.948041e+000
1.495040e+002,5.657104e+000
1.504683e+002,1.279579e+001
1.514325e+002,2.183426e+001
1.523967e+002,2.315282e+001
1.533610e+002,1.857472e+001
1.543252e+002,1.294044e+001
1.552894e+002,9.693469e+000
1.562537e+002,9.869214e+000
1.572179e+002,9.439880e+000
1.581821e+002,6.727191e+000
1.591464e+002,4.498291e+000
1.601106e+002,6.201917e+000
1.610748e+002,1.714871e+001
1.620391e+002,2.399313e+001
1.630033e+002,2.203238e+001
1.639676e+002,1.479352e+001
1.649318e+002,7.745691e+000
1.658960e+002,6.051202e+000
1.668603e+002,6.649078e+000
1.678245e+002,8.497742e+000
1.687887e+002,1.087139e+001
1.697530e+002,1.287158e+001
1.707172e+002,1.121800e+001
1.716814e+002,7.285034e+000
1.726457e+002,4.388232e+000
1.736099e+002,3.820673e+000
1.745741e+002,5.674011e+000
1.755384e+002,6.699029e+000
1.765026e+002,7.035211e+000
1.774668e+002,6.766253e+000
1.784311e+002,5.836499e+000
1.793953e+002,4.078467e+000
1.803595e+002,2.350653e+000
1.813238e+002,-3.906250e-003
1.822880e+002,-2.052570e+000
1.832522e+002,-2.687256e+000
1.842165e+002,-4.125732e-001
1.851807e+002,1.324646e+000
1.861449e+002,-8.026245e-001
1.871092e+002,-4.838666e+000
1.880734e+002,-8.204468e+000
1.890376e+002,-7.170581e+000
1.900019e+002,-2.975024e+000
1.909661e+002,4.714233e-001
1.919303e+002,2.873505e+000
1.928946e+002,4.307678e+000
1.938588e+002,4.850122e+000
1.948230e+002,3.674396e+000
1.957873e+002,3.447644e+000
1.967515e+002,4.114752e+000
1.977157e+002,5.770196e+000
1.986800e+002,1.034799e+001
1.996442e+002,1.875872e+001
2.006084e+002,2.889691e+001
2.015727e+002,4.330423e+001
2.025369e+002,6.241453e+001
2.035011e+002,7.496646e+001
2.044654e+002,6.957177e+001
2.054296e+002,5.782856e+001
2.063938e+002,4.487751e+001
2.073581e+002,3.427626e+001
2.083223e+002,2.706415e+001
2.092865e+002,2.444534e+001
2.102508e+002,2.560712e+001
2.112150e+002,3.068206e+001
2.121792e+002,3.998660e+001
2.131435e+002,5.531245e+001
2.141077e+002,6.334825e+001
2.150719e+002,6.184148e+001
2.160362e+002,5.547713e+001
2.170004e+002,5.096692e+001
2.179646e+002,4.889140e+001
2.189289e+002,4.844800e+001
2.198931e+002,4.781135e+001
2.208573e+002,4.861773e+001
2.218216e+002,5.429259e+001
2.227858e+002,7.355112e+001
2.237500e+002,9.162466e+001
2.247143e+002,1.046801e+002
2.256785e+002,1.113024e+002
2.266427e+002,1.108474e+002
2.276070e+002,9.691839e+001
2.285712e+002,7.616381e+001
2.295354e+002,5.640326e+001
2.304997e+002,4.007813e+001
2.314639e+002,2.712243e+001
2.324281e+002,1.823456e+001
2.333924e+002,1.373387e+001
2.343566e+002,1.049138e+001
2.353208e+002,7.547485e+000
2.362851e+002,4.895630e+000
2.372493e+002,2.591650e+000
2.382135e+002,6.016175e-001
2.391778e+002,-1.182581e+000
2.401420e+002,-2.860956e+000
2.411062e+002,-4.499768e+000
2.420705e+002,-5.705444e+000
2.430347e+002,-6.396661e+000
2.439989e+002,-6.687805e+000
2.449632e+002,-6.444525e+000
2.459274e+002,-5.505151e+000
2.468916e+002,-4.416095e+000
2.478559e+002,-4.153418e+000
2.488201e+002,-4.594800e+000
2.497843e+002,-5.802313e+000
2.507486e+002,-7.894739e+000
2.517128e+002,-1.123392e+001
2.526770e+002,-1.202838e+001
2.536413e+002,-9.406916e+000
2.546055e+002,-5.211438e+000
2.555697e+002,-2.290436e+000
2.565340e+002,-1.501819e+000
2.574982e+002,-1.026623e+000
2.584625e+002,-7.209778e-001
2.594267e+002,-4.896728e-001
2.603909e+002,-2.368347e-001
2.613552e+002,2.135437e-001
2.623194e+002,2.910156e-001
2.632836e+002,-4.482178e-001
2.642479e+002,-1.752362e+000
2.652121e+002,-3.084424e+000
2.661763e+002,-3.627563e+000
2.671406e+002,-3.631634e+000
2.681048e+002,-3.415167e+000
2.690690e+002,-3.061243e+000
2.700333e+002,-2.649164e+000
2.709975e+002,-2.480804e+000
2.719617e+002,-2.473700e+000
2.729260e+002,-2.818158e+000
2.738902e+002,-3.662292e+000
2.748544e+002,-4.998175e+000
2.758187e+002,-6.396423e+000
2.767829e+002,-8.616882e+000
2.777471e+002,-1.022684e+001
2.787114e+002,-1.045853e+001
2.796756e+002,-9.224859e+000
2.806398e+002,-7.859632e+000
2.816041e+002,-7.389673e+000
2.825683e+002,-7.173615e+000
2.835325e+002,-6.826593e+000
2.844968e+002,-6.203925e+000
2.854610e+002,-5.602014e+000
2.864252e+002,-6.173438e+000
2.873895e+002,-7.255737e+000
2.883537e+002,-7.615680e+000
2.893179e+002,-6.441559e+000
2.902822e+002,-3.563019e+000
2.912464e+002,-2.430121e+000
2.922106e+002,-3.165991e+000
2.931749e+002,-4.623260e+000
2.941391e+002,-6.300238e+000
2.951033e+002,-8.521875e+000
2.960676e+002,-1.004122e+001
2.970318e+002,-1.076284e+001
2.979960e+002,-1.083770e+001
2.989603e+002,-1.015200e+001
2.999245e+002,-8.456146e+000
3.008887e+002,-7.050110e+000
3.018530e+002,-7.056012e+000
3.028172e+002,-7.637604e+000
3.037814e+002,-8.005371e+000
3.047457e+002,-7.476642e+000
3.057099e+002,-6.334448e+000
3.066741e+002,-5.306909e+000
3.076384e+002,-4.525775e+000
3.086026e+002,-4.754126e+000
3.095668e+002,-6.952857e+000
3.105311e+002,-1.233152e+001
3.114953e+002,-1.467531e+001
3.124595e+002,-1.231357e+001
3.134238e+002,-8.357513e+000
3.143880e+002,-6.547589e+000
3.153522e+002,-8.790039e+000
3.163165e+002,-1.030457e+001
3.172807e+002,-1.002452e+001
3.182449e+002,-8.678106e+000
3.192092e+002,-6.972491e+000
3.201734e+002,-4.990540e+000
3.211376e+002,-3.766693e+000
3.221019e+002,-4.401233e+000
3.230661e+002,-6.066412e+000
3.240303e+002,-7.590186e+000
3.249946e+002,-7.593842e+000
3.259588e+002,-6.077234e+000
3.269230e+002,-4.279779e+000
3.278873e+002,-2.173157e+000
3.288515e+002,-3.093384e-001
3.298157e+002,3.003052e-001
3.307800e+002,-1.715039e+000
3.317442e+002,-2.399780e+000
3.327084e+002,-1.277948e+000
3.336727e+002,8.812134e-001
3.346369e+002,2.828711e+000
3.356011e+002,4.372607e+000
3.365654e+002,5.629541e+000
3.375296e+002,6.365180e+000
3.384938e+002,6.936981e+000
3.394581e+002,7.818646e+000
3.404223e+002,9.394177e+000
3.413865e+002,1.147149e+001
3.423508e+002,1.378891e+001
3.433150e+002,1.640756e+001
3.442792e+002,1.937448e+001
3.452435e+002,2.270787e+001
3.462077e+002,2.661894e+001
3.471719e+002,3.161922e+001
3.481362e+002,3.722929e+001
3.491004e+002,4.459459e+001
3.500646e+002,5.625117e+001
3.510289e+002,7.046877e+001
3.519931e+002,9.373104e+001
3.529573e+002,1.290674e+002
3.539216e+002,1.727249e+002
3.548858e+002,2.200380e+002
3.558500e+002,2.838357e+002
3.568143e+002,3.285950e+002
3.577785e+002,3.422517e+002
3.587427e+002,3.294572e+002
3.597070e+002,2.977431e+002
3.606712e+002,2.464031e+002
3.616354e+002,1.893403e+002
3.625997e+002,1.435718e+002
3.635639e+002,1.098021e+002
3.645281e+002,8.575539e+001
3.654924e+002,6.738781e+001
3.664566e+002,5.632066e+001
3.674208e+002,4.621507e+001
3.683851e+002,3.680980e+001
3.693493e+002,2.842859e+001
3.703135e+002,2.184861e+001
3.712778e+002,1.795946e+001
3.722420e+002,1.545411e+001
3.732062e+002,1.483147e+001
3.741705e+002,1.529181e+001
3.751347e+002,1.569308e+001
3.760989e+002,1.542569e+001
3.770632e+002,1.499977e+001
3.780274e+002,1.492737e+001
3.789916e+002,1.479349e+001
3.799559e+002,1.383555e+001
3.809201e+002,1.093027e+001
3.818844e+002,7.199145e+000
3.828486e+002,5.713080e+000
3.838128e+002,6.324908e+000
3.847771e+002,7.704492e+000
3.857413e+002,7.830255e+000
3.867055e+002,5.886060e+000
3.876698e+002,4.958844e+000
3.886340e+002,5.004822e+000
3.895982e+002,5.882422e+000
3.905625e+002,7.589667e+000
3.915267e+002,1.101075e+001
3.924909e+002,1.378878e+001
3.934552e+002,1.591246e+001
3.944194e+002,1.715316e+001
3.953836e+002,1.701345e+001
3.963479e+002,1.465561e+001
3.973121e+002,1.217042e+001
3.982763e+002,1.170191e+001
3.992406e+002,1.242003e+001
4.002048e+002,1.312794e+001
4.011690e+002,1.264891e+001
4.021333e+002,1.125057e+001
4.030975e+002,1.098005e+001
4.040617e+002,1.177510e+001
4.050260e+002,1.358369e+001
4.059902e+002,1.648342e+001
4.069544e+002,2.097799e+001
4.079187e+002,2.514871e+001
4.088829e+002,2.822633e+001
4.098471e+002,3.155911e+001
4.108114e+002,3.606381e+001
4.117756e+002,4.193745e+001
4.127398e+002,4.912583e+001
4.137041e+002,6.076879e+001
4.146683e+002,7.144768e+001
4.156325e+002,7.682948e+001
4.165968e+002,7.465382e+001
4.175610e+002,6.802599e+001
4.185252e+002,6.081853e+001
4.194895e+002,5.374697e+001
4.204537e+002,4.775562e+001
4.214179e+002,4.347218e+001
4.223822e+002,4.086995e+001
4.233464e+002,3.954836e+001
4.243106e+002,3.909866e+001
4.252749e+002,3.959729e+001
4.262391e+002,4.063134e+001
4.272033e+002,4.205312e+001
4.281676e+002,4.692392e+001
4.291318e+002,5.545556e+001
4.300960e+002,6.702996e+001
4.310603e+002,8.137182e+001
4.320245e+002,9.836012e+001
4.329887e+002,1.185885e+002
4.339530e+002,1.446290e+002
4.349172e+002,1.729926e+002
4.358814e+002,2.061408e+002
4.368457e+002,2.418739e+002
4.378099e+002,2.738887e+002
4.387741e+002,2.888377e+002
4.397384e+002,2.886822e+002
4.407026e+002,2.781632e+002
4.416668e+002,2.572510e+002
4.426311e+002,2.289393e+002
4.435953e+002,2.032879e+002
4.445595e+002,1.796841e+002
4.455238e+002,1.604476e+002
4.464880e+002,1.469887e+002
4.474522e+002,1.378799e+002
4.484165e+002,1.304692e+002
4.493807e+002,1.261367e+002
4.503449e+002,1.210728e+002
4.513092e+002,1.138912e+002
4.522734e+002,1.051800e+002
4.532376e+002,9.583930e+001
4.542019e+002,8.654747e+001
4.551661e+002,7.724617e+001
4.561303e+002,6.687750e+001
4.570946e+002,5.635201e+001
4.580588e+002,4.764404e+001
4.590230e+002,4.295238e+001
4.599873e+002,4.273735e+001
4.609515e+002,4.158108e+001
4.619157e+002,3.868607e+001
4.628800e+002,3.627092e+001
4.638442e+002,3.666055e+001
4.648084e+002,4.118850e+001
4.657727e+002,4.452470e+001
4.667369e+002,4.551017e+001
4.677011e+002,4.641148e+001
4.686654e+002,4.905554e+001
4.696296e+002,5.404293e+001
4.705938e+002,5.803865e+001
4.715581e+002,5.849602e+001
4.725223e+002,5.704332e+001
4.734865e+002,5.434394e+001
4.744508e+002,5.082537e+001
4.754150e+002,4.666124e+001
4.763792e+002,4.160950e+001
4.773435e+002,3.612442e+001
4.783077e+002,3.175563e+001
4.792719e+002,2.911876e+001
4.802362e+002,2.793358e+001
4.812004e+002,2.654567e+001
4.821646e+002,2.535621e+001
4.831289e+002,2.328990e+001
4.840931e+002,1.923922e+001
4.850573e+002,1.409762e+001
4.860216e+002,1.030037e+001
4.869858e+002,9.573999e+000
4.879500e+002,9.590612e+000
4.889143e+002,1.020229e+001
4.898785e+002,1.084636e+001
4.908427e+002,1.063999e+001
4.918070e+002,8.442853e+000
4.927712e+002,5.808337e+000
4.937354e+002,5.362915e+000
4.946997e+002,6.584692e+000
4.956639e+002,8.169904e+000
4.966281e+002,8.791895e+000
4.975924e+002,8.328876e+000
4.985566e+002,8.766058e+000
4.995208e+002,9.967285e+000
5.004851e+002,1.186954e+001
5.014493e+002,1.466768e+001
5.024135e+002,1.864680e+001
5.033778e+002,2.222216e+001
5.043420e+002,2.485153e+001
5.053063e+002,2.765607e+001
5.062705e+002,3.190465e+001
5.072347e+002,3.746375e+001
5.081990e+002,4.140396e+001
5.091632e+002,4.009478e+001
5.101274e+002,3.629291e+001
5.110917e+002,3.029233e+001
5.120559e+002,2.288898e+001
5.130201e+002,1.552001e+001
5.139844e+002,1.109528e+001
5.149486e+002,9.454224e+000
5.159128e+002,7.915894e+000
5.168771e+002,6.367975e+000
5.178413e+002,4.572015e+000
5.188055e+002,1.889893e+000
5.197698e+002,-3.243958e+000
5.207340e+002,-6.797870e+000
5.216982e+002,-8.292852e+000
5.226625e+002,-8.523138e+000
5.236267e+002,-8.124823e+000
5.245909e+002,-6.922193e+000
5.255552e+002,-6.190094e+000
5.265194e+002,-7.041205e+000
5.274836e+002,-8.252398e+000
5.284479e+002,-8.707019e+000
5.294121e+002,-7.787048e+000
5.303763e+002,-6.048615e+000
5.313406e+002,-4.338330e+000
5.323048e+002,-2.897534e+000
5.332690e+002,-2.468445e+000
5.342333e+002,-3.450122e+000
5.351975e+002,-5.625085e+000
5.361617e+002,-7.335242e+000
5.371260e+002,-8.947107e+000
5.380902e+002,-9.527277e+000
5.390544e+002,-8.036883e+000
5.400187e+002,-5.314807e+000
5.409829e+002,-4.106036e+000
5.419471e+002,-6.715552e+000
5.429114e+002,-8.682477e+000
5.438756e+002,-8.179285e+000
5.448398e+002,-6.433905e+000
5.458041e+002,-5.395380e+000
5.467683e+002,-6.554474e+000
5.477325e+002,-8.753809e+000
5.486968e+002,-1.070024e+001
5.496610e+002,-1.216910e+001
5.506252e+002,-1.247603e+001
5.515895e+002,-1.104707e+001
5.525537e+002,-7.941980e+000
5.535179e+002,-6.639587e+000
5.544822e+002,-7.236890e+000
5.554464e+002,-8.215729e+000
5.564106e+002,-8.968866e+000
5.573749e+002,-9.523877e+000
5.583391e+002,-1.001999e+001
5.593033e+002,-1.028828e+001
5.602676e+002,-1.060564e+001
5.612318e+002,-1.116157e+001
5.621960e+002,-1.185854e+001
5.631603e+002,-1.234843e+001
5.641245e+002,-1.210095e+001
5.650887e+002,-1.188008e+001
5.660530e+002,-1.282925e+001
5.670172e+002,-1.436646e+001
5.679814e+002,-1.510381e+001
5.689457e+002,-1.348417e+001
5.699099e+002,-9.749860e+000
5.708741e+002,-7.691144e+000
5.718384e+002,-7.272082e+000
5.728026e+002,-7.683923e+000
5.737668e+002,-8.444287e+000
5.747311e+002,-9.672620e+000
5.756953e+002,-1.075658e+001
5.766595e+002,-1.201000e+001
5.776238e+002,-1.281760e+001
5.785880e+002,-1.260880e+001
5.795522e+002,-1.153227e+001
5.805165e+002,-1.072162e+001
5.814807e+002,-1.109951e+001
5.824449e+002,-1.183010e+001
5.834092e+002,-1.287139e+001
5.843734e+002,-1.394144e+001
5.853376e+002,-1.450276e+001
5.863019e+002,-1.380532e+001
5.872661e+002,-1.213796e+001
5.882303e+002,-1.139270e+001
5.891946e+002,-1.158478e+001
5.901588e+002,-1.194809e+001
5.911230e+002,-1.165118e+001
5.920873e+002,-1.040644e+001
5.930515e+002,-9.722082e+000
5.940157e+002,-9.288519e+000
5.949800e+002,-9.449579e+000
5.959442e+002,-1.096314e+001
5.969084e+002,-1.374433e+001
5.978727e+002,-1.555451e+001
5.988369e+002,-1.432913e+001
5.998011e+002,-1.238715e+001
6.007654e+002,-9.894806e+000
6.017296e+002,-7.428546e+000
6.026938e+002,-5.976556e+000
6.036581e+002,-6.928687e+000
6.046223e+002,-9.493586e+000
6.055865e+002,-1.089446e+001
6.065508e+002,-1.114493e+001
6.075150e+002,-1.096449e+001
6.084792e+002,-1.115834e+001
6.094435e+002,-1.192671e+001
6.104077e+002,-1.186915e+001
6.113719e+002,-1.042111e+001
6.123362e+002,-9.074030e+000
6.133004e+002,-9.010730e+000
6.142646e+002,-1.021645e+001
6.152289e+002,-1.034800e+001
6.161931e+002,-6.670325e+000
6.171573e+002,-3.309216e+000
6.181216e+002,-1.848090e+000
6.190858e+002,-1.997528e+000
6.200500e+002,-2.596173e+000
6.210143e+002,-2.743860e+000
6.219785e+002,-2.423828e+000
6.229427e+002,-1.748071e+000
6.239070e+002,-7.568359e-001
6.248712e+002,4.924560e-001
6.258354e+002,1.998669e+000
6.267997e+002,3.899560e+000
6.277639e+002,5.363684e+000
6.287281e+002,6.262970e+000
6.296924e+002,6.870904e+000
6.306566e+002,7.299506e+000
6.316208e+002,7.543542e+000
6.325851e+002,7.541913e+000
6.335493e+002,7.453784e+000
6.345135e+002,7.003534e+000
6.354778e+002,5.566968e+000
6.364420e+002,3.685846e+000
6.374063e+002,2.459326e+000
6.383705e+002,2.946606e+000
6.393347e+002,4.032300e+000
6.402990e+002,3.967029e+000
6.412632e+002,3.006006e+000
6.422274e+002,1.508539e+000
6.431917e+002,-2.958923e-001
6.441559e+002,-2.378949e+000
6.451201e+002,-3.349298e+000
6.460844e+002,-2.735449e+000
6.470486e+002,-2.193774e+000
6.480128e+002,-2.121967e+000
6.489771e+002,-2.480023e+000
6.499413e+002,-3.171710e+000
6.509055e+002,-4.797266e+000
6.518698e+002,-5.966217e+000
6.528340e+002,-6.041913e+000
6.537982e+002,-5.543189e+000
6.547625e+002,-5.086890e+000
6.557267e+002,-5.007220e+000
6.566909e+002,-5.315875e+000
6.576552e+002,-6.437579e+000
6.586194e+002,-7.806763e+000
6.595836e+002,-8.502808e+000
6.605479e+002,-8.053546e+000
6.615121e+002,-6.615247e+000
6.624763e+002,-4.892889e+000
6.634406e+002,-2.436450e+000
6.644048e+002,-9.279297e-001
6.653690e+002,-1.076453e+000
6.663333e+002,-2.284393e+000
6.672975e+002,-3.398224e+000
6.682617e+002,-4.267761e+000
6.692260e+002,-4.913251e+000
6.701902e+002,-5.480237e+000
6.711544e+002,-5.805402e+000
6.721187e+002,-5.634576e+000
6.730829e+002,-4.945038e+000
6.740471e+002,-4.275574e+000
6.750114e+002,-4.795862e+000
6.759756e+002,-5.474841e+000
6.769398e+002,-4.967542e+000
6.779041e+002,-3.121027e+000
6.788683e+002,-8.936768e-001
6.798325e+002,-2.408447e-002
6.807968e+002,-9.865783e-001
6.817610e+002,-1.809827e+000
6.827252e+002,-2.631476e+000
6.836895e+002,-3.219342e+000
6.846537e+002,-3.398584e+000
6.856179e+002,-3.181592e+000
6.865822e+002,-2.563794e+000
6.875464e+002,-6.441590e-001
6.885106e+002,8.080200e-001
6.894749e+002,5.931824e-001
6.904391e+002,-9.459473e-001
6.914034e+002,-2.310321e+000
6.923676e+002,-2.062829e+000
6.933318e+002,-9.153015e-001
6.942961e+002,1.918152e-001
6.952603e+002,1.165979e+000
6.962245e+002,1.747614e+000
6.971888e+002,1.654053e+000
6.981530e+002,8.335632e-001
6.991172e+002,1.402063e+000
7.000815e+002,4.027204e+000
7.010457e+002,6.342810e+000
7.020099e+002,7.263019e+000
7.029742e+002,7.163898e+000
7.039384e+002,7.753015e+000
7.049026e+002,1.019361e+001
7.058669e+002,1.209977e+001
7.068311e+002,1.227860e+001
7.077953e+002,1.177512e+001
7.087596e+002,1.220721e+001
7.097238e+002,1.454799e+001
7.106880e+002,1.692700e+001
7.116523e+002,1.551933e+001
7.126165e+002,1.225891e+001
7.135807e+002,9.993200e+000
7.145450e+002,9.819794e+000
7.155092e+002,1.087466e+001
7.164734e+002,1.073991e+001
7.174377e+002,8.462194e+000
7.184019e+002,6.978729e+000
7.193661e+002,6.732160e+000
7.203304e+002,6.895288e+000
7.212946e+002,6.548492e+000
7.222589e+002,5.474341e+000
7.232231e+002,4.814612e+000
7.241873e+002,5.252271e+000
7.251516e+002,5.872638e+000
7.261158e+002,6.314307e+000
7.270800e+002,6.419909e+000
7.280443e+002,6.123914e+000
7.290085e+002,5.265357e+000
7.299727e+002,4.134412e+000
7.309370e+002,3.298474e+000
7.319012e+002,2.754730e+000
7.328654e+002,2.368866e+000
7.338297e+002,2.023462e+000
7.347939e+002,1.712018e+000
7.357581e+002,1.335846e+000
7.367224e+002,5.757080e-001
7.376866e+002,1.458862e-001
7.386508e+002,4.889221e-001
7.396151e+002,1.307739e+000
7.405793e+002,1.747259e+000
7.415435e+002,1.320782e+000
7.425078e+002,1.022137e+000
7.434720e+002,1.196832e+000
7.444362e+002,1.656903e+000
7.454005e+002,2.247247e+000
7.463647e+002,2.888306e+000
7.473289e+002,3.559058e+000
7.482932e+002,4.340759e+000
7.492574e+002,5.178473e+000
7.502216e+002,5.877527e+000
7.511859e+002,6.392896e+000
7.521501e+002,6.427728e+000
7.531143e+002,5.341962e+000
7.540786e+002,2.097492e+000
7.550428e+002,5.177917e-001
7.560070e+002,9.360596e-001
7.569713e+002,2.256769e+000
7.579355e+002,4.440912e+000
7.588997e+002,7.239447e+000
7.598640e+002,8.972052e+000
7.608282e+002,8.091864e+000
7.617924e+002,6.431653e+000
7.627567e+002,3.833356e+000
7.637209e+002,1.318720e+000
7.646851e+002,8.117371e-001
7.656494e+002,3.936041e+000
7.666136e+002,9.337207e+000
7.675778e+002,1.159134e+001
7.685421e+002,1.122194e+001
7.695063e+002,1.012410e+001
7.704705e+002,8.776764e+000
7.714348e+002,7.420190e+000
7.723990e+002,7.109082e+000
7.733632e+002,9.201300e+000
7.743275e+002,1.014708e+001
7.752917e+002,8.446173e+000
7.762559e+002,6.486389e+000
7.772202e+002,6.710675e+000
7.781844e+002,9.732721e+000
7.791486e+002,1.284031e+001
7.801129e+002,1.341031e+001
7.810771e+002,1.319829e+001
7.820413e+002,1.314002e+001
7.830056e+002,1.345680e+001
7.839698e+002,1.409121e+001
7.849340e+002,1.499234e+001
7.858983e+002,1.612070e+001
7.868625e+002,1.671778e+001
7.878267e+002,1.649838e+001
7.887910e+002,1.666165e+001
7.897552e+002,1.834629e+001
7.907194e+002,2.127571e+001
7.916837e+002,2.296456e+001
7.926479e+002,2.177524e+001
7.936121e+002,2.109164e+001
7.945764e+002,2.181908e+001
7.955406e+002,2.319320e+001
7.965048e+002,2.434439e+001
7.974691e+002,2.496570e+001
7.984333e+002,2.565897e+001
7.993975e+002,2.717039e+001
8.003618e+002,2.907374e+001
8.013260e+002,3.114379e+001
8.022902e+002,3.327129e+001
8.032545e+002,3.515621e+001
8.042187e+002,3.631347e+001
8.051829e+002,3.642077e+001
8.061472e+002,3.818594e+001
8.071114e+002,4.279769e+001
8.080756e+002,4.726990e+001
8.090399e+002,4.947779e+001
8.100041e+002,4.995492e+001
8.109683e+002,5.236304e+001
8.119326e+002,5.958602e+001
8.128968e+002,6.637465e+001
8.138610e+002,7.036485e+001
8.148253e+002,7.302084e+001
8.157895e+002,7.595345e+001
8.167537e+002,8.003438e+001
8.177180e+002,8.510271e+001
8.186822e+002,9.124562e+001
8.196464e+002,9.821342e+001
8.206107e+002,1.062907e+002
8.215749e+002,1.157307e+002
8.225391e+002,1.240399e+002
8.235034e+002,1.269546e+002
8.244676e+002,1.223658e+002
8.254318e+002,1.184799e+002
8.263961e+002,1.166332e+002
8.273603e+002,1.141660e+002
8.283245e+002,1.093662e+002
8.292888e+002,1.026557e+002
8.302530e+002,9.603542e+001
8.312172e+002,9.018306e+001
8.321815e+002,8.516705e+001
8.331457e+002,8.115939e+001
8.341099e+002,7.791423e+001
8.350742e+002,7.504700e+001
8.360384e+002,7.236287e+001
8.370026e+002,6.998077e+001
8.379669e+002,6.827523e+001
8.389311e+002,6.725052e+001
8.398953e+002,6.585291e+001
8.408596e+002,6.412569e+001
8.418238e+002,6.181203e+001
8.427880e+002,5.829826e+001
8.437523e+002,5.314404e+001
8.447165e+002,4.918348e+001
8.456807e+002,4.778614e+001
8.466450e+002,4.649657e+001
8.476092e+002,4.432298e+001
8.485734e+002,4.153029e+001
8.495377e+002,3.893731e+001
8.505019e+002,3.705479e+001
8.514661e+002,3.562428e+001
8.524304e+002,3.424675e+001
8.533946e+002,3.299648e+001
8.543588e+002,3.204111e+001
8.553231e+002,3.143470e+001
8.562873e+002,3.113484e+001
8.572515e+002,3.107264e+001
8.582158e+002,3.150360e+001
8.591800e+002,3.122991e+001
8.601442e+002,2.933273e+001
8.611085e+002,2.759458e+001
8.620727e+002,2.751663e+001
8.630369e+002,2.901551e+001
8.640012e+002,3.009328e+001
8.649654e+002,2.951612e+001
8.659296e+002,2.898537e+001
8.668939e+002,2.931211e+001
8.678581e+002,3.013308e+001
8.688223e+002,3.095616e+001
8.697866e+002,3.150733e+001
8.707508e+002,3.187150e+001
8.717150e+002,3.239050e+001
8.726793e+002,3.285601e+001
8.736435e+002,3.203120e+001
8.746077e+002,2.938869e+001
8.755720e+002,2.651529e+001
8.765362e+002,2.578352e+001
8.775004e+002,2.804453e+001
8.784647e+002,2.874337e+001
8.794289e+002,2.686750e+001
8.803931e+002,2.457545e+001
8.813574e+002,2.201130e+001
8.823216e+002,1.958938e+001
8.832858e+002,1.805154e+001
8.842501e+002,1.794974e+001
8.852143e+002,1.823543e+001
8.861785e+002,1.794321e+001
8.871428e+002,1.719519e+001
8.881070e+002,1.589315e+001
8.890712e+002,1.414163e+001
8.900355e+002,1.250382e+001
8.909997e+002,1.194983e+001
8.919639e+002,1.277561e+001
8.929282e+002,1.248744e+001
8.938924e+002,1.037676e+001
8.948566e+002,8.263330e+000
8.958209e+002,6.987506e+000
8.967851e+002,6.445746e+000
8.977493e+002,6.208350e+000
8.987136e+002,6.326569e+000
8.996778e+002,6.445575e+000
9.006420e+002,6.620209e+000
9.016063e+002,6.653650e+000
9.025705e+002,6.362067e+000
9.035347e+002,5.721210e+000
9.044990e+002,4.834900e+000
9.054632e+002,3.650592e+000
9.064274e+002,2.333917e+000
9.073917e+002,1.718390e+000
9.083559e+002,1.879413e+000
9.093201e+002,2.220191e+000
9.102844e+002,2.412354e+000
9.112486e+002,2.419141e+000
9.122128e+002,1.707184e+000
9.131771e+002,-9.823181e-001
9.141413e+002,-2.711981e+000
9.151055e+002,-2.243835e+000
9.160698e+002,-1.311829e+000
9.170340e+002,-2.108289e+000
9.179982e+002,-5.024676e+000
9.189625e+002,-7.248419e+000
9.199267e+002,-5.492352e+000
9.208909e+002,-2.622986e+000
9.218552e+002,-1.046283e+000
9.228194e+002,-8.833618e-001
9.237836e+002,-1.918005e+000
9.247479e+002,-4.007324e+000
9.257121e+002,-6.812933e+000
9.266763e+002,-8.312683e+000
9.276406e+002,-7.980225e+000
9.286048e+002,-7.479047e+000
9.295690e+002,-6.669061e+000
9.305333e+002,-5.930524e+000
9.314975e+002,-5.709930e+000
9.324617e+002,-6.073883e+000
9.334260e+002,-6.676056e+000
9.343902e+002,-7.993652e+000
9.353545e+002,-8.948529e+000
9.363187e+002,-8.917963e+000
9.372830e+002,-8.185053e+000
9.382472e+002,-7.155505e+000
9.392114e+002,-6.084674e+000
9.401757e+002,-5.199707e+000
9.411399e+002,-5.461230e+000
9.421041e+002,-6.672492e+000
9.430684e+002,-7.029687e+000
9.440326e+002,-5.888159e+000
9.449968e+002,-4.561267e+000
9.459611e+002,-4.929461e+000
9.469253e+002,-7.362384e+000
9.478895e+002,-8.660632e+000
9.488538e+002,-7.455377e+000
9.498180e+002,-6.458362e+000
9.507822e+002,-6.687524e+000
9.517465e+002,-7.512292e+000
9.527107e+002,-7.925611e+000
9.536749e+002,-7.503992e+000
9.546392e+002,-6.679395e+000
9.556034e+002,-5.931390e+000
9.565676e+002,-5.178369e+000
9.575319e+002,-4.160357e+000
9.584961e+002,-2.871814e+000
9.594603e+002,-1.708209e+000
9.604246e+002,-1.181976e+000
9.613888e+002,-1.324060e+000
9.623530e+002,-5.108643e-001
9.633173e+002,1.781415e+000
9.642815e+002,4.259814e+000
9.652457e+002,6.387830e+000
9.662100e+002,8.942413e+000
9.671742e+002,1.213920e+001
9.681384e+002,1.585009e+001
9.691027e+002,2.273090e+001
9.700669e+002,3.616703e+001
9.710311e+002,5.236613e+001
9.719954e+002,7.349348e+001
9.729596e+002,9.526616e+001
9.739238e+002,1.091245e+002
9.748881e+002,1.093064e+002
9.758523e+002,9.857668e+001
9.768165e+002,8.514781e+001
9.777808e+002,6.804584e+001
9.787450e+002,5.392810e+001
9.797092e+002,4.472034e+001
9.806735e+002,3.774244e+001
9.816377e+002,2.996782e+001
9.826019e+002,2.133941e+001
9.835662e+002,1.578902e+001
9.845304e+002,1.731668e+001
9.854946e+002,1.876785e+001
9.864589e+002,1.714990e+001
9.874231e+002,1.431743e+001
9.883873e+002,1.262784e+001
9.893516e+002,1.296756e+001
9.903158e+002,1.449709e+001
9.912800e+002,1.627524e+001
9.922443e+002,1.843831e+001
9.932085e+002,2.080122e+001
9.941727e+002,2.330441e+001
9.951370e+002,2.692241e+001
9.961012e+002,3.216774e+001
9.970654e+002,3.888422e+001
9.980297e+002,4.672194e+001
9.989939e+002,5.249388e+001
9.999581e+002,6.576103e+001
1.000922e+003,8.115115e+001
1.001887e+003,1.087882e+002
1.002851e+003,1.608092e+002
1.003815e+003,2.342888e+002
1.004779e+003,3.166587e+002
1.005744e+003,4.126512e+002
1.006708e+003,4.864967e+002
1.007672e+003,4.811035e+002
1.008636e+003,4.190398e+002
1.009600e+003,3.442538e+002
1.010565e+003,2.750725e+002
1.011529e+003,2.128212e+002
1.012493e+003,1.611475e+002
1.013457e+003,1.211159e+002
1.014422e+003,9.138605e+001
1.015386e+003,7.449807e+001
1.016350e+003,6.186493e+001
1.017314e+003,5.104456e+001
1.018279e+003,4.182258e+001
1.019243e+003,3.453862e+001
1.020207e+003,2.952036e+001
1.021171e+003,2.563768e+001
1.022135e+003,2.238163e+001
1.023100e+003,1.953330e+001
1.024064e+003,1.688253e+001
1.025028e+003,1.439772e+001
1.025992e+003,1.229365e+001
1.026957e+003,1.078340e+001
1.027921e+003,9.780182e+000
1.028885e+003,8.390009e+000
1.029849e+003,6.030108e+000
1.030814e+003,4.642584e+000
1.031778e+003,4.983411e+000
1.032742e+003,5.795606e+000
1.033706e+003,6.001672e+000
1.034671e+003,5.589984e+000
1.035635e+003,4.943701e+000
1.036599e+003,3.574042e+000
1.037563e+003,2.862176e+000
1.038527e+003,4.442377e+000
1.039492e+003,6.633905e+000
1.040456e+003,6.869891e+000
1.041420e+003,4.493170e+000
1.042384e+003,1.670203e+000
1.043349e+003,1.702325e+000
1.044313e+003,4.534137e+000
1.045277e+003,5.650561e+000
1.046241e+003,4.590137e+000
1.047206e+003,3.407428e+000
1.048170e+003,2.912286e+000
1.049134e+003,3.017206e+000
1.050098e+003,3.694269e+000
1.051063e+003,5.360138e+000
1.052027e+003,6.399664e+000
1.052991e+003,5.809387e+000
1.053955e+003,4.808124e+000
1.054919e+003,3.849494e+000
1.055884e+003,3.071973e+000
1.056848e+003,2.553070e+000
1.057812e+003,2.366156e+000
1.058776e+003,2.473566e+000
1.059741e+003,2.862817e+000
1.060705e+003,3.384210e+000
1.061669e+003,3.168085e+000
1.062633e+003,1.861560e+000
1.063598e+003,3.845581e-001
1.064562e+003,-3.678040e-001
1.065526e+003,-3.970764e-001
1.066490e+003,-4.437622e-001
1.067454e+003,-1.029022e+000
1.068419e+003,-8.187500e-001
1.069383e+003,1.194727e+000
1.070347e+003,3.355981e+000
1.071311e+003,4.425201e+000
1.072276e+003,4.306738e+000
1.073240e+003,3.575781e+000
1.074204e+003,2.544659e+000
1.075168e+003,1.474298e+000
1.076133e+003,8.803284e-001
1.077097e+003,7.079590e-001
1.078061e+003,9.734131e-001
1.079025e+003,1.733759e+000
1.079990e+003,2.768689e+000
1.080954e+003,3.878668e+000
1.081918e+003,5.134497e+000
1.082882e+003,5.957550e+000
1.083846e+003,6.151849e+000
1.084811e+003,6.013464e+000
1.085775e+003,5.136853e+000
1.086739e+003,4.218903e+000
1.087703e+003,4.231061e+000
1.088668e+003,5.274054e+000
1.089632e+003,6.171430e+000
1.090596e+003,5.745947e+000
1.091560e+003,4.634534e+000
1.092525e+003,4.140326e+000
1.093489e+003,4.141040e+000
1.094453e+003,4.269574e+000
1.095417e+003,4.383539e+000
1.096381e+003,4.552350e+000
1.097346e+003,4.978436e+000
1.098310e+003,5.910492e+000
1.099274e+003,6.193750e+000
1.100238e+003,5.024835e+000
1.101203e+003,4.291962e+000
1.102167e+003,5.005334e+000
1.103131e+003,6.221789e+000
1.104095e+003,6.423816e+000
1.105060e+003,5.259607e+000
1.106024e+003,4.364777e+000
1.106988e+003,5.819678e+000
1.107952e+003,7.887122e+000
1.108917e+003,7.391858e+000
1.109881e+003,4.897186e+000
1.110845e+003,2.880365e+000
1.111809e+003,2.648077e+000
1.112773e+003,3.650909e+000
1.113738e+003,4.793988e+000
1.114702e+003,6.433081e+000
1.115666e+003,7.310718e+000
1.116630e+003,6.842267e+000
1.117595e+003,6.372333e+000
1.118559e+003,6.185443e+000
1.119523e+003,6.360168e+000
1.120487e+003,7.274756e+000
1.121452e+003,9.006201e+000
1.122416e+003,1.014257e+001
1.123380e+003,8.629712e+000
1.124344e+003,6.441333e+000
1.125308e+003,6.666632e+000
1.126273e+003,8.819178e+000
1.127237e+003,1.071925e+001
1.128201e+003,1.118254e+001
1.129165e+003,1.066213e+001
1.130130e+003,1.016884e+001
1.131094e+003,9.613177e+000
1.132058e+003,9.196350e+000
1.133022e+003,8.870264e+000
1.133987e+003,8.750989e+000
1.134951e+003,8.878736e+000
1.135915e+003,9.302252e+000
1.136879e+003,1.036865e+001
1.137844e+003,1.209702e+001
1.138808e+003,1.314174e+001
1.139772e+003,1.167022e+001
1.140736e+003,9.495044e+000
1.141700e+003,9.477063e+000
1.142665e+003,1.105628e+001
1.143629e+003,1.219023e+001
1.144593e+003,1.187252e+001
1.145557e+003,1.090867e+001
1.146522e+003,1.084053e+001
1.147486e+003,1.185193e+001
1.148450e+003,1.261793e+001
1.149414e+003,1.336330e+001
1.150379e+003,1.378060e+001
1.151343e+003,1.372690e+001
1.152307e+003,1.336105e+001
1.153271e+003,1.258649e+001
1.154235e+003,1.145602e+001
1.155200e+003,1.072456e+001
1.156164e+003,1.095795e+001
1.157128e+003,1.209501e+001
1.158092e+003,1.456775e+001
1.159057e+003,1.760203e+001
1.160021e+003,1.883687e+001
1.160985e+003,1.730534e+001
1.161949e+003,1.525599e+001
1.162914e+003,1.640981e+001
1.163878e+003,2.136654e+001
1.164842e+003,2.399821e+001
1.165806e+003,2.178985e+001
1.166771e+003,2.028151e+001
1.167735e+003,2.033066e+001
1.168699e+003,2.121632e+001
1.169663e+003,2.238796e+001
1.170627e+003,2.370789e+001
1.171592e+003,2.528702e+001
1.172556e+003,2.739322e+001
1.173520e+003,2.930062e+001
1.174484e+003,2.964554e+001
1.175449e+003,2.901596e+001
1.176413e+003,2.822957e+001
1.177377e+003,2.745940e+001
1.178341e+003,2.740894e+001
1.179306e+003,2.899728e+001
1.180270e+003,3.210052e+001
1.181234e+003,3.486380e+001
1.182198e+003,3.768942e+001
1.183162e+003,3.924483e+001
1.184127e+003,3.851384e+001
1.185091e+003,3.751702e+001
1.186055e+003,3.801940e+001
1.187019e+003,3.929312e+001
1.187984e+003,3.921476e+001
1.188948e+003,3.675838e+001
1.189912e+003,3.329722e+001
1.190876e+003,2.997863e+001
1.191841e+003,2.732846e+001
1.192805e+003,2.694117e+001
1.193769e+003,2.887582e+001
1.194733e+003,3.031860e+001
1.195698e+003,2.910846e+001
1.196662e+003,2.654086e+001
1.197626e+003,2.632789e+001
1.198590e+003,2.946400e+001
1.199554e+003,3.123330e+001
1.200519e+003,2.985506e+001
1.201483e+003,2.858804e+001
1.202447e+003,2.874086e+001
1.203411e+003,2.944124e+001
1.204376e+003,2.947855e+001
1.205340e+003,2.851728e+001
1.206304e+003,2.707508e+001
1.207268e+003,2.564106e+001
1.208233e+003,2.439941e+001
1.209197e+003,2.353473e+001
1.210161e+003,2.295677e+001
1.211125e+003,2.289737e+001
1.212089e+003,2.369861e+001
1.213054e+003,2.440241e+001
1.214018e+003,2.361130e+001
1.214982e+003,2.159775e+001
1.215946e+003,2.114197e+001
1.216911e+003,2.330121e+001
1.217875e+003,2.546752e+001
1.218839e+003,2.713900e+001
1.219803e+003,2.818829e+001
1.220768e+003,2.851275e+001
1.221732e+003,2.826476e+001
1.222696e+003,2.749484e+001
1.223660e+003,2.626323e+001
1.224625e+003,2.512084e+001
1.225589e+003,2.508279e+001
1.226553e+003,2.617015e+001
1.227517e+003,2.757242e+001
1.228481e+003,2.991951e+001
1.229446e+003,3.117596e+001
1.230410e+003,2.940803e+001
1.231374e+003,2.644942e+001
1.232338e+003,2.557430e+001
1.233303e+003,2.713738e+001
1.234267e+003,2.860905e+001
1.235231e+003,2.916762e+001
1.236195e+003,2.927069e+001
1.237160e+003,2.873893e+001
1.238124e+003,2.812086e+001
1.239088e+003,2.837086e+001
1.240052e+003,2.947321e+001
1.241016e+003,3.029357e+001
1.241981e+003,2.971588e+001
1.242945e+003,2.809368e+001
1.243909e+003,2.710209e+001
1.244873e+003,2.709957e+001
1.245838e+003,2.704515e+001
1.246802e+003,2.647390e+001
1.247766e+003,2.631799e+001
1.248730e+003,2.730684e+001
1.249695e+003,2.904210e+001
1.250659e+003,3.077566e+001
1.251623e+003,3.238545e+001
1.252587e+003,3.352834e+001
1.253552e+003,3.395177e+001
1.254516e+003,3.371226e+001
1.255480e+003,3.263526e+001
1.256444e+003,3.104444e+001
1.257408e+003,2.949091e+001
1.258373e+003,2.823765e+001
1.259337e+003,2.775646e+001
1.260301e+003,2.894933e+001
1.261265e+003,3.187811e+001
1.262230e+003,3.299145e+001
1.263194e+003,2.918436e+001
1.264158e+003,2.779739e+001
1.265122e+003,3.173038e+001
1.266087e+003,3.582929e+001
1.267051e+003,3.624889e+001
1.268015e+003,3.405956e+001
1.268979e+003,3.264418e+001
1.269943e+003,3.336049e+001
1.270908e+003,3.468330e+001
1.271872e+003,3.502390e+001
1.272836e+003,3.480431e+001
1.273800e+003,3.503071e+001
1.274765e+003,3.570406e+001
1.275729e+003,3.663390e+001
1.276693e+003,3.797308e+001
1.277657e+003,3.906492e+001
1.278622e+003,3.859292e+001
1.279586e+003,3.640186e+001
1.280550e+003,3.494924e+001
1.281514e+003,3.494059e+001
1.282479e+003,3.517623e+001
1.283443e+003,3.530080e+001
1.284407e+003,3.548186e+001
1.285371e+003,3.574893e+001
1.286335e+003,3.613567e+001
1.287300e+003,3.693463e+001
1.288264e+003,3.829499e+001
1.289228e+003,3.945998e+001
1.290192e+003,3.897701e+001
1.291157e+003,3.698940e+001
1.292121e+003,3.691431e+001
1.293085e+003,3.927411e+001
1.294049e+003,4.129474e+001
1.295014e+003,4.208233e+001
1.295978e+003,4.220519e+001
1.296942e+003,4.216173e+001
1.297906e+003,4.202269e+001
1.298870e+003,4.205288e+001
1.299835e+003,4.244620e+001
1.300799e+003,4.248440e+001
1.301763e+003,4.135894e+001
1.302727e+003,3.993846e+001
1.303692e+003,3.875979e+001
1.304656e+003,3.816286e+001
1.305620e+003,3.872158e+001
1.306584e+003,4.070647e+001
1.307549e+003,4.339092e+001
1.308513e+003,4.550340e+001
1.309477e+003,4.711539e+001
1.310441e+003,4.720001e+001
1.311406e+003,4.398793e+001
1.312370e+003,4.193061e+001
1.313334e+003,4.231099e+001
1.314298e+003,4.353357e+001
1.315263e+003,4.437262e+001
1.316227e+003,4.482513e+001
1.317191e+003,4.543187e+001
1.318155e+003,4.642758e+001
1.319120e+003,4.747200e+001
1.320084e+003,4.828856e+001
1.321048e+003,4.880101e+001
1.322012e+003,4.886015e+001
1.322976e+003,4.849311e+001
1.323941e+003,4.809048e+001
1.324905e+003,4.782362e+001
1.325869e+003,4.776328e+001
1.326833e+003,4.811135e+001
1.327798e+003,4.883509e+001
1.328762e+003,4.898336e+001
1.329726e+003,4.806745e+001
1.330690e+003,4.726217e+001
1.331655e+003,4.675289e+001
1.332619e+003,4.660117e+001
1.333583e+003,4.718481e+001
1.334547e+003,4.806372e+001
1.335511e+003,4.826228e+001
1.336476e+003,4.749295e+001
1.337440e+003,4.683973e+001
1.338404e+003,4.774372e+001
1.339368e+003,4.995552e+001
1.340333e+003,5.104725e+001
1.341297e+003,5.076136e+001
1.342261e+003,5.008208e+001
1.343225e+003,4.844867e+001
1.344190e+003,4.719093e+001
1.345154e+003,4.762318e+001
1.346118e+003,4.904755e+001
1.347082e+003,4.966941e+001
1.348047e+003,4.904004e+001
1.349011e+003,4.838824e+001
1.349975e+003,4.841844e+001
1.350939e+003,4.889470e+001
1.351903e+003,4.984293e+001
1.352868e+003,5.085815e+001
1.353832e+003,5.089761e+001
1.354796e+003,4.975379e+001
1.355760e+003,4.869072e+001
1.356725e+003,4.895771e+001
1.357689e+003,5.026864e+001
1.358653e+003,5.127712e+001
1.359617e+003,5.173740e+001
1.360582e+003,5.260465e+001
1.361546e+003,5.520596e+001
1.362510e+003,5.664178e+001
1.363474e+003,5.511608e+001
1.364438e+003,5.266459e+001
1.365403e+003,5.123338e+001
1.366367e+003,5.106944e+001
1.367331e+003,5.147225e+001
1.368295e+003,5.201628e+001
1.369260e+003,5.267338e+001
1.370224e+003,5.345377e+001
1.371188e+003,5.446245e+001
1.372152e+003,5.553896e+001
1.373117e+003,5.665647e+001
1.374081e+003,5.750355e+001
1.375045e+003,5.787445e+001
1.376009e+003,5.804056e+001
1.376974e+003,5.860915e+001
1.377938e+003,5.940228e+001
1.378902e+003,5.896185e+001
1.379866e+003,5.642783e+001
1.380830e+003,5.403602e+001
1.381795e+003,5.334530e+001
1.382759e+003,5.356680e+001
1.383723e+003,5.399989e+001
1.384687e+003,5.482720e+001
1.385652e+003,5.700239e+001
1.386616e+003,6.080875e+001
1.387580e+003,6.419307e+001
1.388544e+003,6.439856e+001
1.389509e+003,6.179125e+001
1.390473e+003,6.049810e+001
1.391437e+003,6.177610e+001
1.392401e+003,6.178882e+001
1.393365e+003,5.844286e+001
1.394330e+003,5.586657e+001
1.395294e+003,5.620049e+001
1.396258e+003,5.790602e+001
1.397222e+003,5.924422e+001
1.398187e+003,5.993867e+001
1.399151e+003,6.060314e+001
1.400115e+003,6.157515e+001
1.401079e+003,6.265976e+001
1.402044e+003,6.364618e+001
1.403008e+003,6.452510e+001
1.403972e+003,6.500649e+001
1.404936e+003,6.496020e+001
1.405901e+003,6.503945e+001
1.406865e+003,6.567508e+001
1.407829e+003,6.627946e+001
1.408793e+003,6.601407e+001
1.409757e+003,6.517590e+001
1.410722e+003,6.513588e+001
1.411686e+003,6.633626e+001
1.412650e+003,6.736468e+001
1.413614e+003,6.721806e+001
1.414579e+003,6.660881e+001
1.415543e+003,6.598756e+001
1.416507e+003,6.561700e+001
1.417471e+003,6.624586e+001
1.418436e+003,6.804246e+001
1.419400e+003,6.973930e+001
1.420364e+003,7.004662e+001
1.421328e+003,6.940083e+001
1.422292e+003,6.935155e+001
1.423257e+003,6.988770e+001
1.424221e+003,7.074329e+001
1.425185e+003,7.260942e+001
1.426149e+003,7.378131e+001
1.427114e+003,7.339684e+001
1.428078e+003,7.267646e+001
1.429042e+003,7.257171e+001
1.430006e+003,7.308006e+001
1.430971e+003,7.385222e+001
1.431935e+003,7.469236e+001
1.432899e+003,7.553078e+001
1.433863e+003,7.633285e+001
1.434828e+003,7.710609e+001
1.435792e+003,7.707289e+001
1.436756e+003,7.542828e+001
1.437720e+003,7.421284e+001
1.438684e+003,7.318849e+001
1.439649e+003,7.327313e+001
1.440613e+003,7.615858e+001
1.441577e+003,7.998534e+001
1.442541e+003,8.118811e+001
1.443506e+003,7.943760e+001
1.444470e+003,7.814446e+001
1.445434e+003,7.942129e+001
1.446398e+003,8.174284e+001
1.447363e+003,8.321157e+001
1.448327e+003,8.391936e+001
1.449291e+003,8.407309e+001
1.450255e+003,8.370592e+001
1.451219e+003,8.327542e+001
1.452184e+003,8.275159e+001
1.453148e+003,8.249046e+001
1.454112e+003,8.309157e+001
1.455076e+003,8.440841e+001
1.456041e+003,8.571193e+001
1.457005e+003,8.713001e+001
1.457969e+003,8.806089e+001
1.458933e+003,8.778419e+001
1.459898e+003,8.737514e+001
1.460862e+003,8.781055e+001
1.461826e+003,8.833419e+001
1.462790e+003,8.715829e+001
1.463755e+003,8.450600e+001
1.464719e+003,8.345126e+001
1.465683e+003,8.640289e+001
1.466647e+003,9.121368e+001
1.467611e+003,9.270003e+001
1.468576e+003,9.019795e+001
1.469540e+003,8.895001e+001
1.470504e+003,9.036956e+001
1.471468e+003,9.105624e+001
1.472433e+003,8.955577e+001
1.473397e+003,8.821538e+001
1.474361e+003,8.905534e+001
1.475325e+003,9.083969e+001
1.476290e+003,9.113783e+001
1.477254e+003,8.958714e+001
1.478218e+003,8.823100e+001
1.479182e+003,8.875470e+001
1.480146e+003,9.039647e+001
1.481111e+003,9.135781e+001
1.482075e+003,9.151759e+001
1.483039e+003,9.164368e+001
1.484003e+003,9.145376e+001
1.484968e+003,9.165391e+001
1.485932e+003,9.330235e+001
1.486896e+003,9.475278e+001
1.487860e+003,9.434590e+001
1.488825e+003,9.252983e+001
1.489789e+003,9.023657e+001
1.490753e+003,8.786517e+001
1.491717e+003,8.718950e+001
1.492682e+003,9.013674e+001
1.493646e+003,9.387917e+001
1.494610e+003,9.279845e+001
1.495574e+003,8.863551e+001
1.496538e+003,8.739896e+001
1.497503e+003,9.019756e+001
1.498467e+003,9.219668e+001
1.499431e+003,8.997162e+001
1.500395e+003,8.634840e+001
1.501360e+003,8.486954e+001
1.502324e+003,8.530269e+001
1.503288e+003,8.636344e+001
1.504252e+003,8.793673e+001
1.505217e+003,8.922166e+001
1.506181e+003,9.010090e+001
1.507145e+003,9.026155e+001
1.508109e+003,8.899184e+001
1.509073e+003,8.718064e+001
1.510038e+003,8.614218e+001
1.511002e+003,8.608815e+001
1.511966e+003,8.681242e+001
1.512930e+003,8.841051e+001
1.513895e+003,8.999088e+001
1.514859e+003,8.946486e+001
1.515823e+003,8.679369e+001
1.516787e+003,8.597297e+001
1.517752e+003,8.822693e+001
1.518716e+003,8.974986e+001
1.519680e+003,8.891336e+001
1.520644e+003,8.772628e+001
1.521609e+003,8.728233e+001
1.522573e+003,8.685259e+001
1.523537e+003,8.525482e+001
1.524501e+003,8.280683e+001
1.525465e+003,8.081078e+001
1.526430e+003,7.999327e+001
1.527394e+003,8.027418e+001
1.528358e+003,8.177761e+001
1.529322e+003,8.439823e+001
1.530287e+003,8.553232e+001
1.531251e+003,8.460665e+001
1.532215e+003,8.339139e+001
1.533179e+003,8.103695e+001
1.534144e+003,7.945428e+001
1.535108e+003,7.998106e+001
1.536072e+003,8.116573e+001
1.537036e+003,8.165434e+001
1.538000e+003,8.132864e+001
1.538965e+003,8.047302e+001
1.539929e+003,7.925246e+001
1.540893e+003,7.807161e+001
1.541857e+003,7.747664e+001
1.542822e+003,7.733049e+001
1.543786e+003,7.662346e+001
1.544750e+003,7.479085e+001
1.545714e+003,7.414362e+001
1.546679e+003,7.581588e+001
1.547643e+003,7.699653e+001
1.548607e+003,7.693476e+001
1.549571e+003,7.600556e+001
1.550536e+003,7.354891e+001
1.551500e+003,7.056645e+001
1.552464e+003,6.992906e+001
1.553428e+003,7.239952e+001
1.554392e+003,7.523766e+001
1.555357e+003,7.626982e+001
1.556321e+003,7.600834e+001
1.557285e+003,7.539937e+001
1.558249e+003,7.451634e+001
1.559214e+003,7.379190e+001
1.560178e+003,7.333650e+001
1.561142e+003,7.280469e+001
1.562106e+003,7.158838e+001
1.563071e+003,7.054673e+001
1.564035e+003,7.113058e+001
1.564999e+003,7.244521e+001
1.565963e+003,7.189036e+001
1.566927e+003,6.915558e+001
1.567892e+003,6.691756e+001
1.568856e+003,6.645383e+001
1.569820e+003,6.718920e+001
1.570784e+003,6.956635e+001
1.571749e+003,7.215332e+001
1.572713e+003,7.106500e+001
1.573677e+003,6.644102e+001
1.574641e+003,6.264418e+001
1.575606e+003,6.081873e+001
1.576570e+003,6.041865e+001
1.577534e+003,6.225349e+001
1.578498e+003,6.475171e+001
1.579463e+003,6.441457e+001
1.580427e+003,6.132384e+001
1.581391e+003,5.894993e+001
1.582355e+003,5.832960e+001
1.583319e+003,5.829680e+001
1.584284e+003,5.831465e+001
1.585248e+003,5.842981e+001
1.586212e+003,5.872561e+001
1.587176e+003,5.891821e+001
1.588141e+003,5.841628e+001
1.589105e+003,5.718216e+001
1.590069e+003,5.610191e+001
1.591033e+003,5.607264e+001
1.591998e+003,5.596363e+001
1.592962e+003,5.347021e+001
1.593926e+003,4.926487e+001
1.594890e+003,4.724526e+001
1.595854e+003,4.807633e+001
1.596819e+003,4.968291e+001
1.597783e+003,5.227067e+001
1.598747e+003,5.377280e+001
1.599711e+003,5.186248e+001
1.600676e+003,4.857444e+001
1.601640e+003,4.571160e+001
1.602604e+003,4.384023e+001
1.603568e+003,4.446947e+001
1.604533e+003,4.837513e+001
1.605497e+003,5.190578e+001
1.606461e+003,5.093774e+001
1.607425e+003,4.713472e+001
1.608390e+003,4.514405e+001
1.609354e+003,4.507437e+001
1.610318e+003,4.482311e+001
1.611282e+003,4.396478e+001
1.612246e+003,4.285894e+001
1.613211e+003,4.136360e+001
1.614175e+003,3.998655e+001
1.615139e+003,3.921595e+001
1.616103e+003,3.883879e+001
1.617068e+003,3.861231e+001
1.618032e+003,3.838590e+001
1.618996e+003,3.768425e+001
1.619960e+003,3.613291e+001
1.620925e+003,3.437089e+001
1.621889e+003,3.338525e+001
1.622853e+003,3.307165e+001
1.623817e+003,3.258928e+001
1.624781e+003,3.191732e+001
1.625746e+003,3.158434e+001
1.626710e+003,3.222869e+001
1.627674e+003,3.217417e+001
1.628638e+003,2.957027e+001
1.629603e+003,2.679341e+001
1.630567e+003,2.618420e+001
1.631531e+003,2.693194e+001
1.632495e+003,2.704455e+001
1.633460e+003,2.608026e+001
1.634424e+003,2.491952e+001
1.635388e+003,2.412687e+001
1.636352e+003,2.360261e+001
1.637317e+003,2.330758e+001
1.638281e+003,2.320065e+001
1.639245e+003,2.261993e+001
1.640209e+003,2.123187e+001
1.641173e+003,2.060834e+001
1.642138e+003,2.201198e+001
1.643102e+003,2.308803e+001
1.644066e+003,2.252882e+001
1.645030e+003,2.121918e+001
1.645995e+003,1.985378e+001
1.646959e+003,1.851504e+001
1.647923e+003,1.686110e+001
1.648887e+003,1.490666e+001
1.649852e+003,1.405721e+001
1.650816e+003,1.581018e+001
1.651780e+003,1.863729e+001
1.652744e+003,1.923659e+001
1.653708e+003,1.768486e+001
1.654673e+003,1.629509e+001
1.655637e+003,1.531929e+001
1.656601e+003,1.394266e+001
1.657565e+003,1.090276e+001
1.658530e+003,8.864874e+000
1.659494e+003,1.010614e+001
1.660458e+003,1.237126e+001
1.661422e+003,1.352981e+001
1.662387e+003,1.347633e+001
1.663351e+003,1.256817e+001
1.664315e+003,1.097997e+001
1.665279e+003,9.445807e+000
1.666244e+003,8.575846e+000
1.667208e+003,8.208341e+000
1.668172e+003,8.158060e+000
1.669136e+003,8.355825e+000
1.670100e+003,7.934280e+000
1.671065e+003,6.627036e+000
1.672029e+003,5.540448e+000
1.672993e+003,5.209592e+000
1.673957e+003,5.025626e+000
1.674922e+003,4.477783e+000
1.675886e+003,3.881909e+000
1.676850e+003,3.517999e+000
1.677814e+003,3.442865e+000
1.678779e+003,3.881412e+000
1.679743e+003,4.916083e+000
1.680707e+003,5.590823e+000
1.681671e+003,4.949792e+000
1.682635e+003,3.709805e+000
1.683600e+003,3.160065e+000
1.684564e+003,3.207135e+000
1.685528e+003,3.104123e+000
1.686492e+003,2.717883e+000
1.687457e+003,2.325729e+000
1.688421e+003,2.025015e+000
1.689385e+003,1.823984e+000
1.690349e+003,2.005746e+000
1.691314e+003,2.156024e+000
1.692278e+003,1.678677e+000
1.693242e+003,6.588074e-001
1.694206e+003,-4.813019e-001
1.695171e+003,-1.665344e+000
1.696135e+003,-2.669574e+000
1.697099e+003,-3.495743e+000
1.698063e+003,-3.931445e+000
1.699027e+003,-3.454983e+000
1.699992e+003,-2.382217e+000
1.700956e+003,-1.699622e+000
1.701920e+003,-1.521237e+000
1.702884e+003,-1.587598e+000
1.703849e+003,-1.829871e+000
1.704813e+003,-2.277609e+000
1.705777e+003,-3.157776e+000
1.706741e+003,-4.035498e+000
1.707706e+003,-3.914334e+000
1.708670e+003,-3.133881e+000
1.709634e+003,-3.249805e+000
1.710598e+003,-4.678696e+000
1.711563e+003,-5.639999e+000
1.712527e+003,-5.007196e+000
1.713491e+003,-4.050964e+000
1.714455e+003,-3.613532e+000
1.715419e+003,-3.630823e+000
1.716384e+003,-4.330017e+000
1.717348e+003,-5.447608e+000
1.718312e+003,-5.458038e+000
1.719276e+003,-3.887320e+000
1.720241e+003,-3.030194e+000
1.721205e+003,-4.791171e+000
1.722169e+003,-7.324600e+000
1.723133e+003,-7.417572e+000
1.724098e+003,-5.468658e+000
1.725062e+003,-5.120993e+000
1.726026e+003,-6.950873e+000
1.726990e+003,-7.977350e+000
1.727954e+003,-7.267362e+000
1.728919e+003,-6.279715e+000
1.729883e+003,-4.997327e+000
1.730847e+003,-4.313309e+000
1.731811e+003,-5.677603e+000
1.732776e+003,-8.175601e+000
1.733740e+003,-9.849518e+000
1.734704e+003,-1.023851e+001
1.735668e+003,-9.696569e+000
1.736633e+003,-8.447016e+000
1.737597e+003,-7.456192e+000
1.738561e+003,-8.098773e+000
1.739525e+003,-9.841043e+000
1.740490e+003,-1.019358e+001
1.741454e+003,-8.640943e+000
1.742418e+003,-7.698779e+000
1.743382e+003,-7.293875e+000
1.744346e+003,-7.581232e+000
1.745311e+003,-9.375998e+000
1.746275e+003,-1.098639e+001
1.747239e+003,-1.127088e+001
1.748203e+003,-1.087603e+001
1.749168e+003,-1.058025e+001
1.750132e+003,-1.049306e+001
1.751096e+003,-1.051420e+001
1.752060e+003,-1.055294e+001
1.753025e+003,-1.023520e+001
1.753989e+003,-9.153516e+000
1.754953e+003,-7.977216e+000
1.755917e+003,-8.473841e+000
1.756881e+003,-1.069871e+001
1.757846e+003,-1.142124e+001
1.758810e+003,-9.890259e+000
1.759774e+003,-8.929736e+000
1.760738e+003,-9.650696e+000
1.761703e+003,-1.007494e+001
1.762667e+003,-8.885550e+000
1.763631e+003,-7.708142e+000
1.764595e+003,-7.978476e+000
1.765560e+003,-9.122015e+000
1.766524e+003,-1.026505e+001
1.767488e+003,-1.108918e+001
1.768452e+003,-1.089748e+001
1.769417e+003,-9.138311e+000
1.770381e+003,-7.683475e+000
1.771345e+003,-9.272665e+000
1.772309e+003,-1.247057e+001
1.773273e+003,-1.344238e+001
1.774238e+003,-1.241932e+001
1.775202e+003,-1.208728e+001
1.776166e+003,-1.294664e+001
1.777130e+003,-1.325359e+001
1.778095e+003,-1.203288e+001
1.779059e+003,-1.066516e+001
1.780023e+003,-1.033873e+001
1.780987e+003,-1.061321e+001
1.781952e+003,-1.072356e+001
1.782916e+003,-1.076994e+001
1.783880e+003,-1.128116e+001
1.784844e+003,-1.251727e+001
1.785808e+003,-1.318994e+001
1.786773e+003,-1.224527e+001
1.787737e+003,-1.114618e+001
1.788701e+003,-1.120111e+001
1.789665e+003,-1.170681e+001
1.790630e+003,-1.148886e+001
1.791594e+003,-1.073625e+001
1.792558e+003,-1.044527e+001
1.793522e+003,-1.085772e+001
1.794487e+003,-1.149366e+001
1.795451e+003,-1.207047e+001
1.796415e+003,-1.228625e+001
1.797379e+003,-1.164006e+001
1.798344e+003,-1.045425e+001
1.799308e+003,-1.028162e+001
1.800272e+003,-1.159519e+001
1.801236e+003,-1.216345e+001
1.802201e+003,-1.094754e+001
1.803165e+003,-1.057381e+001
1.804129e+003,-1.245804e+001
1.805093e+003,-1.405342e+001
1.806057e+003,-1.376828e+001
1.807022e+003,-1.265269e+001
1.807986e+003,-1.178667e+001
1.808950e+003,-1.125339e+001
1.809914e+003,-1.077932e+001
1.810879e+003,-1.026901e+001
1.811843e+003,-9.676544e+000
1.812807e+003,-8.961832e+000
1.813771e+003,-8.590500e+000
1.814736e+003,-9.520334e+000
1.815700e+003,-1.136190e+001
1.816664e+003,-1.179674e+001
1.817628e+003,-1.065795e+001
1.818593e+003,-9.946958e+000
1.819557e+003,-9.958911e+000
1.820521e+003,-1.008483e+001
1.821485e+003,-1.011227e+001
1.822449e+003,-1.020807e+001
1.823414e+003,-1.048238e+001
1.824378e+003,-1.095023e+001
1.825342e+003,-1.187856e+001
1.826306e+003,-1.299004e+001
1.827271e+003,-1.326538e+001
1.828235e+003,-1.244096e+001
1.829199e+003,-1.126010e+001
1.830163e+003,-9.482605e+000
1.831128e+003,-8.233798e+000
1.832092e+003,-9.136938e+000
1.833056e+003,-1.078018e+001
1.834020e+003,-1.072529e+001
1.834984e+003,-9.391126e+000
1.835949e+003,-8.593692e+000
1.836913e+003,-8.724081e+000
1.837877e+003,-9.445560e+000
1.838841e+003,-1.063921e+001
1.839806e+003,-1.148214e+001
1.840770e+003,-1.093792e+001
1.841734e+003,-9.618512e+000
1.842698e+003,-9.410284e+000
1.843663e+003,-1.048302e+001
1.844627e+003,-1.086036e+001
1.845591e+003,-1.019215e+001
1.846555e+003,-9.387598e+000
1.847520e+003,-8.020358e+000
1.848484e+003,-7.164841e+000
1.849448e+003,-7.459867e+000
1.850412e+003,-8.128683e+000
1.851376e+003,-8.722219e+000
1.852341e+003,-9.133365e+000
1.853305e+003,-9.346258e+000
1.854269e+003,-9.352697e+000
1.855233e+003,-9.045957e+000
1.856198e+003,-8.378515e+000
1.857162e+003,-7.677182e+000
1.858126e+003,-7.276154e+000
1.859090e+003,-7.046005e+000
1.860055e+003,-6.625098e+000
1.861019e+003,-6.163827e+000
1.861983e+003,-6.592062e+000
1.862947e+003,-7.981827e+000
1.863911e+003,-8.867691e+000
1.864876e+003,-8.845675e+000
1.865840e+003,-8.405584e+000
1.866804e+003,-7.614807e+000
1.867768e+003,-6.913098e+000
1.868733e+003,-7.117355e+000
1.869697e+003,-7.705924e+000
1.870661e+003,-6.874130e+000
1.871625e+003,-4.610965e+000
1.872590e+003,-3.310703e+000
1.873554e+003,-3.553415e+000
1.874518e+003,-4.073987e+000
1.875482e+003,-5.035300e+000
1.876447e+003,-5.542664e+000
1.877411e+003,-4.178393e+000
1.878375e+003,-2.759836e+000
1.879339e+003,-4.137985e+000
1.880303e+003,-6.949576e+000
1.881268e+003,-7.601254e+000
1.882232e+003,-5.773242e+000
1.883196e+003,-4.355814e+000
1.884160e+003,-4.877817e+000
1.885125e+003,-5.884006e+000
1.886089e+003,-5.752078e+000
1.887053e+003,-4.898252e+000
1.888017e+003,-4.433856e+000
1.888982e+003,-4.355399e+000
1.889946e+003,-4.013879e+000
1.890910e+003,-3.241879e+000
1.891874e+003,-3.108545e+000
1.892839e+003,-4.282977e+000
1.893803e+003,-5.052182e+000
1.894767e+003,-4.134311e+000
1.895731e+003,-3.037909e+000
1.896695e+003,-3.443054e+000
1.897660e+003,-4.449417e+000
1.898624e+003,-4.453424e+000
1.899588e+003,-3.534348e+000
1.900552e+003,-2.890271e+000
1.901517e+003,-2.762567e+000
1.902481e+003,-2.948282e+000
1.903445e+003,-3.592782e+000
1.904409e+003,-4.197443e+000
1.905374e+003,-4.557764e+000
1.906338e+003,-4.562497e+000
1.907302e+003,-3.823959e+000
1.908266e+003,-2.809531e+000
1.909230e+003,-2.492432e+000
1.910195e+003,-2.901297e+000
1.911159e+003,-3.289789e+000
1.912123e+003,-3.299210e+000
1.913087e+003,-3.211371e+000
1.914052e+003,-3.328879e+000
1.915016e+003,-3.318033e+000
1.915980e+003,-2.256619e+000
1.916944e+003,-3.162994e-001
1.917909e+003,-1.497742e-001
1.918873e+003,-2.223477e+000
1.919837e+003,-3.067822e+000
1.920801e+003,-1.745694e+000
1.921766e+003,-8.797852e-001
1.922730e+003,-1.650400e+000
1.923694e+003,-2.751193e+000
1.924658e+003,-3.299298e+000
1.925622e+003,-3.582221e+000
1.926587e+003,-4.038129e+000
1.927551e+003,-4.519705e+000
1.928515e+003,-4.451388e+000
1.929479e+003,-3.710492e+000
1.930444e+003,-3.159268e+000
1.931408e+003,-3.105118e+000
1.932372e+003,-3.237228e+000
1.933336e+003,-3.717987e+000
1.934301e+003,-3.993820e+000
1.935265e+003,-3.207983e+000
1.936229e+003,-2.178125e+000
1.937193e+003,-2.287650e+000
1.938157e+003,-3.222885e+000
1.939122e+003,-3.735382e+000
1.940086e+003,-3.497955e+000
1.941050e+003,-3.028421e+000
1.942014e+003,-2.656137e+000
1.942979e+003,-2.287174e+000
1.943943e+003,-1.739996e+000
1.944907e+003,-1.200485e+000
1.945871e+003,-1.286530e+000
1.946836e+003,-1.946054e+000
1.947800e+003,-2.548325e+000
1.948764e+003,-3.144852e+000
1.949728e+003,-3.306641e+000
1.950693e+003,-2.862271e+000
1.951657e+003,-2.302490e+000
1.952621e+003,-1.673480e+000
1.953585e+003,-1.292697e+000
1.954549e+003,-1.506671e+000
1.955514e+003,-2.181985e+000
1.956478e+003,-3.295102e+000
1.957442e+003,-4.765253e+000
1.958406e+003,-5.254303e+000
1.959371e+003,-4.520090e+000
1.960335e+003,-3.444037e+000
1.961299e+003,-1.592712e+000
1.962263e+003,-1.619415e-001
1.963228e+003,5.008148e-001
1.964192e+003,5.192993e-001
1.965156e+003,-6.370544e-001
1.966120e+003,-1.927579e+000
1.967084e+003,-1.890652e+000
1.968049e+003,-8.993042e-001
1.969013e+003,-3.493164e-001
1.969977e+003,-5.288604e-001
1.970941e+003,-4.578156e-001
1.971906e+003,4.655304e-001
1.972870e+003,1.417636e+000
1.973834e+003,1.504077e+000
1.974798e+003,1.103293e+000
1.975763e+003,7.248566e-001
1.976727e+003,3.927185e-001
1.977691e+003,1.892761e-001
1.978655e+003,1.397491e-001
1.979620e+003,5.144593e-001
1.980584e+003,1.362027e+000
1.981548e+003,1.724377e+000
1.982512e+003,1.021594e+000
1.983476e+003,4.859405e-001
1.984441e+003,1.545975e+000
1.985405e+003,3.156613e+000
1.986369e+003,2.706201e+000
1.987333e+003,2.804443e-001
1.988298e+003,-9.760376e-001
1.989262e+003,-8.327301e-001
1.990226e+003,-2.625122e-001
1.991190e+003,1.168945e+000
1.992155e+003,2.199707e+000
1.993119e+003,2.490979e+000
1.994083e+003,2.370819e+000
1.995047e+003,1.735764e+000
1.996011e+003,9.570678e-001
1.996976e+003,2.888214e-001
1.997940e+003,-1.464050e-001
1.998904e+003,-1.566162e-001
1.999868e+003,2.822662e-001
2.000833e+003,1.300485e+000
2.001797e+003,3.547473e+000
2.002761e+003,4.681933e+000
2.003725e+003,2.579825e+000
2.004690e+003,5.615021e-001
2.005654e+003,1.216571e+000
2.006618e+003,2.596146e+000
2.007582e+003,2.738205e+000
2.008547e+003,2.000183e+000
2.009511e+003,8.801056e-001
2.010475e+003,-8.895569e-002
2.011439e+003,4.214600e-001
2.012403e+003,2.565762e+000
2.013368e+003,4.141238e+000
2.014332e+003,3.551340e+000
2.015296e+003,1.919174e+000
2.016260e+003,2.498657e-001
2.017225e+003,-1.027686e+000
2.018189e+003,-7.956451e-001
2.019153e+003,6.878082e-001
2.020117e+003,2.828452e+000
2.021082e+003,5.349603e+000
2.022046e+003,6.541110e+000
2.023010e+003,6.005844e+000
2.023974e+003,4.768573e+000
2.024938e+003,3.285040e+000
2.025903e+003,2.280359e+000
2.026867e+003,2.646796e+000
2.027831e+003,3.524152e+000
2.028795e+003,2.756436e+000
2.029760e+003,4.774353e-001
2.030724e+003,-1.152710e-001
2.031688e+003,1.734714e+000
2.032652e+003,2.245898e+000
2.033617e+003,4.439148e-001
2.034581e+003,-6.932465e-001
2.035545e+003,8.666992e-002
2.036509e+003,9.008667e-001
2.037474e+003,1.746674e-001
2.038438e+003,-5.876068e-001
2.039402e+003,9.385926e-001
2.040366e+003,3.393304e+000
2.041330e+003,3.401462e+000
2.042295e+003,1.015170e+000
2.043259e+003,-2.880768e-001
2.044223e+003,2.029633e-001
2.045187e+003,8.839966e-001
2.046152e+003,1.824265e+000
2.047116e+003,2.355023e+000
2.048080e+003,2.028192e+000
2.049044e+003,1.383249e+000
2.050009e+003,2.415497e-001
2.050973e+003,-5.088867e-001
2.051937e+003,7.408447e-001
2.052901e+003,2.991351e+000
2.053865e+003,3.708359e+000
2.054830e+003,2.620136e+000
2.055794e+003,1.738187e+000
2.056758e+003,1.964786e+000
2.057722e+003,2.285852e+000
2.058687e+003,1.798084e+000
2.059651e+003,1.301120e+000
2.060615e+003,1.656811e+000
2.061579e+003,2.355945e+000
2.062544e+003,2.967255e+000
2.063508e+003,3.330621e+000
2.064472e+003,3.185904e+000
2.065436e+003,2.505429e+000
2.066401e+003,9.820282e-001
2.067365e+003,-1.145029e+000
2.068329e+003,-2.015930e+000
2.069293e+003,-4.734802e-001
2.070258e+003,1.680927e+000
2.071222e+003,2.321362e+000
2.072186e+003,2.132019e+000
2.073150e+003,2.645734e+000
2.074115e+003,3.606787e+000
2.075079e+003,3.806927e+000
2.076043e+003,3.287689e+000
2.077007e+003,2.886945e+000
2.077971e+003,2.760242e+000
2.078936e+003,2.697928e+000
2.079900e+003,2.610718e+000
2.080864e+003,2.464856e+000
2.081828e+003,2.224216e+000
2.082792e+003,2.096597e+000
2.083757e+003,2.417783e+000
2.084721e+003,2.958609e+000
2.085685e+003,2.888177e+000
2.086649e+003,2.189722e+000
2.087614e+003,1.683316e+000
2.088578e+003,1.311551e+000
2.089542e+003,1.563650e+000
2.090506e+003,2.870566e+000
2.091471e+003,3.330545e+000
2.092435e+003,1.887814e+000
2.093399e+003,5.456207e-001
2.094363e+003,6.468964e-001
2.095328e+003,1.517337e+000
2.096292e+003,2.466580e+000
2.097256e+003,3.341769e+000
2.098220e+003,3.593469e+000
2.099185e+003,3.149560e+000
2.100149e+003,3.286951e+000
2.101113e+003,4.908954e+000
2.102077e+003,5.368570e+000
2.103042e+003,3.878174e+000
2.104006e+003,2.263531e+000
2.104970e+003,-2.759705e-002
2.105934e+003,-1.208255e+000
2.106898e+003,7.328491e-001
2.107863e+003,3.342236e+000
2.108827e+003,4.250418e+000
2.109791e+003,3.867313e+000
2.110755e+003,2.879431e+000
2.111719e+003,1.439554e+000
2.112684e+003,1.079037e+000
2.113648e+003,2.347687e+000
2.114612e+003,3.807187e+000
2.115576e+003,5.894693e+000
2.116541e+003,7.017831e+000
2.117505e+003,6.076569e+000
2.118469e+003,4.672327e+000
2.119433e+003,3.468787e+000
2.120398e+003,2.617069e+000
2.121362e+003,2.020831e+000
2.122326e+003,1.884204e+000
2.123290e+003,3.162311e+000
2.124255e+003,5.386930e+000
2.125219e+003,5.800034e+000
2.126183e+003,3.419080e+000
2.127147e+003,1.915875e+000
2.128112e+003,3.792267e+000
2.129076e+003,5.738800e+000
2.130040e+003,5.688849e+000
2.131004e+003,5.276611e+000
2.131969e+003,5.932504e+000
2.132933e+003,6.802979e+000
2.133897e+003,6.860675e+000
2.134861e+003,6.377484e+000
2.135825e+003,5.925394e+000
2.136790e+003,5.583829e+000
2.137754e+003,5.187823e+000
2.138718e+003,4.707327e+000
2.139682e+003,4.245013e+000
2.140646e+003,3.724469e+000
2.141611e+003,3.762414e+000
2.142575e+003,5.485053e+000
2.143539e+003,7.288342e+000
2.144503e+003,7.456708e+000
2.145468e+003,6.856830e+000
2.146432e+003,6.529218e+000
2.147396e+003,6.435117e+000
2.148360e+003,6.205960e+000
2.149325e+003,5.910235e+000
2.150289e+003,6.074582e+000
2.151253e+003,6.724127e+000
2.152217e+003,7.035928e+000
2.153182e+003,6.553424e+000
2.154146e+003,6.060117e+000
2.155110e+003,6.529922e+000
2.156074e+003,7.002713e+000
2.157039e+003,5.671954e+000
2.158003e+003,3.862906e+000
2.158967e+003,3.882187e+000
2.159931e+003,5.191931e+000
2.160896e+003,6.704379e+000
2.161860e+003,7.994235e+000
2.162824e+003,8.310391e+000
2.163788e+003,7.706302e+000
2.164752e+003,7.441470e+000
2.165717e+003,8.094696e+000
2.166681e+003,8.576651e+000
2.167645e+003,7.864410e+000
2.168609e+003,6.844287e+000
2.169573e+003,6.590198e+000
2.170538e+003,7.040393e+000
2.171502e+003,8.609659e+000
2.172466e+003,1.048928e+001
2.173430e+003,1.052712e+001
2.174395e+003,9.153668e+000
2.175359e+003,8.360456e+000
2.176323e+003,8.390286e+000
2.177287e+003,8.062363e+000
2.178252e+003,6.969977e+000
2.179216e+003,5.994107e+000
2.180180e+003,5.787567e+000
2.181144e+003,5.943076e+000
2.182109e+003,5.939685e+000
2.183073e+003,5.923563e+000
2.184037e+003,6.222848e+000
2.185001e+003,6.747946e+000
2.185966e+003,7.483984e+000
2.186930e+003,8.256887e+000
2.187894e+003,8.349808e+000
2.188858e+003,7.830374e+000
2.189823e+003,7.509192e+000
2.190787e+003,7.539798e+000
2.191751e+003,7.277484e+000
2.192715e+003,6.451114e+000
2.193679e+003,5.903470e+000
2.194644e+003,6.426251e+000
2.195608e+003,7.542664e+000
2.196572e+003,8.967443e+000
2.197536e+003,1.015182e+001
2.198500e+003,9.382050e+000
2.199465e+003,7.357739e+000
2.200429e+003,5.799130e+000
2.201393e+003,5.002749e+000
2.202357e+003,5.709750e+000
2.203322e+003,7.690146e+000
2.204286e+003,9.233332e+000
2.205250e+003,9.676123e+000
2.206214e+003,9.463938e+000
2.207179e+003,8.905515e+000
2.208143e+003,8.579373e+000
2.209107e+003,9.325510e+000
2.210071e+003,1.037912e+001
2.211036e+003,1.017155e+001
2.212000e+003,9.272516e+000
2.212964e+003,8.876785e+000
2.213928e+003,9.038556e+000
2.214893e+003,1.013219e+001
2.215857e+003,1.183831e+001
2.216821e+003,1.290226e+001
2.217785e+003,1.301735e+001
2.218750e+003,1.256043e+001
2.219714e+003,1.179072e+001
2.220678e+003,1.115442e+001
2.221642e+003,1.097291e+001
2.222606e+003,1.160393e+001
2.223571e+003,1.398802e+001
2.224535e+003,1.698410e+001
2.225499e+003,1.872578e+001
2.226463e+003,1.945723e+001
2.227427e+003,1.914996e+001
2.228392e+003,1.845594e+001
2.229356e+003,1.912295e+001
2.230320e+003,2.098966e+001
2.231284e+003,2.256887e+001
2.232249e+003,2.339833e+001
2.233213e+003,2.379254e+001
2.234177e+003,2.397443e+001
2.235141e+003,2.455922e+001
2.236106e+003,2.615107e+001
2.237070e+003,2.816796e+001
2.238034e+003,3.001659e+001
2.238998e+003,3.167641e+001
2.239963e+003,3.299843e+001
2.240927e+003,3.427735e+001
2.241891e+003,3.605944e+001
2.242855e+003,3.821748e+001
2.243820e+003,4.026902e+001
2.244784e+003,4.225568e+001
2.245748e+003,4.466540e+001
2.246712e+003,4.756612e+001
2.247677e+003,5.046966e+001
2.248641e+003,5.316417e+001
2.249605e+003,5.552196e+001
2.250569e+003,5.739115e+001
2.251533e+003,5.886311e+001
2.252498e+003,6.010352e+001
2.253462e+003,6.087233e+001
2.254426e+003,6.116626e+001
2.255390e+003,6.067673e+001
2.256354e+003,5.861266e+001
2.257319e+003,5.562779e+001
2.258283e+003,5.301835e+001
2.259247e+003,5.078033e+001
2.260211e+003,4.782248e+001
2.261176e+003,4.398748e+001
2.262140e+003,4.080425e+001
2.263104e+003,3.902296e+001
2.264068e+003,3.747958e+001
2.265033e+003,3.553986e+001
2.265997e+003,3.362646e+001
2.266961e+003,3.222243e+001
2.267925e+003,3.066200e+001
2.268890e+003,2.800000e+001
2.269854e+003,2.527930e+001
2.270818e+003,2.398002e+001
2.271782e+003,2.331967e+001
2.272747e+003,2.166152e+001
2.273711e+003,1.921087e+001
2.274675e+003,1.745124e+001
2.275639e+003,1.667131e+001
2.276604e+003,1.606152e+001
2.277568e+003,1.558257e+001
2.278532e+003,1.491309e+001
2.279496e+003,1.342152e+001
2.280460e+003,1.241866e+001
2.281425e+003,1.344173e+001
2.282389e+003,1.380309e+001
2.283353e+003,1.093170e+001
2.284317e+003,7.726379e+000
2.285281e+003,7.169507e+000
2.286246e+003,8.022351e+000
2.287210e+003,8.052374e+000
2.288174e+003,7.346182e+000
2.289138e+003,7.001977e+000
2.290103e+003,7.229562e+000
2.291067e+003,6.848566e+000
2.292031e+003,5.139905e+000
2.292995e+003,4.238645e+000
2.293960e+003,4.551251e+000
2.294924e+003,5.036502e+000
2.295888e+003,5.780966e+000
2.296852e+003,6.042169e+000
2.297817e+003,5.224790e+000
2.298781e+003,4.230322e+000
2.299745e+003,3.929452e+000
2.300709e+003,3.891776e+000
2.301674e+003,3.271384e+000
2.302638e+003,2.251254e+000
2.303602e+003,1.799564e+000
2.304566e+003,1.901227e+000
2.305531e+003,2.600064e+000
2.306495e+003,4.043039e+000
2.307459e+003,5.400769e+000
2.308423e+003,6.685632e+000
2.309387e+003,6.574066e+000
2.310352e+003,4.577136e+000
2.311316e+003,3.113049e+000
2.312280e+003,3.406622e+000
2.313244e+003,4.117734e+000
2.314208e+003,4.111346e+000
2.315173e+003,3.671054e+000
2.316137e+003,3.287811e+000
2.317101e+003,2.691345e+000
2.318065e+003,3.577759e-001
2.319030e+003,-2.682227e+000
2.319994e+003,-1.383426e+000
2.320958e+003,2.923288e+000
2.321922e+003,4.539789e+000
2.322887e+003,3.455826e+000
2.323851e+003,2.545822e+000
2.324815e+003,2.318137e+000
2.325779e+003,1.398123e+000
2.326744e+003,-5.676727e-001
2.327708e+003,-2.060397e+000
2.328672e+003,-2.110327e+000
2.329636e+003,-1.664441e+000
2.330601e+003,-1.579291e+000
2.331565e+003,-1.481052e+000
2.332529e+003,-7.967285e-001
2.333493e+003,-1.832275e-002
2.334458e+003,5.188996e-001
2.335422e+003,5.601074e-001
2.336386e+003,-6.823151e-001
2.337350e+003,-2.326679e+000
2.338314e+003,-2.811786e+000
2.339279e+003,-2.277533e+000
2.340243e+003,-1.603793e+000
2.341207e+003,-1.122052e+000
2.342171e+003,-1.549121e+000
2.343135e+003,-3.448300e+000
2.344100e+003,-4.526355e+000
2.345064e+003,-3.004153e+000
2.346028e+003,-1.953552e+000
2.346992e+003,-2.787430e+000
2.347957e+003,-3.804080e+000
2.348921e+003,-4.297403e+000
2.349885e+003,-4.557874e+000
2.350849e+003,-4.788705e+000
2.351814e+003,-4.975076e+000
2.352778e+003,-5.174509e+000
2.353742e+003,-5.247183e+000
2.354706e+003,-4.669827e+000
2.355671e+003,-3.528482e+000
2.356635e+003,-3.365958e+000
2.357599e+003,-4.631366e+000
2.358563e+003,-4.947180e+000
2.359528e+003,-3.902710e+000
2.360492e+003,-3.331763e+000
2.361456e+003,-3.570035e+000
2.362420e+003,-3.574463e+000
2.363385e+003,-2.906165e+000
2.364349e+003,-2.768207e+000
2.365313e+003,-3.882684e+000
2.366277e+003,-5.200415e+000
2.367241e+003,-5.784140e+000
2.368206e+003,-5.792584e+000
2.369170e+003,-5.416257e+000
2.370134e+003,-4.820566e+000
2.371098e+003,-4.344602e+000
2.372063e+003,-4.093558e+000
2.373027e+003,-4.785693e+000
2.373991e+003,-6.025568e+000
2.374955e+003,-6.385520e+000
2.375919e+003,-5.886047e+000
2.376884e+003,-5.035480e+000
2.377848e+003,-4.092639e+000
2.378812e+003,-3.334103e+000
2.379776e+003,-2.902487e+000
2.380741e+003,-3.093246e+000
2.381705e+003,-4.094016e+000
2.382669e+003,-4.944635e+000
2.383633e+003,-5.016046e+000
2.384598e+003,-4.500150e+000
2.385562e+003,-2.724304e+000
2.386526e+003,-1.456796e+000
2.387490e+003,-2.817590e+000
2.388455e+003,-4.641009e+000
2.389419e+003,-4.517642e+000
2.390383e+003,-3.752759e+000
2.391347e+003,-4.624481e+000
2.392312e+003,-6.306043e+000
2.393276e+003,-6.357806e+000
2.394240e+003,-4.830145e+000
2.395204e+003,-4.033914e+000
2.396168e+003,-4.425504e+000
2.397133e+003,-4.475619e+000
2.398097e+003,-3.851343e+000
2.399061e+003,-3.398129e+000
2.400025e+003,-3.135510e+000
2.400990e+003,-3.122443e+000
2.401954e+003,-3.536609e+000
2.402918e+003,-3.785626e+000
2.403882e+003,-3.584421e+000
2.404846e+003,-3.147903e+000
2.405811e+003,-2.600513e+000
2.406775e+003,-2.051810e+000
2.407739e+003,-1.670505e+000
2.408703e+003,-1.471304e+000
2.409668e+003,-1.506299e+000
2.410632e+003,-1.709906e+000
2.411596e+003,-1.762650e+000
2.412560e+003,-1.735236e+000
2.413525e+003,-1.856674e+000
2.414489e+003,-2.137702e+000
2.415453e+003,-2.552716e+000
2.416417e+003,-3.086972e+000
2.417382e+003,-4.197922e+000
2.418346e+003,-5.597754e+000
2.419310e+003,-5.019385e+000
2.420274e+003,-1.659827e+000
2.421239e+003,8.088013e-001
2.422203e+003,-2.164398e-001
2.423167e+003,-1.762518e+000
2.424131e+003,-2.158313e+000
2.425095e+003,-1.759460e+000
2.426060e+003,2.043121e-001
2.427024e+003,1.700327e+000
2.427988e+003,4.178863e-001
2.428952e+003,-1.328674e+000
2.429917e+003,-1.204654e+000
2.430881e+003,2.622986e-002
2.431845e+003,1.603229e+000
2.432809e+003,2.945166e+000
2.433773e+003,1.946967e+000
2.434738e+003,-1.359439e+000
2.435702e+003,-2.611362e+000
2.436666e+003,-1.152640e+000
2.437630e+003,2.257996e-002
2.438595e+003,8.749054e-001
2.439559e+003,1.550378e+000
2.440523e+003,2.085071e+000
2.441487e+003,2.487598e+000
2.442452e+003,2.728174e+000
2.443416e+003,3.049002e+000
2.444380e+003,3.583191e+000
2.445344e+003,3.604553e+000
2.446309e+003,2.478275e+000
2.447273e+003,1.184885e+000
2.448237e+003,8.840668e-001
2.449201e+003,1.432614e+000
2.450166e+003,3.352802e+000
2.451130e+003,5.383163e+000
2.452094e+003,4.939618e+000
2.453058e+003,3.551343e+000
2.454022e+003,3.757922e+000
2.454987e+003,4.873584e+000
2.455951e+003,5.676675e+000
2.456915e+003,5.763989e+000
2.457879e+003,4.246463e+000
2.458844e+003,1.582455e+000
2.459808e+003,7.432159e-001
2.460772e+003,2.625137e+000
2.461736e+003,4.225024e+000
2.462700e+003,4.715350e+000
2.463665e+003,5.156156e+000
2.464629e+003,6.174472e+000
2.465593e+003,6.320374e+000
2.466557e+003,4.498828e+000
2.467522e+003,3.465445e+000
2.468486e+003,4.679092e+000
2.469450e+003,6.036664e+000
2.470414e+003,6.052716e+000
2.471379e+003,5.511334e+000
2.472343e+003,5.228543e+000
2.473307e+003,5.444901e+000
2.474271e+003,6.902704e+000
2.475236e+003,9.024264e+000
2.476200e+003,9.942505e+000
2.477164e+003,9.924515e+000
2.478128e+003,9.911057e+000
2.479093e+003,9.592975e+000
2.480057e+003,7.203842e+000
2.481021e+003,3.937829e+000
2.481985e+003,3.394296e+000
2.482949e+003,5.510348e+000
2.483914e+003,7.704163e+000
2.484878e+003,9.138891e+000
2.485842e+003,9.958051e+000
2.486806e+003,1.019180e+001
2.487771e+003,1.000554e+001
2.488735e+003,9.019205e+000
2.489699e+003,8.338913e+000
2.490663e+003,7.990753e+000
2.491627e+003,8.336902e+000
2.492592e+003,1.039926e+001
2.493556e+003,1.187661e+001
2.494520e+003,1.146718e+001
2.495484e+003,1.039863e+001
2.496449e+003,9.319333e+000
2.497413e+003,9.089508e+000
2.498377e+003,1.125226e+001
2.499341e+003,1.439876e+001
2.500306e+003,1.464560e+001
2.501270e+003,1.267993e+001
2.502234e+003,1.137509e+001
2.503198e+003,1.066011e+001
2.504163e+003,1.033897e+001
2.505127e+003,1.035727e+001
2.506091e+003,1.071924e+001
2.507055e+003,1.136252e+001
2.508020e+003,1.218622e+001
2.508984e+003,1.314015e+001
2.509948e+003,1.411657e+001
2.510912e+003,1.506938e+001
2.511876e+003,1.608209e+001
2.512841e+003,1.727421e+001
2.513805e+003,1.822878e+001
2.514769e+003,1.852822e+001
2.515733e+003,1.898727e+001
2.516698e+003,2.011525e+001
2.517662e+003,2.092235e+001
2.518626e+003,2.098031e+001
2.519590e+003,2.104390e+001
2.520554e+003,2.138879e+001
2.521519e+003,2.208745e+001
2.522483e+003,2.332149e+001
2.523447e+003,2.439869e+001
2.524411e+003,2.419230e+001
2.525376e+003,2.367824e+001
2.526340e+003,2.555785e+001
2.527304e+003,2.885439e+001
2.528268e+003,3.048890e+001
2.529233e+003,3.107906e+001
2.530197e+003,3.183921e+001
2.531161e+003,3.291400e+001
2.532125e+003,3.447292e+001
2.533090e+003,3.627772e+001
2.534054e+003,3.789336e+001
2.535018e+003,3.925584e+001
2.535982e+003,4.033964e+001
2.536947e+003,4.116381e+001
2.537911e+003,4.225320e+001
2.538875e+003,4.383578e+001
2.539839e+003,4.533456e+001
2.540803e+003,4.661065e+001
2.541768e+003,4.788398e+001
2.542732e+003,4.919836e+001
2.543696e+003,5.040793e+001
2.544660e+003,5.165368e+001
2.545625e+003,5.236192e+001
2.546589e+003,5.221699e+001
2.547553e+003,5.175809e+001
2.548517e+003,5.133751e+001
2.549482e+003,5.131731e+001
2.550446e+003,5.225547e+001
2.551410e+003,5.345702e+001
2.552374e+003,5.401700e+001
2.553339e+003,5.391333e+001
2.554303e+003,5.273466e+001
2.555267e+003,5.132219e+001
2.556231e+003,5.112597e+001
2.557196e+003,5.103150e+001
2.558160e+003,4.906168e+001
2.559124e+003,4.630196e+001
2.560088e+003,4.497832e+001
2.561052e+003,4.479361e+001
2.562017e+003,4.389623e+001
2.562981e+003,4.216251e+001
2.563945e+003,4.053049e+001
2.564909e+003,3.892360e+001
2.565874e+003,3.774316e+001
2.566838e+003,3.697997e+001
2.567802e+003,3.729230e+001
2.568766e+003,3.874412e+001
2.569730e+003,3.878931e+001
2.570695e+003,3.698945e+001
2.571659e+003,3.446843e+001
2.572623e+003,3.184583e+001
2.573587e+003,3.048862e+001
2.574552e+003,3.105585e+001
2.575516e+003,3.118813e+001
2.576480e+003,2.920461e+001
2.577444e+003,2.660211e+001
2.578409e+003,2.392039e+001
2.579373e+003,2.136314e+001
2.580337e+003,1.853180e+001
2.581301e+003,1.668927e+001
2.582266e+003,1.742107e+001
2.583230e+003,1.842228e+001
2.584194e+003,1.832671e+001
2.585158e+003,1.727297e+001
2.586123e+003,1.500058e+001
2.587087e+003,1.285519e+001
2.588051e+003,1.324907e+001
2.589015e+003,1.518162e+001
2.589979e+003,1.568994e+001
2.590944e+003,1.498908e+001
2.591908e+003,1.364995e+001
2.592872e+003,1.199007e+001
2.593836e+003,1.072474e+001
2.594801e+003,9.919220e+000
2.595765e+003,9.893756e+000
2.596729e+003,1.012914e+001
2.597693e+003,9.233884e+000
2.598657e+003,7.464063e+000
2.599622e+003,6.554153e+000
2.600586e+003,6.811502e+000
2.601550e+003,7.059024e+000
2.602514e+003,7.469378e+000
2.603479e+003,6.580347e+000
2.604443e+003,3.244540e+000
2.605407e+003,2.400183e+000
2.606371e+003,5.073422e+000
2.607336e+003,6.463141e+000
2.608300e+003,5.483844e+000
2.609264e+003,4.322339e+000
2.610228e+003,3.803006e+000
2.611193e+003,3.207813e+000
2.612157e+003,2.159979e+000
2.613121e+003,1.552118e+000
2.614085e+003,2.143909e+000
2.615050e+003,3.085959e+000
2.616014e+003,4.132937e+000
2.616978e+003,4.598547e+000
2.617942e+003,3.423178e+000
2.618906e+003,2.386893e+000
2.619871e+003,3.443851e+000
2.620835e+003,3.970627e+000
2.621799e+003,9.316559e-001
2.622763e+003,-1.884232e+000
2.623728e+003,-6.292785e-001
2.624692e+003,2.242752e+000
2.625656e+003,2.894641e+000
2.626620e+003,2.008011e+000
2.627584e+003,9.957153e-001
2.628549e+003,2.351654e-001
2.629513e+003,1.656430e+000
2.630477e+003,3.929105e+000
2.631441e+003,3.979010e+000
2.632406e+003,2.653857e+000
2.633370e+003,1.560080e+000
2.634334e+003,9.181244e-001
2.635298e+003,6.832092e-001
2.636263e+003,7.330414e-001
2.637227e+003,8.963562e-001
2.638191e+003,1.140854e+000
2.639155e+003,1.207660e+000
2.640120e+003,1.145352e+000
2.641084e+003,4.629700e-001
2.642048e+003,-1.163541e+000
2.643012e+003,-1.374576e+000
2.643977e+003,-5.944824e-003
2.644941e+003,1.023505e+000
2.645905e+003,1.348618e+000
2.646869e+003,6.662475e-001
2.647833e+003,-7.638458e-001
2.648798e+003,-8.081573e-001
2.649762e+003,1.150906e+000
2.650726e+003,1.995908e+000
2.651690e+003,-1.600159e-001
2.652655e+003,-2.093903e+000
2.653619e+003,-2.323938e+000
2.654583e+003,-2.065884e+000
2.655547e+003,-1.439368e+000
2.656511e+003,-6.605438e-001
2.657476e+003,4.661163e-001
2.658440e+003,9.820862e-001
2.659404e+003,3.764465e-001
2.660368e+003,-3.282043e-001
2.661333e+003,-4.556763e-001
2.662297e+003,-2.504455e-001
2.663261e+003,5.568237e-002
2.664225e+003,3.581268e-001
2.665190e+003,7.942597e-001
2.666154e+003,7.914093e-001
2.667118e+003,-1.290140e+000
2.668082e+003,-2.930937e+000
2.669047e+003,-7.780884e-001
2.670011e+003,1.699423e+000
2.670975e+003,9.194580e-001
2.671939e+003,-9.311829e-001
2.672904e+003,-1.664468e+000
2.673868e+003,-1.256519e+000
2.674832e+003,7.602112e-001
2.675796e+003,3.038226e+000
2.676760e+003,1.752161e+000
2.677725e+003,-1.860294e+000
2.678689e+003,-2.650946e+000
2.679653e+003,-1.524905e+000
2.680617e+003,-8.459412e-001
2.681582e+003,-6.352875e-001
2.682546e+003,-7.367737e-001
2.683510e+003,-1.055234e+000
2.684474e+003,-1.891138e+000
2.685438e+003,-2.728479e+000
2.686403e+003,-1.972446e+000
2.687367e+003,9.114075e-002
2.688331e+003,4.393494e-001
2.689295e+003,-1.053571e+000
2.690260e+003,-4.326202e-001
2.691224e+003,2.775107e+000
2.692188e+003,3.500433e+000
2.693152e+003,1.780041e+000
2.694117e+003,7.284973e-001
2.695081e+003,5.309631e-001
2.696045e+003,-5.496216e-002
2.697009e+003,-1.105200e+000
2.697974e+003,-2.006908e+000
2.698938e+003,-2.460724e+000
2.699902e+003,-1.795819e+000
2.700866e+003,3.176483e-001
2.701831e+003,1.418207e+000
2.702795e+003,1.064972e-001
2.703759e+003,-7.609406e-001
2.704723e+003,-1.099359e+000
2.705688e+003,-5.622345e-001
2.706652e+003,1.149493e+000
2.707616e+003,1.699564e+000
2.708580e+003,5.356964e-001
2.709544e+003,-1.000467e+000
2.710509e+003,-2.281471e+000
2.711473e+003,-3.039623e+000
2.712437e+003,-3.140515e+000
2.713401e+003,-2.805455e+000
2.714365e+003,-2.043633e+000
2.715330e+003,-1.207681e+000
2.716294e+003,-1.645233e-001
2.717258e+003,4.267151e-001
2.718222e+003,1.248108e-001
2.719187e+003,-4.110748e-001
2.720151e+003,-1.161575e+000
2.721115e+003,-1.636482e+000
2.722079e+003,-1.609474e+000
2.723044e+003,-1.069159e+000
2.724008e+003,1.728516e-002
2.724972e+003,9.172058e-001
2.725936e+003,7.899048e-001
2.726901e+003,5.430328e-001
2.727865e+003,1.766861e+000
2.728829e+003,2.559924e+000
2.729793e+003,4.613434e-001
2.730758e+003,-1.503836e+000
2.731722e+003,-5.085266e-001
2.732686e+003,4.827972e-001
2.733650e+003,-1.067117e+000
2.734615e+003,-2.683733e+000
2.735579e+003,-2.193181e+000
2.736543e+003,-1.029260e+000
2.737507e+003,-1.111591e+000
2.738471e+003,-1.765620e+000
2.739436e+003,-1.879474e+000
2.740400e+003,-1.564578e+000
2.741364e+003,-6.086334e-001
2.742328e+003,2.504944e-001
2.743292e+003,-1.486969e-001
2.744257e+003,-8.233582e-001
2.745221e+003,-5.199219e-001
2.746185e+003,2.344665e-002
2.747149e+003,-3.339661e-001
2.748114e+003,-9.999756e-001
2.749078e+003,-1.052689e+000
2.750042e+003,-7.656189e-001
2.751006e+003,-8.652069e-001
2.751971e+003,-1.275542e+000
2.752935e+003,-1.894980e+000
2.753899e+003,-2.480628e+000
2.754863e+003,-2.344936e+000
2.755828e+003,-1.879649e+000
2.756792e+003,-1.748524e+000
2.757756e+003,-1.767920e+000
2.758720e+003,-1.507060e+000
2.759685e+003,-1.103384e+000
2.760649e+003,-6.842499e-001
2.761613e+003,-5.944702e-001
2.762577e+003,-2.312436e+000
2.763542e+003,-5.219588e+000
2.764506e+003,-3.598505e+000
2.765470e+003,1.196091e+000
2.766434e+003,1.485593e+000
2.767398e+003,-1.063383e+000
2.768363e+003,-1.890286e+000
2.769327e+003,-1.449020e+000
2.770291e+003,-1.718044e+000
2.771255e+003,-2.398793e+000
2.772219e+003,-2.139082e+000
2.773184e+003,-9.692367e-001
2.774148e+003,3.948761e-001
2.775112e+003,1.798218e+000
2.776076e+003,1.151401e+000
2.777041e+003,-1.579250e+000
2.778005e+003,-2.754547e+000
2.778969e+003,-2.610503e+000
2.779933e+003,-2.384111e+000
2.780898e+003,-2.210379e+000
2.781862e+003,-2.042317e+000
2.782826e+003,-1.921008e+000
2.783790e+003,-2.055353e+000
2.784755e+003,-2.335928e+000
2.785719e+003,-2.252473e+000
2.786683e+003,-1.713365e+000
2.787647e+003,-9.285919e-001
2.788612e+003,2.784119e-001
2.789576e+003,-5.378128e-001
2.790540e+003,-3.220314e+000
2.791504e+003,-2.925858e+000
2.792469e+003,-2.421906e-001
2.793433e+003,5.960663e-001
2.794397e+003,-3.979935e-001
2.795361e+003,-1.009305e+000
2.796325e+003,-9.755707e-001
2.797290e+003,-1.285342e+000
2.798254e+003,-2.101800e+000
2.799218e+003,-3.051730e+000
2.800182e+003,-4.386426e+000
2.801146e+003,-3.502580e+000
2.802111e+003,-6.973267e-003
2.803075e+003,1.324915e+000
2.804039e+003,4.834442e-001
2.805003e+003,-1.278168e-001
2.805968e+003,-2.612198e-001
2.806932e+003,-3.451630e-001
2.807896e+003,-4.196808e-001
2.808860e+003,-2.465576e-001
2.809825e+003,1.074432e-001
2.810789e+003,-2.399231e-001
2.811753e+003,-1.672539e+000
2.812717e+003,-2.407707e+000
2.813682e+003,-2.362504e+000
2.814646e+003,-1.826762e+000
2.815610e+003,-8.356705e-001
2.816574e+003,-6.749848e-001
2.817539e+003,-1.281256e+000
2.818503e+003,-1.607307e+000
2.819467e+003,-1.584378e+000
2.820431e+003,-1.904913e+000
2.821396e+003,-2.535773e+000
2.822360e+003,-2.482803e+000
2.823324e+003,-1.487111e+000
2.824288e+003,-1.813049e-001
2.825252e+003,1.944540e+000
2.826217e+003,1.658478e+000
2.827181e+003,-1.131534e+000
2.828145e+003,-1.653139e+000
2.829109e+003,4.458618e-003
2.830073e+003,8.281067e-001
2.831038e+003,4.548584e-001
2.832002e+003,-4.167923e-001
2.832966e+003,-1.346744e+000
2.833930e+003,-1.418698e+000
2.834895e+003,-4.344345e-001
2.835859e+003,1.743515e-001
2.836823e+003,2.713318e-001
2.837787e+003,6.710968e-002
2.838752e+003,-4.646530e-001
2.839716e+003,-5.739838e-001
2.840680e+003,-3.500046e-001
2.841644e+003,-7.877014e-001
2.842609e+003,-1.799385e+000
2.843573e+003,-2.612039e+000
2.844537e+003,-3.030208e+000
2.845501e+003,-3.147948e+000
2.846466e+003,-2.999170e+000
2.847430e+003,-2.503447e+000
2.848394e+003,-1.578806e+000
2.849358e+003,-1.101906e+000
2.850323e+003,-1.058946e+000
2.851287e+003,-1.802293e+000
2.852251e+003,-3.050551e+000
2.853215e+003,-2.859885e+000
2.854179e+003,-1.494452e+000
2.855144e+003,-6.833496e-002
2.856108e+003,7.913605e-001
2.857072e+003,-3.050095e-001
2.858036e+003,-3.053149e+000
2.859000e+003,-3.855531e+000
2.859965e+003,-2.493491e+000
2.860929e+003,-1.952643e+000
2.861893e+003,-2.286862e+000
2.862857e+003,-1.670293e+000
2.863822e+003,-3.754410e-001
2.864786e+003,-1.614670e-001
2.865750e+003,-6.642578e-001
2.866714e+003,-2.668060e-001
2.867679e+003,6.034897e-001
2.868643e+003,2.295761e-001
2.869607e+003,-1.220819e+000
2.870571e+003,-2.102385e+000
2.871536e+003,-2.360579e+000
2.872500e+003,-1.865256e+000
2.873464e+003,-7.089432e-001
2.874428e+003,-8.896744e-001
2.875393e+003,-1.928407e+000
2.876357e+003,-2.379649e+000
2.877321e+003,-2.188000e+000
2.878285e+003,-1.086629e+000
2.879250e+003,2.151856e-001
2.880214e+003,3.420181e-001
2.881178e+003,-4.403030e-001
2.882142e+003,-9.370758e-001
2.883106e+003,-1.255083e+000
2.884071e+003,-2.058745e+000
2.885035e+003,-3.088147e+000
2.885999e+003,-2.865700e+000
2.886963e+003,-1.772937e+000
2.887927e+003,-7.922821e-002
2.888892e+003,1.325909e+000
2.889856e+003,5.770676e-001
2.890820e+003,-9.402283e-001
2.891784e+003,-9.223922e-001
2.892749e+003,-1.028046e-001
2.893713e+003,1.304169e-001
2.894677e+003,-3.978577e-002
2.895641e+003,-2.933075e-001
2.896606e+003,-4.913071e-001
2.897570e+003,1.283096e-001
2.898534e+003,7.438034e-001
2.899498e+003,-4.844986e-001
2.900463e+003,-2.023736e+000
2.901427e+003,-1.953586e+000
2.902391e+003,-1.302927e+000
2.903355e+003,-1.152905e+000
2.904320e+003,-1.364415e+000
2.905284e+003,-1.941225e+000
2.906248e+003,-2.117319e+000
2.907212e+003,-4.613144e-001
2.908177e+003,1.421345e+000
2.909141e+003,3.286392e-001
2.910105e+003,-1.345805e+000
2.911069e+003,-8.589432e-001
2.912033e+003,-7.926483e-002
2.912998e+003,-4.604202e-001
2.913962e+003,-1.081073e+000
2.914926e+003,-1.512019e+000
2.915890e+003,-1.560876e+000
2.916854e+003,-1.062421e+000
2.917819e+003,-2.782425e-001
2.918783e+003,6.215454e-001
2.919747e+003,1.074683e+000
2.920711e+003,1.793732e-001
2.921676e+003,-8.983520e-001
2.922640e+003,-1.886977e+000
2.923604e+003,-2.108922e+000
2.924568e+003,-1.046086e+000
2.925533e+003,2.182663e-001
2.926497e+003,1.346500e+000
2.927461e+003,2.627921e+000
2.928425e+003,4.161355e+000
2.929390e+003,-7.138702e-001
2.930354e+003,-1.801489e+001
2.931318e+003,-2.836828e+001
2.932282e+003,-1.300675e+001
2.933247e+003,-2.968384e-001
2.934211e+003,1.337401e+000
2.935175e+003,1.214911e+000
2.936139e+003,-3.852600e-001
2.937104e+003,-1.094122e+000
2.938068e+003,-4.090912e-001
2.939032e+003,5.337524e-002
2.939996e+003,-1.648743e-001
2.940960e+003,1.609039e-002
2.941925e+003,9.850845e-001
2.942889e+003,1.419676e+000
2.943853e+003,7.926315e-001
2.944817e+003,-8.147888e-002
2.945781e+003,-1.347533e+000
2.946746e+003,-1.755286e+000
2.947710e+003,-1.298587e+000
2.948674e+003,-4.148453e-001
2.949638e+003,4.907761e-001
2.950603e+003,-1.931000e-002
2.951567e+003,-1.571529e+000
2.952531e+003,-1.969307e+000
2.953495e+003,-8.615219e-001
2.954460e+003,7.348709e-001
2.955424e+003,2.757336e+000
2.956388e+003,2.196936e+000
2.957352e+003,-4.824905e-001
2.958317e+003,-1.544647e-001
2.959281e+003,1.878433e+000
2.960245e+003,1.757956e+000
2.961209e+003,7.262726e-002
2.962174e+003,-2.268811e+000
2.963138e+003,-4.033342e+000
2.964102e+003,-2.508586e+000
2.965066e+003,6.996185e-001
2.966031e+003,2.129466e+000
2.966995e+003,2.131335e+000
2.967959e+003,1.285489e+000
2.968923e+003,3.095261e-001
2.969887e+003,1.294739e+000
2.970852e+003,2.472949e+000
2.971816e+003,1.283658e+000
2.972780e+003,-4.328262e-001
2.973744e+003,-7.863938e-001
2.974708e+003,-5.131531e-001
2.975673e+003,-1.571625e-001
2.976637e+003,1.317947e-001
2.977601e+003,1.333450e-001
2.978565e+003,1.431122e-001
2.979530e+003,1.025856e+000
2.980494e+003,1.459227e+000
2.981458e+003,-4.769104e-001
2.982422e+003,-1.919836e+000
2.983387e+003,-1.142477e+000
2.984351e+003,2.732697e-002
2.985315e+003,1.143228e+000
2.986279e+003,1.003412e+000
2.987244e+003,-9.257813e-001
2.988208e+003,-2.255774e+000
2.989172e+003,-1.448778e+000
2.990136e+003,-4.541672e-001
2.991101e+003,-3.714569e-001
2.992065e+003,-2.902344e-001
2.993029e+003,1.720810e-001
2.993993e+003,-1.077240e-001
2.994958e+003,-1.330620e+000
2.995922e+003,-1.551799e+000
2.996886e+003,-5.929917e-001
2.997850e+003,-6.871948e-002
2.998814e+003,-2.810928e-001
2.999779e+003,-2.224564e-001
3.000743e+003,3.745178e-001
3.001707e+003,7.908676e-001
3.002671e+003,1.016974e+000
3.003635e+003,6.873261e-001
3.004600e+003,-1.593109e-001
3.005564e+003,-7.677811e-001
3.006528e+003,-1.114566e+000
3.007492e+003,-1.459956e+000
3.008457e+003,-1.508350e+000
3.009421e+003,-2.128998e-001
3.010385e+003,1.729303e+000
3.011349e+003,2.628749e+000
3.012314e+003,2.402284e+000
3.013278e+003,5.082794e-001
3.014242e+003,-2.098380e+000
3.015206e+003,-2.087355e+000
3.016171e+003,-7.272110e-001
3.017135e+003,4.400268e-001
3.018099e+003,1.048053e+000
3.019063e+003,5.055496e-001
3.020028e+003,-4.288452e-001
3.020992e+003,-1.186821e+000
3.021956e+003,-1.813712e+000
3.022920e+003,-2.360281e+000
3.023885e+003,-2.809935e+000
3.024849e+003,-3.172797e+000
3.025813e+003,-3.280493e+000
3.026777e+003,-2.687557e+000
3.027741e+003,-2.237039e+000
3.028706e+003,-2.818542e+000
3.029670e+003,-2.663843e+000
3.030634e+003,-1.117868e+000
3.031598e+003,-3.324234e-001
3.032563e+003,-9.457749e-001
3.033527e+003,-1.044876e+000
3.034491e+003,1.153656e-001
3.035455e+003,9.433426e-001
3.036420e+003,6.584503e-001
3.037384e+003,6.301788e-001
3.038348e+003,1.584090e+000
3.039312e+003,9.041473e-001
3.040277e+003,-1.426852e+000
3.041241e+003,-2.214751e+000
3.042205e+003,-1.516133e+000
3.043169e+003,-6.917862e-001
3.044134e+003,-1.341690e-001
3.045098e+003,-1.829239e-001
3.046062e+003,-6.998276e-001
3.047026e+003,-9.158036e-001
3.047990e+003,-8.283432e-001
3.048955e+003,-4.668060e-001
3.049919e+003,-1.915741e-002
3.050883e+003,-5.413544e-001
3.051847e+003,-1.362122e+000
3.052812e+003,-1.364218e+000
3.053776e+003,-9.424759e-001
3.054740e+003,-3.879517e-001
3.055704e+003,-5.591888e-002
3.056668e+003,-1.530655e-001
3.057633e+003,-8.175858e-001
3.058597e+003,-2.378021e+000
3.059561e+003,-3.452359e+000
3.060525e+003,-1.471603e+000
3.061490e+003,3.200912e-001
3.062454e+003,-1.208505e+000
3.063418e+003,-2.618314e+000
3.064382e+003,-2.694498e+000
3.065347e+003,-2.209682e+000
3.066311e+003,-1.345695e+000
3.067275e+003,-6.464508e-001
3.068239e+003,-3.504685e-001
3.069204e+003,-6.583374e-001
3.070168e+003,-1.683118e+000
3.071132e+003,-2.498343e+000
3.072096e+003,-2.908919e+000
3.073061e+003,-2.462500e+000
3.074025e+003,-1.032919e+000
3.074989e+003,-9.574280e-002
3.075953e+003,1.783264e-001
3.076917e+003,-6.957474e-001
3.077882e+003,-2.244508e+000
3.078846e+003,-3.424684e+000
3.079810e+003,-3.982912e+000
3.080774e+003,-3.848283e+000
3.081739e+003,-3.040010e+000
3.082703e+003,-1.139598e+000
3.083667e+003,1.008014e+000
3.084631e+003,5.613708e-002
3.085595e+003,-2.060341e+000
3.086560e+003,-2.514214e+000
3.087524e+003,-2.114555e+000
3.088488e+003,-1.153992e+000
3.089452e+003,-6.430664e-001
3.090417e+003,-1.249469e+000
3.091381e+003,-2.326817e+000
3.092345e+003,-3.416457e+000
3.093309e+003,-3.744540e+000
3.094274e+003,-2.260173e+000
3.095238e+003,-1.033676e+000
3.096202e+003,-2.298015e+000
3.097166e+003,-2.099646e+000
3.098131e+003,9.355850e-001
3.099095e+003,2.116035e+000
3.100059e+003,7.580353e-001
3.101023e+003,-5.615937e-001
3.101988e+003,-1.087401e+000
3.102952e+003,-7.246903e-001
3.103916e+003,3.074020e-001
3.104880e+003,-5.102386e-002
3.105844e+003,-2.043417e+000
3.106809e+003,-2.711621e+000
3.107773e+003,-2.238944e+000
3.108737e+003,-3.040283e+000
3.109701e+003,-4.396806e+000
3.110666e+003,-4.565310e+000
3.111630e+003,-3.795935e+000
3.112594e+003,-2.238693e+000
3.113558e+003,-7.128784e-001
3.114522e+003,-1.659393e-001
3.115487e+003,-1.377579e-001
3.116451e+003,2.556763e-002
3.117415e+003,1.179398e-001
3.118379e+003,-1.291336e-001
3.119344e+003,-6.306198e-001
3.120308e+003,-1.439201e+000
3.121272e+003,-2.387665e+000
3.122236e+003,-3.522490e+000
3.123201e+003,-4.344490e+000
3.124165e+003,-4.684120e+000
3.125129e+003,-4.036931e+000
3.126093e+003,-2.404741e+000
3.127058e+003,-1.822948e+000
3.128022e+003,-3.366416e+000
3.128986e+003,-3.806874e+000
3.129950e+003,-2.303528e+000
3.130915e+003,-1.211166e+000
3.131879e+003,-6.328689e-001
3.132843e+003,-2.464127e+000
3.133807e+003,-5.337237e+000
3.134771e+003,-5.065184e+000
3.135736e+003,-2.732175e+000
3.136700e+003,-1.366037e+000
3.137664e+003,-1.091415e+000
3.138628e+003,-1.728853e+000
3.139593e+003,-2.824724e+000
3.140557e+003,-3.806009e+000
3.141521e+003,-3.963379e+000
3.142485e+003,-1.018767e+000
3.143449e+003,1.650484e+000
3.144414e+003,1.410284e+000
3.145378e+003,-3.561234e-001
3.146342e+003,-3.535529e+000
3.147306e+003,-4.666224e+000
3.148271e+003,-2.254304e+000
3.149235e+003,-1.220779e-001
3.150199e+003,-4.131226e-001
3.151163e+003,-1.286678e+000
3.152128e+003,-2.099303e+000
3.153092e+003,-3.179071e+000
3.154056e+003,-4.693105e+000
3.155020e+003,-4.318472e+000
3.155985e+003,-2.493564e+000
3.156949e+003,-1.896768e+000
3.157913e+003,-2.337036e+000
3.158877e+003,-2.386751e+000
3.159842e+003,-2.048721e+000
3.160806e+003,-1.981360e+000
3.161770e+003,-2.040944e+000
3.162734e+003,-1.703465e+000
3.163698e+003,-1.376793e+000
3.164663e+003,-2.444932e+000
3.165627e+003,-3.424095e+000
3.166591e+003,-2.131099e+000
3.167555e+003,-1.107831e+000
3.168520e+003,-1.941362e+000
3.169484e+003,-2.963139e+000
3.170448e+003,-3.384540e+000
3.171412e+003,-2.769705e+000
3.172376e+003,-8.697082e-001
3.173341e+003,3.309006e-001
3.174305e+003,-5.672501e-001
3.175269e+003,-1.069690e+000
3.176233e+003,-8.208786e-001
3.177198e+003,-8.847580e-001
3.178162e+003,-1.250298e+000
3.179126e+003,-1.258739e+000
3.180090e+003,-1.093277e+000
3.181055e+003,-1.715413e+000
3.182019e+003,-2.700247e+000
3.182983e+003,-2.559833e+000
3.183947e+003,-1.724338e+000
3.184912e+003,-1.128230e+000
3.185876e+003,-9.327042e-001
3.186840e+003,-1.933670e+000
3.187804e+003,-3.015741e+000
3.188769e+003,-2.830742e+000
3.189733e+003,-2.471469e+000
3.190697e+003,-2.598262e+000
3.191661e+003,-2.679387e+000
3.192625e+003,-2.484931e+000
3.193590e+003,-2.082942e+000
3.194554e+003,-1.524933e+000
3.195518e+003,-1.168401e+000
3.196482e+003,-1.288235e+000
3.197447e+003,-1.089589e+000
3.198411e+003,-3.816147e-001
3.199375e+003,-5.941864e-001
3.200339e+003,-1.463869e+000
3.201303e+003,-1.170677e+000
3.202268e+003,-1.053085e-001
3.203232e+003,6.373307e-001
3.204196e+003,8.166016e-001
3.205160e+003,2.213730e-001
3.206125e+003,-5.132920e-001
3.207089e+003,-1.430099e-001
3.208053e+003,5.102875e-001
3.209017e+003,-3.531784e-001
3.209982e+003,-1.100220e+000
3.210946e+003,2.021637e-001
3.211910e+003,1.038132e+000
3.212874e+003,3.308014e-001
3.213839e+003,1.507935e-001
3.214803e+003,1.077528e+000
3.215767e+003,1.291397e+000
3.216731e+003,1.415405e-001
3.217696e+003,-1.076799e+000
3.218660e+003,-2.027115e+000
3.219624e+003,-2.209352e+000
3.220588e+003,-1.600990e+000
3.221552e+003,-1.609494e+000
3.222517e+003,-1.992983e+000
3.223481e+003,-2.099718e+000
3.224445e+003,-1.922375e+000
3.225409e+003,-1.397723e+000
3.226374e+003,-7.511765e-001
3.227338e+003,-2.114777e-001
3.228302e+003,1.954956e-001
3.229266e+003,5.038071e-001
3.230230e+003,3.840637e-001
3.231195e+003,-1.087242e+000
3.232159e+003,-2.111250e+000
3.233123e+003,-1.575426e+000
3.234087e+003,-1.175000e+000
3.235052e+003,-1.158481e+000
3.236016e+003,-8.775070e-001
3.236980e+003,-2.298096e-001
3.237944e+003,5.635452e-001
3.238909e+003,1.348235e+000
3.239873e+003,1.587325e+000
3.240837e+003,1.310544e+000
3.241801e+003,8.991699e-001
3.242766e+003,3.513809e-001
3.243730e+003,-6.376938e-001
3.244694e+003,-1.494551e+000
3.245658e+003,-1.152029e+000
3.246623e+003,-5.835953e-001
3.247587e+003,-5.980636e-001
3.248551e+003,-8.364136e-001
3.249515e+003,-1.074704e+000
3.250479e+003,-1.315974e+000
3.251444e+003,-1.600766e+000
3.252408e+003,-1.637267e+000
3.253372e+003,-7.974182e-001
3.254336e+003,-9.109558e-001
3.255301e+003,-2.194932e+000
3.256265e+003,-1.822954e+000
3.257229e+003,-1.581131e-001
3.258193e+003,1.591675e-001
3.259157e+003,-6.855301e-001
3.260122e+003,-1.356099e+000
3.261086e+003,-1.464716e+000
3.262050e+003,-4.481705e-001
3.263014e+003,7.659943e-001
3.263979e+003,-2.607223e-001
3.264943e+003,-1.891425e+000
3.265907e+003,-2.478368e+000
3.266871e+003,-2.316687e+000
3.267836e+003,-1.315041e+000
3.268800e+003,-3.797150e-001
3.269764e+003,2.414154e-001
3.270728e+003,4.482086e-001
3.271693e+003,1.761215e-001
3.272657e+003,-1.030473e+000
3.273621e+003,-3.407408e+000
3.274585e+003,-3.414708e+000
3.275550e+003,-8.428574e-001
3.276514e+003,6.419601e-001
3.277478e+003,1.128578e+000
3.278442e+003,2.134628e-001
3.279406e+003,-9.529190e-001
3.280371e+003,-2.454636e-001
3.281335e+003,3.058624e-001
3.282299e+003,-1.323038e+000
3.283263e+003,-2.376601e+000
3.284228e+003,-1.513382e-001
3.285192e+003,2.223596e+000
3.286156e+003,2.057764e+000
3.287120e+003,1.503784e+000
3.288084e+003,8.279419e-001
3.289049e+003,1.068207e+000
3.290013e+003,2.107558e+000
3.290977e+003,1.839323e+000
3.291941e+003,4.669541e-001
3.292906e+003,-3.784882e-001
3.293870e+003,-5.191437e-001
3.294834e+003,-3.819672e-001
3.295798e+003,-2.985397e-001
3.296763e+003,-1.751050e+000
3.297727e+003,-2.982707e+000
3.298691e+003,4.813385e-002
3.299655e+003,3.143754e+000
3.300620e+003,3.366902e+000
3.301584e+003,1.737552e+000
3.302548e+003,-1.631323e+000
3.303512e+003,-2.790561e+000
3.304477e+003,-6.001129e-001
3.305441e+003,1.450914e+000
3.306405e+003,2.076311e+000
3.307369e+003,1.660098e+000
3.308333e+003,2.400360e-001
3.309298e+003,5.159332e-001
3.310262e+003,1.954735e+000
3.311226e+003,3.532834e+000
3.312190e+003,4.551360e+000
3.313155e+003,3.506776e+000
3.314119e+003,2.320049e+000
3.315083e+003,2.541174e+000
3.316047e+003,3.046506e+000
3.317011e+003,2.913632e+000
3.317976e+003,2.662450e+000
3.318940e+003,2.668729e+000
3.319904e+003,2.639416e+000
3.320868e+003,2.573997e+000
3.321833e+003,2.158821e+000
3.322797e+003,1.550456e+000
3.323761e+003,1.829187e+000
3.324725e+003,2.765064e+000
3.325690e+003,3.639355e+000
3.326654e+003,4.134377e+000
3.327618e+003,3.882126e+000
3.328582e+003,3.264542e+000
3.329547e+003,2.998723e+000
3.330511e+003,2.882187e+000
3.331475e+003,2.574866e+000
3.332439e+003,2.496979e+000
3.333404e+003,2.862853e+000
3.334368e+003,3.651019e+000
3.335332e+003,4.661851e+000
3.336296e+003,2.898567e+000
3.337260e+003,-1.530270e+000
3.338225e+003,-3.279843e+000
3.339189e+003,-1.411083e+000
3.340153e+003,-4.255036e-001
3.341117e+003,-1.502274e-001
3.342082e+003,1.297653e-001
3.343046e+003,5.408966e-001
3.344010e+003,1.793210e+000
3.344974e+003,2.548196e+000
3.345938e+003,1.494263e+000
3.346903e+003,7.265946e-001
3.347867e+003,1.218603e+000
3.348831e+003,1.722790e+000
3.349795e+003,1.561581e+000
3.350760e+003,8.918045e-001
3.351724e+003,-5.921448e-001
3.352688e+003,-1.031824e+000
3.353652e+003,-5.268524e-001
3.354617e+003,-1.130661e-001
3.355581e+003,1.914475e-001
3.356545e+003,4.307404e-001
3.357509e+003,7.340409e-001
3.358474e+003,1.416658e+000
3.359438e+003,1.713650e+000
3.360402e+003,8.327500e-001
3.361366e+003,-4.103088e-002
3.362331e+003,3.059265e-001
3.363295e+003,6.856338e-001
3.364259e+003,4.694992e-001
3.365223e+003,1.135251e+000
3.366188e+003,2.599571e+000
3.367152e+003,2.168108e+000
3.368116e+003,4.724640e-001
3.369080e+003,6.107147e-001
3.370044e+003,1.966531e+000
3.371009e+003,1.804953e+000
3.371973e+003,1.153807e+000
3.372937e+003,2.252481e+000
3.373901e+003,3.437443e+000
3.374865e+003,2.341962e+000
3.375830e+003,1.186331e+000
3.376794e+003,8.643173e-001
3.377758e+003,6.667511e-001
3.378722e+003,4.287567e-001
3.379687e+003,1.699829e-002
3.380651e+003,-4.382752e-001
3.381615e+003,-6.591491e-002
3.382579e+003,9.951859e-001
3.383544e+003,1.106366e+000
3.384508e+003,6.676208e-001
3.385472e+003,1.229198e+000
3.386436e+003,1.999338e+000
3.387401e+003,2.235484e+000
3.388365e+003,1.674474e+000
3.389329e+003,-4.749908e-002
3.390293e+003,-1.237396e-001
3.391258e+003,2.310080e+000
3.392222e+003,3.503256e+000
3.393186e+003,1.938913e+000
3.394150e+003,1.775168e+000
3.395115e+003,3.487665e+000
3.396079e+003,4.469757e+000
3.397043e+003,4.913469e+000
3.398007e+003,5.287384e+000
3.398971e+003,5.725615e+000
3.399936e+003,6.588922e+000
3.400900e+003,7.070659e+000
3.401864e+003,6.646747e+000
3.402828e+003,6.292967e+000
3.403792e+003,6.704443e+000
3.404757e+003,6.758981e+000
3.405721e+003,5.097563e+000
3.406685e+003,5.876746e+000
3.407649e+003,9.149600e+000
3.408614e+003,1.016998e+001
3.409578e+003,9.899027e+000
3.410542e+003,1.185645e+001
3.411506e+003,1.437543e+001
3.412471e+003,1.412697e+001
3.413435e+003,1.394319e+001
3.414399e+003,1.676367e+001
3.415363e+003,1.973555e+001
3.416328e+003,1.981641e+001
3.417292e+003,1.983430e+001
3.418256e+003,2.070768e+001
3.419220e+003,2.192867e+001
3.420185e+003,2.327899e+001
3.421149e+003,2.328307e+001
3.422113e+003,2.211120e+001
3.423077e+003,2.013227e+001
3.424042e+003,1.843547e+001
3.425006e+003,1.875762e+001
3.425970e+003,1.982229e+001
3.426934e+003,1.988474e+001
