7.140112e+001,1.576864e+002
7.236536e+001,1.534226e+002
7.332959e+001,1.516875e+002
7.429382e+001,1.539828e+002
7.525806e+001,1.611149e+002
7.622229e+001,1.639007e+002
7.718652e+001,1.560893e+002
7.815076e+001,1.322422e+002
7.911499e+001,1.144634e+002
8.007922e+001,9.847084e+001
8.104346e+001,8.866801e+001
8.200769e+001,8.993394e+001
8.297192e+001,1.110917e+002
8.393616e+001,1.338459e+002
8.490039e+001,1.592728e+002
8.586462e+001,1.824653e+002
8.682886e+001,1.959695e+002
8.779310e+001,1.829426e+002
8.875733e+001,1.601183e+002
8.972157e+001,1.346293e+002
9.068580e+001,1.100130e+002
9.165003e+001,8.777140e+001
9.261427e+001,7.807439e+001
9.357850e+001,7.693864e+001
9.454273e+001,7.880856e+001
9.550697e+001,8.017110e+001
9.647120e+001,8.145900e+001
9.743543e+001,8.088934e+001
9.839967e+001,7.858482e+001
9.936390e+001,7.469939e+001
1.003281e+002,6.897390e+001
1.012924e+002,5.702949e+001
1.022566e+002,4.939819e+001
1.032208e+002,4.946008e+001
1.041851e+002,5.516088e+001
1.051493e+002,6.150582e+001
1.061135e+002,6.544595e+001
1.070778e+002,6.720469e+001
1.080420e+002,6.607236e+001
1.090062e+002,6.212634e+001
1.099705e+002,5.640332e+001
1.109347e+002,4.956117e+001
1.118989e+002,4.291118e+001
1.128632e+002,3.988747e+001
1.138274e+002,4.308677e+001
1.147916e+002,5.396055e+001
1.157559e+002,5.883348e+001
1.167201e+002,5.605434e+001
1.176843e+002,5.058330e+001
1.186486e+002,4.847576e+001
1.196128e+002,5.273668e+001
1.205770e+002,5.660835e+001
1.215413e+002,6.173402e+001
1.225055e+002,6.622823e+001
1.234697e+002,6.623552e+001
1.244340e+002,5.225352e+001
1.253982e+002,3.845155e+001
1.263624e+002,2.807456e+001
1.273267e+002,2.254838e+001
1.282909e+002,2.191525e+001
1.292551e+002,3.218541e+001
1.302194e+002,4.558755e+001
1.311836e+002,5.509007e+001
1.321478e+002,5.621186e+001
1.331121e+002,4.872814e+001
1.340763e+002,4.107161e+001
1.350405e+002,3.274250e+001
1.360048e+002,2.605415e+001
1.369690e+002,2.353412e+001
1.379332e+002,2.786930e+001
1.388975e+002,3.322593e+001
1.398617e+002,4.134174e+001
1.408259e+002,4.976475e+001
1.417902e+002,5.468748e+001
1.427544e+002,5.270258e+001
1.437186e+002,4.849055e+001
1.446829e+002,4.161678e+001
1.456471e+002,3.324122e+001
1.466113e+002,2.569526e+001
1.475756e+002,2.159553e+001
1.485398e+002,2.053274e+001
1.495040e+002,2.504357e+001
1.504683e+002,3.519403e+001
1.514325e+002,4.841929e+001
1.523967e+002,4.842695e+001
1.533610e+002,3.835231e+001
1.543252e+002,2.695341e+001
1.552894e+002,2.047236e+001
1.562537e+002,2.089003e+001
1.572179e+002,2.077726e+001
1.581821e+002,1.852001e+001
1.591464e+002,1.680096e+001
1.601106e+002,1.899153e+001
1.610748e+002,3.042319e+001
1.620391e+002,3.763929e+001
1.630033e+002,3.567580e+001
1.639676e+002,2.831080e+001
1.649318e+002,2.145769e+001
1.658960e+002,2.128801e+001
1.668603e+002,2.328860e+001
1.678245e+002,2.492810e+001
1.687887e+002,2.575308e+001
1.697530e+002,2.602312e+001
1.707172e+002,2.617040e+001
1.716814e+002,2.624900e+001
1.726457e+002,2.674702e+001
1.736099e+002,2.799078e+001
1.745741e+002,3.008851e+001
1.755384e+002,2.855807e+001
1.765026e+002,2.045692e+001
1.774668e+002,1.306497e+001
1.784311e+002,1.083832e+001
1.793953e+002,1.625115e+001
1.803595e+002,1.947036e+001
1.813238e+002,1.767200e+001
1.822880e+002,1.434410e+001
1.832522e+002,1.236842e+001
1.842165e+002,1.415220e+001
1.851807e+002,1.588606e+001
1.861449e+002,1.406969e+001
1.871092e+002,1.047103e+001
1.880734e+002,7.372437e+000
1.890376e+002,7.955017e+000
1.900019e+002,1.144585e+001
1.909661e+002,1.536554e+001
1.919303e+002,1.947786e+001
1.928946e+002,2.325269e+001
1.938588e+002,2.473024e+001
1.948230e+002,2.250772e+001
1.957873e+002,2.101799e+001
1.967515e+002,2.012676e+001
1.977157e+002,1.997705e+001
1.986800e+002,2.372832e+001
1.996442e+002,3.389626e+001
2.006084e+002,4.519371e+001
2.015727e+002,5.831742e+001
2.025369e+002,7.324010e+001
2.035011e+002,8.304738e+001
2.044654e+002,8.149618e+001
2.054296e+002,7.483331e+001
2.063938e+002,6.479549e+001
2.073581e+002,5.271786e+001
2.083223e+002,4.135133e+001
2.092865e+002,3.625786e+001
2.102508e+002,3.622367e+001
2.112150e+002,4.109121e+001
2.121792e+002,5.090971e+001
2.131435e+002,6.781987e+001
2.141077e+002,7.556859e+001
2.150719e+002,7.030815e+001
2.160362e+002,5.945745e+001
2.170004e+002,5.406460e+001
2.179646e+002,5.919300e+001
2.189289e+002,6.347554e+001
2.198931e+002,6.397900e+001
2.208573e+002,6.295036e+001
2.218216e+002,6.499841e+001
2.227858e+002,7.681071e+001
2.237500e+002,8.876619e+001
2.247143e+002,1.000906e+002
2.256785e+002,1.086578e+002
2.266427e+002,1.110942e+002
2.276070e+002,9.553313e+001
2.285712e+002,7.131525e+001
2.295354e+002,4.987883e+001
2.304997e+002,3.467892e+001
2.314639e+002,2.521713e+001
2.324281e+002,1.930433e+001
2.333924e+002,1.738520e+001
2.343566e+002,1.624982e+001
2.353208e+002,1.480472e+001
2.362851e+002,1.294502e+001
2.372493e+002,1.135198e+001
2.382135e+002,1.002096e+001
2.391778e+002,8.842737e+000
2.401420e+002,7.853064e+000
2.411062e+002,7.113342e+000
2.420705e+002,6.225476e+000
2.430347e+002,4.634021e+000
2.439989e+002,2.926038e+000
2.449632e+002,1.514624e+000
2.459274e+002,7.159668e-001
2.468916e+002,6.115723e-001
2.478559e+002,1.568909e+000
2.488201e+002,3.082019e+000
2.497843e+002,3.976245e+000
2.507486e+002,2.843579e+000
2.517128e+002,-9.773560e-001
2.526770e+002,-2.649707e+000
2.536413e+002,-1.871301e+000
2.546055e+002,4.068970e-001
2.555697e+002,2.831494e+000
2.565340e+002,6.190881e+000
2.574982e+002,8.504138e+000
2.584625e+002,9.142298e+000
2.594267e+002,8.921143e+000
2.603909e+002,9.289868e+000
2.613552e+002,1.223705e+001
2.623194e+002,1.415848e+001
2.632836e+002,1.259176e+001
2.642479e+002,8.557422e+000
2.652121e+002,4.543714e+000
2.661763e+002,4.883374e+000
2.671406e+002,7.395142e+000
2.681048e+002,8.661036e+000
2.690690e+002,8.085889e+000
2.700333e+002,6.243335e+000
2.709975e+002,5.503039e+000
2.719617e+002,6.269751e+000
2.729260e+002,6.870923e+000
2.738902e+002,7.107092e+000
2.748544e+002,6.969958e+000
2.758187e+002,6.041883e+000
2.767829e+002,3.285168e+000
2.777471e+002,6.473511e-001
2.787114e+002,-1.409045e+000
2.796756e+002,-2.715100e+000
2.806398e+002,-3.215308e+000
2.816041e+002,-3.060498e+000
2.825683e+002,-2.159827e+000
2.835325e+002,2.749634e-001
2.844968e+002,4.316089e+000
2.854610e+002,8.501123e+000
2.864252e+002,8.525476e+000
2.873895e+002,6.302063e+000
2.883537e+002,4.689624e+000
2.893179e+002,5.536975e+000
2.902822e+002,9.111560e+000
2.912464e+002,9.825366e+000
2.922106e+002,7.130493e+000
2.931749e+002,3.667920e+000
2.941391e+002,9.237549e-001
2.951033e+002,-1.145886e+000
2.960676e+002,-2.462146e+000
2.970318e+002,-2.895520e+000
2.979960e+002,-2.742944e+000
2.989603e+002,-2.266809e+000
2.999245e+002,-1.672498e+000
3.008887e+002,-4.809204e-001
3.018530e+002,2.192639e+000
3.028172e+002,5.223608e+000
3.037814e+002,7.476721e+000
3.047457e+002,7.974219e+000
3.057099e+002,7.344702e+000
3.066741e+002,8.180639e+000
3.076384e+002,9.989405e+000
3.086026e+002,1.086613e+001
3.095668e+002,8.581555e+000
3.105311e+002,1.524719e+000
3.114953e+002,-2.586035e+000
3.124595e+002,-2.689770e+000
3.134238e+002,-1.020666e+000
3.143880e+002,-1.581543e-001
3.153522e+002,-8.926392e-001
3.163165e+002,-1.419702e+000
3.172807e+002,-1.502966e+000
3.182449e+002,-1.040674e+000
3.192092e+002,9.196778e-002
3.201734e+002,2.160339e+000
3.211376e+002,4.397290e+000
3.221019e+002,6.461902e+000
3.230661e+002,8.280273e+000
3.240303e+002,9.743360e+000
3.249946e+002,1.068306e+001
3.259588e+002,1.102465e+001
3.269230e+002,1.121887e+001
3.278873e+002,1.126090e+001
3.288515e+002,1.112908e+001
3.298157e+002,1.077115e+001
3.307800e+002,9.724218e+000
3.317442e+002,9.686243e+000
3.327084e+002,1.061162e+001
3.336727e+002,1.234893e+001
3.346369e+002,1.486766e+001
3.356011e+002,1.974877e+001
3.365654e+002,2.315275e+001
3.375296e+002,2.361823e+001
3.384938e+002,2.226940e+001
3.394581e+002,2.075907e+001
3.404223e+002,2.012618e+001
3.413865e+002,2.036691e+001
3.423508e+002,2.113254e+001
3.433150e+002,2.262451e+001
3.442792e+002,2.528623e+001
3.452435e+002,2.997535e+001
3.462077e+002,3.680022e+001
3.471719e+002,4.268484e+001
3.481362e+002,4.660619e+001
3.491004e+002,5.075588e+001
3.500646e+002,6.006514e+001
3.510289e+002,7.538379e+001
3.519931e+002,9.709080e+001
3.529573e+002,1.266316e+002
3.539216e+002,1.620558e+002
3.548858e+002,2.018621e+002
3.558500e+002,2.596473e+002
3.568143e+002,3.001680e+002
3.577785e+002,3.109541e+002
3.587427e+002,2.970010e+002
3.597070e+002,2.665688e+002
3.606712e+002,2.206349e+002
3.616354e+002,1.710310e+002
3.625997e+002,1.322807e+002
3.635639e+002,1.047913e+002
3.645281e+002,8.603529e+001
3.654924e+002,7.155272e+001
3.664566e+002,6.245628e+001
3.674208e+002,5.409795e+001
3.683851e+002,4.632012e+001
3.693493e+002,3.928690e+001
3.703135e+002,3.346991e+001
3.712778e+002,2.994443e+001
3.722420e+002,2.674869e+001
3.732062e+002,2.325695e+001
3.741705e+002,2.007540e+001
3.751347e+002,1.827917e+001
3.760989e+002,1.927228e+001
3.770632e+002,2.064527e+001
3.780274e+002,2.118424e+001
3.789916e+002,2.097714e+001
3.799559e+002,2.032163e+001
3.809201e+002,1.951503e+001
3.818844e+002,1.868131e+001
3.828486e+002,1.800034e+001
3.838128e+002,1.747615e+001
3.847771e+002,1.705783e+001
3.857413e+002,1.665088e+001
3.867055e+002,1.616152e+001
3.876698e+002,1.623707e+001
3.886340e+002,1.637348e+001
3.895982e+002,1.709442e+001
3.905625e+002,1.948099e+001
3.915267e+002,2.563307e+001
3.924909e+002,2.982705e+001
3.934552e+002,3.085968e+001
3.944194e+002,2.988219e+001
3.953836e+002,2.775376e+001
3.963479e+002,2.428928e+001
3.973121e+002,2.163062e+001
3.982763e+002,2.218845e+001
3.992406e+002,2.448881e+001
4.002048e+002,2.644034e+001
4.011690e+002,2.599749e+001
4.021333e+002,2.354975e+001
4.030975e+002,2.274281e+001
4.040617e+002,2.355483e+001
4.050260e+002,2.516640e+001
4.059902e+002,2.662571e+001
4.069544e+002,2.726837e+001
4.079187e+002,2.993572e+001
4.088829e+002,3.544900e+001
4.098471e+002,4.171328e+001
4.108114e+002,4.691201e+001
4.117756e+002,5.016457e+001
4.127398e+002,5.477195e+001
4.137041e+002,6.444707e+001
4.146683e+002,7.416945e+001
4.156325e+002,8.049882e+001
4.165968e+002,8.159953e+001
4.175610e+002,7.859349e+001
4.185252e+002,7.167353e+001
4.194895e+002,6.317102e+001
4.204537e+002,5.584578e+001
4.214179e+002,5.145916e+001
4.223822e+002,4.991378e+001
4.233464e+002,4.973814e+001
4.243106e+002,5.092751e+001
4.252749e+002,5.207090e+001
4.262391e+002,5.109899e+001
4.272033e+002,4.736564e+001
4.281676e+002,5.029240e+001
4.291318e+002,6.476339e+001
4.300960e+002,8.096527e+001
4.310603e+002,9.454427e+001
4.320245e+002,1.053010e+002
4.329887e+002,1.188113e+002
4.339530e+002,1.422491e+002
4.349172e+002,1.687831e+002
4.358814e+002,1.988206e+002
4.368457e+002,2.300705e+002
4.378099e+002,2.577404e+002
4.387741e+002,2.716602e+002
4.397384e+002,2.731817e+002
4.407026e+002,2.653132e+002
4.416668e+002,2.477660e+002
4.426311e+002,2.233686e+002
4.435953e+002,2.016133e+002
4.445595e+002,1.827825e+002
4.455238e+002,1.669706e+002
4.464880e+002,1.549384e+002
4.474522e+002,1.458852e+002
4.484165e+002,1.384781e+002
4.493807e+002,1.343572e+002
4.503449e+002,1.295931e+002
4.513092e+002,1.230487e+002
4.522734e+002,1.149532e+002
4.532376e+002,1.055331e+002
4.542019e+002,9.449686e+001
4.551661e+002,8.343224e+001
4.561303e+002,7.412460e+001
4.570946e+002,6.641283e+001
4.580588e+002,5.971843e+001
4.590230e+002,5.336171e+001
4.599873e+002,4.750785e+001
4.609515e+002,4.460419e+001
4.619157e+002,4.489343e+001
4.628800e+002,4.668606e+001
4.638442e+002,4.857186e+001
4.648084e+002,5.044926e+001
4.657727e+002,5.280686e+001
4.667369e+002,5.584063e+001
4.677011e+002,5.925610e+001
4.686654e+002,6.343117e+001
4.696296e+002,6.853558e+001
4.705938e+002,7.197285e+001
4.715581e+002,7.117525e+001
4.725223e+002,6.847774e+001
4.734865e+002,6.500726e+001
4.744508e+002,6.138505e+001
4.754150e+002,5.764661e+001
4.763792e+002,5.354797e+001
4.773435e+002,4.929496e+001
4.783077e+002,4.565865e+001
4.792719e+002,4.296776e+001
4.802362e+002,4.108009e+001
4.812004e+002,3.907869e+001
4.821646e+002,3.662230e+001
4.831289e+002,3.432240e+001
4.840931e+002,3.216516e+001
4.850573e+002,3.009558e+001
4.860216e+002,2.798054e+001
4.869858e+002,2.545954e+001
4.879500e+002,2.389131e+001
4.889143e+002,2.455133e+001
4.898785e+002,2.618879e+001
4.908427e+002,2.674159e+001
4.918070e+002,2.409525e+001
4.927712e+002,2.016761e+001
4.937354e+002,1.820588e+001
4.946997e+002,1.784887e+001
4.956639e+002,1.814393e+001
4.966281e+002,1.811874e+001
4.975924e+002,1.772606e+001
4.985566e+002,1.848600e+001
4.995208e+002,2.010820e+001
5.004851e+002,2.278882e+001
5.014493e+002,2.734341e+001
5.024135e+002,3.462297e+001
5.033778e+002,3.961219e+001
5.043420e+002,4.064700e+001
5.053063e+002,4.104064e+001
5.062705e+002,4.270715e+001
5.072347e+002,4.573407e+001
5.081990e+002,4.742234e+001
5.091632e+002,4.369891e+001
5.101274e+002,3.839138e+001
5.110917e+002,3.325458e+001
5.120559e+002,2.892194e+001
5.130201e+002,2.530029e+001
5.139844e+002,2.218927e+001
5.149486e+002,1.958648e+001
5.159128e+002,1.771170e+001
5.168771e+002,1.692893e+001
5.178413e+002,1.648364e+001
5.188055e+002,1.458593e+001
5.197698e+002,9.153277e+000
5.207340e+002,5.471045e+000
5.216982e+002,4.615936e+000
5.226625e+002,4.923346e+000
5.236267e+002,4.412689e+000
5.245909e+002,2.023376e+000
5.255552e+002,2.599121e-001
5.265194e+002,8.582398e-001
5.274836e+002,2.259729e+000
5.284479e+002,3.117926e+000
5.294121e+002,2.709106e+000
5.303763e+002,1.693298e+000
5.313406e+002,1.334998e+000
5.323048e+002,1.417993e+000
5.332690e+002,1.879028e+000
5.342333e+002,2.738580e+000
5.351975e+002,3.875012e+000
5.361617e+002,4.192487e+000
5.371260e+002,2.934058e+000
5.380902e+002,2.121375e+000
5.390544e+002,2.378925e+000
5.400187e+002,3.302319e+000
5.409829e+002,3.651196e+000
5.419471e+002,2.449487e+000
5.429114e+002,1.717841e+000
5.438756e+002,2.629370e+000
5.448398e+002,4.164239e+000
5.458041e+002,4.622119e+000
5.467683e+002,2.460761e+000
5.477325e+002,-3.452393e-001
5.486968e+002,-7.855102e-001
5.496610e+002,3.328247e-001
5.506252e+002,1.572552e+000
5.515895e+002,1.751526e+000
5.525537e+002,8.688965e-001
5.535179e+002,-1.637634e-001
5.544822e+002,-1.728155e+000
5.554464e+002,-2.460101e+000
5.564106e+002,-1.097070e+000
5.573749e+002,2.356470e+000
5.583391e+002,4.287903e+000
5.593033e+002,3.019067e+000
5.602676e+002,1.597217e+000
5.612318e+002,5.200012e-001
5.621960e+002,-6.348266e-002
5.631603e+002,-3.053589e-002
5.641245e+002,1.413733e+000
5.650887e+002,2.657520e+000
5.660530e+002,1.948102e+000
5.670172e+002,-7.324829e-002
5.679814e+002,-1.860999e+000
5.689457e+002,-1.718579e+000
5.699099e+002,1.661743e-001
5.708741e+002,6.641235e-001
5.718384e+002,-3.390076e-001
5.728026e+002,-1.473261e+000
5.737668e+002,-1.622321e+000
5.747311e+002,-6.012634e-001
5.756953e+002,3.895081e-001
5.766595e+002,1.968347e+000
5.776238e+002,2.904913e+000
5.785880e+002,2.407129e+000
5.795522e+002,6.132995e-001
5.805165e+002,-1.207483e+000
5.814807e+002,-2.110541e+000
5.824449e+002,-2.815711e+000
5.834092e+002,-4.050555e+000
5.843734e+002,-5.529162e+000
5.853376e+002,-6.370404e+000
5.863019e+002,-5.391644e+000
5.872661e+002,-2.976227e+000
5.882303e+002,-1.613031e+000
5.891946e+002,-1.298505e+000
5.901588e+002,-1.522333e+000
5.911230e+002,-1.844446e+000
5.920873e+002,-2.378595e+000
5.930515e+002,-2.617139e+000
5.940157e+002,-2.466809e+000
5.949800e+002,-2.175739e+000
5.959442e+002,-1.877148e+000
5.969084e+002,-1.584058e+000
5.978727e+002,-1.183331e+000
5.988369e+002,1.237732e-001
5.998011e+002,9.343323e-001
6.007654e+002,3.147339e-001
6.017296e+002,-1.463641e+000
6.026938e+002,-3.570593e+000
6.036581e+002,-5.335907e+000
6.046223e+002,-6.332098e+000
6.055865e+002,-5.548413e+000
6.065508e+002,-3.098267e+000
6.075150e+002,-5.456665e-001
6.084792e+002,3.068237e-001
6.094435e+002,-1.189111e+000
6.104077e+002,-8.538574e-001
6.113719e+002,3.121332e+000
6.123362e+002,6.398438e+000
6.133004e+002,5.924622e+000
6.142646e+002,1.706647e+000
6.152289e+002,-9.592835e-001
6.161931e+002,2.268262e+000
6.171573e+002,5.540948e+000
6.181216e+002,6.667236e+000
6.190858e+002,6.027643e+000
6.200500e+002,5.282684e+000
6.210143e+002,5.895490e+000
6.219785e+002,7.515839e+000
6.229427e+002,9.451141e+000
6.239070e+002,1.153255e+001
6.248712e+002,1.310254e+001
6.258354e+002,1.347785e+001
6.267997e+002,1.246565e+001
6.277639e+002,1.329194e+001
6.287281e+002,1.746395e+001
6.296924e+002,2.088361e+001
6.306566e+002,2.128043e+001
6.316208e+002,1.894736e+001
6.325851e+002,1.726739e+001
6.335493e+002,1.803215e+001
6.345135e+002,1.900524e+001
6.354778e+002,1.975156e+001
6.364420e+002,2.014726e+001
6.374063e+002,2.021082e+001
6.383705e+002,1.996046e+001
6.393347e+002,1.931180e+001
6.402990e+002,1.819939e+001
6.412632e+002,1.678618e+001
6.422274e+002,1.536683e+001
6.431917e+002,1.414604e+001
6.441559e+002,1.308377e+001
6.451201e+002,1.182140e+001
6.460844e+002,9.918078e+000
6.470486e+002,8.602137e+000
6.480128e+002,8.743128e+000
6.489771e+002,9.916730e+000
6.499413e+002,1.021419e+001
6.509055e+002,8.219275e+000
6.518698e+002,6.670679e+000
6.528340e+002,6.478498e+000
6.537982e+002,7.091809e+000
6.547625e+002,7.827313e+000
6.557267e+002,8.321527e+000
6.566909e+002,8.510864e+000
6.576552e+002,8.241559e+000
6.586194e+002,7.674774e+000
6.595836e+002,6.969989e+000
6.605479e+002,6.249481e+000
6.615121e+002,5.666907e+000
6.624763e+002,5.759381e+000
6.634406e+002,6.844086e+000
6.644048e+002,7.740460e+000
6.653690e+002,8.500031e+000
6.663333e+002,8.811548e+000
6.672975e+002,7.955316e+000
6.682617e+002,4.940600e+000
6.692260e+002,3.051459e+000
6.701902e+002,3.289484e+000
6.711544e+002,4.512891e+000
6.721187e+002,6.108392e+000
6.730829e+002,7.748590e+000
6.740471e+002,8.921137e+000
6.750114e+002,8.273206e+000
6.759756e+002,7.116760e+000
6.769398e+002,6.953180e+000
6.779041e+002,7.999499e+000
6.788683e+002,9.326233e+000
6.798325e+002,9.203504e+000
6.807968e+002,6.935351e+000
6.817610e+002,6.078314e+000
6.827252e+002,7.580152e+000
6.836895e+002,9.634863e+000
6.846537e+002,1.071425e+001
6.856179e+002,1.067780e+001
6.865822e+002,1.021368e+001
6.875464e+002,8.465924e+000
6.885106e+002,7.354059e+000
6.894749e+002,8.336505e+000
6.904391e+002,1.094221e+001
6.914034e+002,1.317536e+001
6.923676e+002,1.285692e+001
6.933318e+002,1.168511e+001
6.942961e+002,1.219237e+001
6.952603e+002,1.405907e+001
6.962245e+002,1.602238e+001
6.971888e+002,1.690897e+001
6.981530e+002,1.665746e+001
6.991172e+002,1.694130e+001
7.000815e+002,1.764599e+001
7.010457e+002,1.877215e+001
7.020099e+002,2.089198e+001
7.029742e+002,2.368428e+001
7.039384e+002,2.535475e+001
7.049026e+002,2.418792e+001
7.058669e+002,2.357922e+001
7.068311e+002,2.498253e+001
7.077953e+002,2.718904e+001
7.087596e+002,2.880051e+001
7.097238e+002,2.912510e+001
7.106880e+002,2.860209e+001
7.116523e+002,2.707580e+001
7.126165e+002,2.527573e+001
7.135807e+002,2.477188e+001
7.145450e+002,2.613452e+001
7.155092e+002,2.828744e+001
7.164734e+002,2.821280e+001
7.174377e+002,2.438334e+001
7.184019e+002,2.131928e+001
7.193661e+002,1.884977e+001
7.203304e+002,1.712521e+001
7.212946e+002,1.647466e+001
7.222589e+002,1.715201e+001
7.232231e+002,1.812521e+001
7.241873e+002,1.977462e+001
7.251516e+002,2.095669e+001
7.261158e+002,2.080186e+001
7.270800e+002,1.938115e+001
7.280443e+002,1.737243e+001
7.290085e+002,1.503094e+001
7.299727e+002,1.332313e+001
7.309370e+002,1.449716e+001
7.319012e+002,1.807535e+001
7.328654e+002,2.111666e+001
7.338297e+002,2.082116e+001
7.347939e+002,1.696061e+001
7.357581e+002,1.476912e+001
7.367224e+002,1.536378e+001
7.376866e+002,1.586438e+001
7.386508e+002,1.512609e+001
7.396151e+002,1.372753e+001
7.405793e+002,1.340532e+001
7.415435e+002,1.536485e+001
7.425078e+002,1.732136e+001
7.434720e+002,1.828247e+001
7.444362e+002,1.863728e+001
7.454005e+002,1.875543e+001
7.463647e+002,1.883763e+001
7.473289e+002,1.888143e+001
7.482932e+002,1.891031e+001
7.492574e+002,1.896708e+001
7.502216e+002,1.904252e+001
7.511859e+002,1.910059e+001
7.521501e+002,1.902291e+001
7.531143e+002,1.865298e+001
7.540786e+002,1.794367e+001
7.550428e+002,1.718069e+001
7.560070e+002,1.613598e+001
7.569713e+002,1.523362e+001
7.579355e+002,1.456978e+001
7.588997e+002,1.418831e+001
7.598640e+002,1.442958e+001
7.608282e+002,1.634454e+001
7.617924e+002,1.819231e+001
7.627567e+002,1.860096e+001
7.637209e+002,1.823796e+001
7.646851e+002,1.841055e+001
7.656494e+002,2.016583e+001
7.666136e+002,2.326261e+001
7.675778e+002,2.774362e+001
7.685421e+002,3.339047e+001
7.695063e+002,3.649372e+001
7.704705e+002,3.468787e+001
7.714348e+002,2.928890e+001
7.723990e+002,2.557515e+001
7.733632e+002,2.459460e+001
7.743275e+002,2.385527e+001
7.752917e+002,2.281835e+001
7.762559e+002,2.220584e+001
7.772202e+002,2.298422e+001
7.781844e+002,2.538657e+001
7.791486e+002,2.768002e+001
7.801129e+002,2.805223e+001
7.810771e+002,2.782364e+001
7.820413e+002,2.771807e+001
7.830056e+002,2.790048e+001
7.839698e+002,2.827119e+001
7.849340e+002,2.870333e+001
7.858983e+002,2.920086e+001
7.868625e+002,2.987956e+001
7.878267e+002,3.072657e+001
7.887910e+002,3.161792e+001
7.897552e+002,3.238737e+001
7.907194e+002,3.312230e+001
7.916837e+002,3.442659e+001
7.926479e+002,3.768230e+001
7.936121e+002,3.957888e+001
7.945764e+002,3.849172e+001
7.955406e+002,3.624960e+001
7.965048e+002,3.466222e+001
7.974691e+002,3.450145e+001
7.984333e+002,3.565775e+001
7.993975e+002,3.929065e+001
8.003618e+002,4.351589e+001
8.013260e+002,4.606088e+001
8.022902e+002,4.661509e+001
8.032545e+002,4.653239e+001
8.042187e+002,4.788766e+001
8.051829e+002,5.107858e+001
8.061472e+002,5.377051e+001
8.071114e+002,5.558129e+001
8.080756e+002,5.730839e+001
8.090399e+002,5.922799e+001
8.100041e+002,6.141754e+001
8.109683e+002,6.413392e+001
8.119326e+002,6.703535e+001
8.128968e+002,7.112843e+001
8.138610e+002,7.702416e+001
8.148253e+002,8.408901e+001
8.157895e+002,9.187148e+001
8.167537e+002,1.001180e+002
8.177180e+002,1.079833e+002
8.186822e+002,1.133840e+002
8.196464e+002,1.173080e+002
8.206107e+002,1.222470e+002
8.215749e+002,1.288336e+002
8.225391e+002,1.351742e+002
8.235034e+002,1.383144e+002
8.244676e+002,1.376969e+002
8.254318e+002,1.349696e+002
8.263961e+002,1.294836e+002
8.273603e+002,1.236454e+002
8.283245e+002,1.181984e+002
8.292888e+002,1.131767e+002
8.302530e+002,1.085405e+002
8.312172e+002,1.045219e+002
8.321815e+002,1.005550e+002
8.331457e+002,9.627058e+001
8.341099e+002,9.194772e+001
8.350742e+002,8.769136e+001
8.360384e+002,8.363370e+001
8.370026e+002,8.011531e+001
8.379669e+002,7.811293e+001
8.389311e+002,7.768009e+001
8.398953e+002,7.671833e+001
8.408596e+002,7.484718e+001
8.418238e+002,7.263680e+001
8.427880e+002,7.098984e+001
8.437523e+002,7.025886e+001
8.447165e+002,6.833440e+001
8.456807e+002,6.352565e+001
8.466450e+002,5.913363e+001
8.476092e+002,5.627584e+001
8.485734e+002,5.465966e+001
8.495377e+002,5.361055e+001
8.505019e+002,5.293639e+001
8.514661e+002,5.224588e+001
8.524304e+002,5.059086e+001
8.533946e+002,4.864986e+001
8.543588e+002,4.770761e+001
8.553231e+002,4.820560e+001
8.562873e+002,4.934885e+001
8.572515e+002,4.937070e+001
8.582158e+002,4.777494e+001
8.591800e+002,4.641904e+001
8.601442e+002,4.495634e+001
8.611085e+002,4.391428e+001
8.620727e+002,4.393449e+001
8.630369e+002,4.497356e+001
8.640012e+002,4.584262e+001
8.649654e+002,4.624083e+001
8.659296e+002,4.611610e+001
8.668939e+002,4.489523e+001
8.678581e+002,4.338057e+001
8.688223e+002,4.267849e+001
8.697866e+002,4.332622e+001
8.707508e+002,4.468879e+001
8.717150e+002,4.556657e+001
8.726793e+002,4.600910e+001
8.736435e+002,4.635259e+001
8.746077e+002,4.676259e+001
8.755720e+002,4.679208e+001
8.765362e+002,4.570847e+001
8.775004e+002,4.319435e+001
8.784647e+002,4.098085e+001
8.794289e+002,3.921869e+001
8.803931e+002,3.753098e+001
8.813574e+002,3.555992e+001
8.823216e+002,3.359888e+001
8.832858e+002,3.238622e+001
8.842501e+002,3.250107e+001
8.852143e+002,3.276638e+001
8.861785e+002,3.189973e+001
8.871428e+002,3.036432e+001
8.881070e+002,2.841157e+001
8.890712e+002,2.626974e+001
8.900355e+002,2.443228e+001
8.909997e+002,2.373725e+001
8.919639e+002,2.441592e+001
8.929282e+002,2.488909e+001
8.938924e+002,2.511087e+001
8.948566e+002,2.521971e+001
8.958209e+002,2.546249e+001
8.967851e+002,2.569968e+001
8.977493e+002,2.521056e+001
8.987136e+002,2.313119e+001
8.996778e+002,2.140654e+001
9.006420e+002,2.127045e+001
9.016063e+002,2.150207e+001
9.025705e+002,2.075504e+001
9.035347e+002,1.881858e+001
9.044990e+002,1.692389e+001
9.054632e+002,1.681012e+001
9.064274e+002,1.785230e+001
9.073917e+002,1.748285e+001
9.083559e+002,1.566181e+001
9.093201e+002,1.365335e+001
9.102844e+002,1.234667e+001
9.112486e+002,1.171185e+001
9.122128e+002,1.133534e+001
9.131771e+002,1.160585e+001
9.141413e+002,1.163691e+001
9.151055e+002,1.128797e+001
9.160698e+002,1.073522e+001
9.170340e+002,9.858973e+000
9.179982e+002,8.679052e+000
9.189625e+002,8.147021e+000
9.199267e+002,9.915827e+000
9.208909e+002,1.204689e+001
9.218552e+002,1.251485e+001
9.228194e+002,1.159891e+001
9.237836e+002,1.052514e+001
9.247479e+002,1.025504e+001
9.257121e+002,1.064208e+001
9.266763e+002,1.083720e+001
9.276406e+002,1.080404e+001
9.286048e+002,1.060225e+001
9.295690e+002,1.024924e+001
9.305333e+002,9.728907e+000
9.314975e+002,8.861750e+000
9.324617e+002,7.555396e+000
9.334260e+002,6.661688e+000
9.343902e+002,6.944696e+000
9.353545e+002,7.391479e+000
9.363187e+002,7.463025e+000
9.372830e+002,7.389813e+000
9.382472e+002,7.881183e+000
9.392114e+002,9.372223e+000
9.401757e+002,1.111534e+001
9.411399e+002,1.086356e+001
9.421041e+002,8.922913e+000
9.430684e+002,7.646564e+000
9.440326e+002,7.436059e+000
9.449968e+002,7.935297e+000
9.459611e+002,9.023870e+000
9.469253e+002,1.100291e+001
9.478895e+002,1.207676e+001
9.488538e+002,1.130962e+001
9.498180e+002,1.046391e+001
9.507822e+002,9.860809e+000
9.517465e+002,9.481488e+000
9.527107e+002,9.152857e+000
9.536749e+002,8.816791e+000
9.546392e+002,8.866852e+000
9.556034e+002,9.842084e+000
9.565676e+002,1.144302e+001
9.575319e+002,1.377028e+001
9.584961e+002,1.669722e+001
9.594603e+002,1.926370e+001
9.604246e+002,2.037175e+001
9.613888e+002,1.998368e+001
9.623530e+002,1.993608e+001
9.633173e+002,1.952671e+001
9.642815e+002,2.038076e+001
9.652457e+002,2.311344e+001
9.662100e+002,2.712621e+001
9.671742e+002,3.122653e+001
9.681384e+002,3.505068e+001
9.691027e+002,4.093751e+001
9.700669e+002,5.060914e+001
9.710311e+002,6.301188e+001
9.719954e+002,8.223081e+001
9.729596e+002,1.035652e+002
9.739238e+002,1.169057e+002
9.748881e+002,1.154500e+002
9.758523e+002,1.028576e+002
9.768165e+002,9.067735e+001
9.777808e+002,7.882608e+001
9.787450e+002,6.824789e+001
9.797092e+002,5.899582e+001
9.806735e+002,5.111590e+001
9.816377e+002,4.485117e+001
9.826019e+002,4.024157e+001
9.835662e+002,3.634468e+001
9.845304e+002,3.278013e+001
9.854946e+002,3.028381e+001
9.864589e+002,2.955157e+001
9.874231e+002,2.981871e+001
9.883873e+002,2.990597e+001
9.893516e+002,2.943404e+001
9.903158e+002,2.941450e+001
9.912800e+002,3.147521e+001
9.922443e+002,3.543914e+001
9.932085e+002,3.939725e+001
9.941727e+002,4.329027e+001
9.951370e+002,4.772511e+001
9.961012e+002,5.289500e+001
9.970654e+002,5.866759e+001
9.980297e+002,6.491580e+001
9.989939e+002,6.747466e+001
9.999581e+002,7.863152e+001
1.000922e+003,9.495370e+001
1.001887e+003,1.232965e+002
1.002851e+003,1.742521e+002
1.003815e+003,2.441694e+002
1.004779e+003,3.185220e+002
1.005744e+003,3.978832e+002
1.006708e+003,4.551615e+002
1.007672e+003,4.468445e+002
1.008636e+003,3.915556e+002
1.009600e+003,3.252305e+002
1.010565e+003,2.628090e+002
1.011529e+003,2.066226e+002
1.012493e+003,1.626176e+002
1.013457e+003,1.338327e+002
1.014422e+003,1.095609e+002
1.015386e+003,8.873224e+001
1.016350e+003,7.233119e+001
1.017314e+003,6.206921e+001
1.018279e+003,5.602814e+001
1.019243e+003,5.082760e+001
1.020207e+003,4.547743e+001
1.021171e+003,4.069222e+001
1.022135e+003,3.718891e+001
1.023100e+003,3.448861e+001
1.024064e+003,3.236837e+001
1.025028e+003,3.065670e+001
1.025992e+003,2.916853e+001
1.026957e+003,2.775325e+001
1.027921e+003,2.647523e+001
1.028885e+003,2.546213e+001
1.029849e+003,2.490552e+001
1.030814e+003,2.417205e+001
1.031778e+003,2.239578e+001
1.032742e+003,2.085320e+001
1.033706e+003,2.143027e+001
1.034671e+003,2.415532e+001
1.035635e+003,2.557316e+001
1.036599e+003,2.283968e+001
1.037563e+003,2.046114e+001
1.038527e+003,2.157195e+001
1.039492e+003,2.410820e+001
1.040456e+003,2.524492e+001
1.041420e+003,2.402289e+001
1.042384e+003,2.185693e+001
1.043349e+003,2.075804e+001
1.044313e+003,2.075869e+001
1.045277e+003,2.117053e+001
1.046241e+003,2.228919e+001
1.047206e+003,2.292190e+001
1.048170e+003,2.211196e+001
1.049134e+003,2.049865e+001
1.050098e+003,1.956338e+001
1.051063e+003,1.940684e+001
1.052027e+003,2.019049e+001
1.052991e+003,2.290678e+001
1.053955e+003,2.543082e+001
1.054919e+003,2.678725e+001
1.055884e+003,2.692923e+001
1.056848e+003,2.594283e+001
1.057812e+003,2.392961e+001
1.058776e+003,2.166240e+001
1.059741e+003,2.062608e+001
1.060705e+003,2.067328e+001
1.061669e+003,2.121602e+001
1.062633e+003,2.243879e+001
1.063598e+003,2.337037e+001
1.064562e+003,2.287941e+001
1.065526e+003,2.115576e+001
1.066490e+003,2.023664e+001
1.067454e+003,2.041629e+001
1.068419e+003,2.121517e+001
1.069383e+003,2.306346e+001
1.070347e+003,2.485612e+001
1.071311e+003,2.568452e+001
1.072276e+003,2.558466e+001
1.073240e+003,2.527626e+001
1.074204e+003,2.528628e+001
1.075168e+003,2.544967e+001
1.076133e+003,2.550352e+001
1.077097e+003,2.540515e+001
1.078061e+003,2.473581e+001
1.079025e+003,2.315450e+001
1.079990e+003,2.156081e+001
1.080954e+003,2.138776e+001
1.081918e+003,2.289852e+001
1.082882e+003,2.404435e+001
1.083846e+003,2.419371e+001
1.084811e+003,2.456464e+001
1.085775e+003,2.618815e+001
1.086739e+003,2.765536e+001
1.087703e+003,2.690345e+001
1.088668e+003,2.389906e+001
1.089632e+003,2.158146e+001
1.090596e+003,2.273874e+001
1.091560e+003,2.570430e+001
1.092525e+003,2.706479e+001
1.093489e+003,2.711714e+001
1.094453e+003,2.716742e+001
1.095417e+003,2.785409e+001
1.096381e+003,2.877975e+001
1.097346e+003,2.908034e+001
1.098310e+003,2.854609e+001
1.099274e+003,2.811398e+001
1.100238e+003,2.798355e+001
1.101203e+003,2.778824e+001
1.102167e+003,2.717924e+001
1.103131e+003,2.650222e+001
1.104095e+003,2.630214e+001
1.105060e+003,2.668529e+001
1.106024e+003,2.704942e+001
1.106988e+003,2.671640e+001
1.107952e+003,2.636536e+001
1.108917e+003,2.713127e+001
1.109881e+003,2.874076e+001
1.110845e+003,3.011269e+001
1.111809e+003,3.065184e+001
1.112773e+003,3.056609e+001
1.113738e+003,3.037302e+001
1.114702e+003,3.015206e+001
1.115666e+003,2.984518e+001
1.116630e+003,2.916939e+001
1.117595e+003,2.862702e+001
1.118559e+003,2.828293e+001
1.119523e+003,2.823113e+001
1.120487e+003,2.880430e+001
1.121452e+003,3.008423e+001
1.122416e+003,3.107669e+001
1.123380e+003,3.017501e+001
1.124344e+003,2.906405e+001
1.125308e+003,3.074332e+001
1.126273e+003,3.448748e+001
1.127237e+003,3.722375e+001
1.128201e+003,3.723420e+001
1.129165e+003,3.551891e+001
1.130130e+003,3.435593e+001
1.131094e+003,3.376201e+001
1.132058e+003,3.348829e+001
1.133022e+003,3.363177e+001
1.133987e+003,3.396171e+001
1.134951e+003,3.495186e+001
1.135915e+003,3.592269e+001
1.136879e+003,3.554318e+001
1.137844e+003,3.354936e+001
1.138808e+003,3.197878e+001
1.139772e+003,3.283682e+001
1.140736e+003,3.453225e+001
1.141700e+003,3.482516e+001
1.142665e+003,3.415641e+001
1.143629e+003,3.392090e+001
1.144593e+003,3.482354e+001
1.145557e+003,3.648037e+001
1.146522e+003,3.822925e+001
1.147486e+003,4.028509e+001
1.148450e+003,4.093971e+001
1.149414e+003,3.860880e+001
1.150379e+003,3.726102e+001
1.151343e+003,3.861322e+001
1.152307e+003,4.109705e+001
1.153271e+003,4.291884e+001
1.154235e+003,4.361301e+001
1.155200e+003,4.351833e+001
1.156164e+003,4.263897e+001
1.157128e+003,4.164040e+001
1.158092e+003,4.147448e+001
1.159057e+003,4.184930e+001
1.160021e+003,4.189463e+001
1.160985e+003,4.124354e+001
1.161949e+003,4.074112e+001
1.162914e+003,4.181796e+001
1.163878e+003,4.474195e+001
1.164842e+003,4.710889e+001
1.165806e+003,4.878835e+001
1.166771e+003,4.991762e+001
1.167735e+003,5.016937e+001
1.168699e+003,5.014722e+001
1.169663e+003,5.012464e+001
1.170627e+003,5.030227e+001
1.171592e+003,5.129884e+001
1.172556e+003,5.379905e+001
1.173520e+003,5.653274e+001
1.174484e+003,5.713524e+001
1.175449e+003,5.659497e+001
1.176413e+003,5.693558e+001
1.177377e+003,5.859361e+001
1.178341e+003,6.038662e+001
1.179306e+003,6.107643e+001
1.180270e+003,6.083045e+001
1.181234e+003,6.119044e+001
1.182198e+003,6.260304e+001
1.183162e+003,6.371871e+001
1.184127e+003,6.450420e+001
1.185091e+003,6.487292e+001
1.186055e+003,6.474114e+001
1.187019e+003,6.427217e+001
1.187984e+003,6.367398e+001
1.188948e+003,6.299146e+001
1.189912e+003,6.224768e+001
1.190876e+003,6.149882e+001
1.191841e+003,6.077907e+001
1.192805e+003,6.019841e+001
1.193769e+003,5.977132e+001
1.194733e+003,5.913419e+001
1.195698e+003,5.786083e+001
1.196662e+003,5.633141e+001
1.197626e+003,5.560716e+001
1.198590e+003,5.582808e+001
1.199554e+003,5.626017e+001
1.200519e+003,5.715841e+001
1.201483e+003,5.801712e+001
1.202447e+003,5.925945e+001
1.203411e+003,6.004963e+001
1.204376e+003,5.865134e+001
1.205340e+003,5.509987e+001
1.206304e+003,5.228480e+001
1.207268e+003,5.322762e+001
1.208233e+003,5.645382e+001
1.209197e+003,5.675736e+001
1.210161e+003,5.449611e+001
1.211125e+003,5.318443e+001
1.212089e+003,5.405914e+001
1.213054e+003,5.549617e+001
1.214018e+003,5.583910e+001
1.214982e+003,5.527205e+001
1.215946e+003,5.471479e+001
1.216911e+003,5.372252e+001
1.217875e+003,5.360715e+001
1.218839e+003,5.540789e+001
1.219803e+003,5.733019e+001
1.220768e+003,5.816545e+001
1.221732e+003,5.808990e+001
1.222696e+003,5.781480e+001
1.223660e+003,5.773115e+001
1.224625e+003,5.774314e+001
1.225589e+003,5.765009e+001
1.226553e+003,5.740487e+001
1.227517e+003,5.767640e+001
1.228481e+003,5.895322e+001
1.229446e+003,5.969450e+001
1.230410e+003,5.870831e+001
1.231374e+003,5.697355e+001
1.232338e+003,5.623262e+001
1.233303e+003,5.669281e+001
1.234267e+003,5.712506e+001
1.235231e+003,5.664588e+001
1.236195e+003,5.658625e+001
1.237160e+003,5.822059e+001
1.238124e+003,6.028481e+001
1.239088e+003,6.139305e+001
1.240052e+003,6.122415e+001
1.241016e+003,6.003613e+001
1.241981e+003,5.801418e+001
1.242945e+003,5.552967e+001
1.243909e+003,5.435761e+001
1.244873e+003,5.513155e+001
1.245838e+003,5.600959e+001
1.246802e+003,5.722854e+001
1.247766e+003,5.823558e+001
1.248730e+003,5.869963e+001
1.249695e+003,5.872277e+001
1.250659e+003,5.826170e+001
1.251623e+003,5.720170e+001
1.252587e+003,5.708620e+001
1.253552e+003,5.978239e+001
1.254516e+003,6.307259e+001
1.255480e+003,6.522166e+001
1.256444e+003,6.616033e+001
1.257408e+003,6.554446e+001
1.258373e+003,6.333895e+001
1.259337e+003,6.091526e+001
1.260301e+003,6.032851e+001
1.261265e+003,6.164271e+001
1.262230e+003,6.170127e+001
1.263194e+003,5.771113e+001
1.264158e+003,5.626105e+001
1.265122e+003,6.020313e+001
1.266087e+003,6.442547e+001
1.267051e+003,6.517099e+001
1.268015e+003,6.345211e+001
1.268979e+003,6.260854e+001
1.269943e+003,6.398342e+001
1.270908e+003,6.563176e+001
1.271872e+003,6.525481e+001
1.272836e+003,6.382562e+001
1.273800e+003,6.374767e+001
1.274765e+003,6.497237e+001
1.275729e+003,6.639342e+001
1.276693e+003,6.766005e+001
1.277657e+003,6.855957e+001
1.278622e+003,6.848727e+001
1.279586e+003,6.731084e+001
1.280550e+003,6.689072e+001
1.281514e+003,6.800072e+001
1.282479e+003,6.925592e+001
1.283443e+003,7.017461e+001
1.284407e+003,7.109355e+001
1.285371e+003,7.268674e+001
1.286335e+003,7.439070e+001
1.287300e+003,7.467744e+001
1.288264e+003,7.287846e+001
1.289228e+003,7.061288e+001
1.290192e+003,7.042661e+001
1.291157e+003,7.220629e+001
1.292121e+003,7.298566e+001
1.293085e+003,7.229756e+001
1.294049e+003,7.176403e+001
1.295014e+003,7.203211e+001
1.295978e+003,7.284544e+001
1.296942e+003,7.407406e+001
1.297906e+003,7.564989e+001
1.298870e+003,7.697188e+001
1.299835e+003,7.785439e+001
1.300799e+003,7.811250e+001
1.301763e+003,7.719589e+001
1.302727e+003,7.595299e+001
1.303692e+003,7.494986e+001
1.304656e+003,7.452177e+001
1.305620e+003,7.528963e+001
1.306584e+003,7.752268e+001
1.307549e+003,8.007406e+001
1.308513e+003,8.073080e+001
1.309477e+003,7.915147e+001
1.310441e+003,7.782507e+001
1.311406e+003,7.576189e+001
1.312370e+003,7.551189e+001
1.313334e+003,7.928411e+001
1.314298e+003,8.346086e+001
1.315263e+003,8.459579e+001
1.316227e+003,8.334678e+001
1.317191e+003,8.285021e+001
1.318155e+003,8.446989e+001
1.319120e+003,8.649783e+001
1.320084e+003,8.722761e+001
1.321048e+003,8.690508e+001
1.322012e+003,8.592152e+001
1.322976e+003,8.439391e+001
1.323941e+003,8.359986e+001
1.324905e+003,8.440624e+001
1.325869e+003,8.583029e+001
1.326833e+003,8.630254e+001
1.327798e+003,8.579913e+001
1.328762e+003,8.555749e+001
1.329726e+003,8.567113e+001
1.330690e+003,8.597260e+001
1.331655e+003,8.657471e+001
1.332619e+003,8.720090e+001
1.333583e+003,8.759557e+001
1.334547e+003,8.787038e+001
1.335511e+003,8.841194e+001
1.336476e+003,8.929760e+001
1.337440e+003,8.998262e+001
1.338404e+003,8.979819e+001
1.339368e+003,8.887074e+001
1.340333e+003,8.787169e+001
1.341297e+003,8.659383e+001
1.342261e+003,8.561000e+001
1.343225e+003,8.482673e+001
1.344190e+003,8.457214e+001
1.345154e+003,8.543741e+001
1.346118e+003,8.693442e+001
1.347082e+003,8.772881e+001
1.348047e+003,8.744923e+001
1.349011e+003,8.765221e+001
1.349975e+003,9.030920e+001
1.350939e+003,9.268527e+001
1.351903e+003,9.076217e+001
1.352868e+003,8.665127e+001
1.353832e+003,8.512319e+001
1.354796e+003,8.734937e+001
1.355760e+003,9.027464e+001
1.356725e+003,9.097408e+001
1.357689e+003,9.001028e+001
1.358653e+003,8.989406e+001
1.359617e+003,9.093201e+001
1.360582e+003,9.194231e+001
1.361546e+003,9.321773e+001
1.362510e+003,9.390723e+001
1.363474e+003,9.340420e+001
1.364438e+003,9.258485e+001
1.365403e+003,9.229384e+001
1.366367e+003,9.249801e+001
1.367331e+003,9.251770e+001
1.368295e+003,9.193413e+001
1.369260e+003,9.133530e+001
1.370224e+003,9.193484e+001
1.371188e+003,9.384071e+001
1.372152e+003,9.499483e+001
1.373117e+003,9.503713e+001
1.374081e+003,9.482851e+001
1.375045e+003,9.418178e+001
1.376009e+003,9.385664e+001
1.376974e+003,9.539264e+001
1.377938e+003,9.832150e+001
1.378902e+003,9.940664e+001
1.379866e+003,9.717900e+001
1.380830e+003,9.486034e+001
1.381795e+003,9.499277e+001
1.382759e+003,9.587367e+001
1.383723e+003,9.565157e+001
1.384687e+003,9.497987e+001
1.385652e+003,9.610277e+001
1.386616e+003,9.980132e+001
1.387580e+003,1.037063e+002
1.388544e+003,1.048573e+002
1.389509e+003,1.034743e+002
1.390473e+003,1.022143e+002
1.391437e+003,1.009816e+002
1.392401e+003,1.004623e+002
1.393365e+003,1.007816e+002
1.394330e+003,1.014595e+002
1.395294e+003,1.024624e+002
1.396258e+003,1.035006e+002
1.397222e+003,1.044823e+002
1.398187e+003,1.054223e+002
1.399151e+003,1.062237e+002
1.400115e+003,1.067076e+002
1.401079e+003,1.068995e+002
1.402044e+003,1.069652e+002
1.403008e+003,1.069179e+002
1.403972e+003,1.069710e+002
1.404936e+003,1.073530e+002
1.405901e+003,1.075197e+002
1.406865e+003,1.065831e+002
1.407829e+003,1.058425e+002
1.408793e+003,1.071709e+002
1.409757e+003,1.100856e+002
1.410722e+003,1.121536e+002
1.411686e+003,1.126570e+002
1.412650e+003,1.119922e+002
1.413614e+003,1.097296e+002
1.414579e+003,1.073239e+002
1.415543e+003,1.059824e+002
1.416507e+003,1.058597e+002
1.417471e+003,1.076953e+002
1.418436e+003,1.116184e+002
1.419400e+003,1.149268e+002
1.420364e+003,1.146168e+002
1.421328e+003,1.118465e+002
1.422292e+003,1.113316e+002
1.423257e+003,1.136972e+002
1.424221e+003,1.155939e+002
1.425185e+003,1.162374e+002
1.426149e+003,1.165651e+002
1.427114e+003,1.169282e+002
1.428078e+003,1.174024e+002
1.429042e+003,1.180692e+002
1.430006e+003,1.186524e+002
1.430971e+003,1.184433e+002
1.431935e+003,1.171847e+002
1.432899e+003,1.159108e+002
1.433863e+003,1.162143e+002
1.434828e+003,1.179897e+002
1.435792e+003,1.187408e+002
1.436756e+003,1.171111e+002
1.437720e+003,1.167449e+002
1.438684e+003,1.186769e+002
1.439649e+003,1.213183e+002
1.440613e+003,1.242118e+002
1.441577e+003,1.270403e+002
1.442541e+003,1.295956e+002
1.443506e+003,1.316029e+002
1.444470e+003,1.318332e+002
1.445434e+003,1.292316e+002
1.446398e+003,1.262278e+002
1.447363e+003,1.266614e+002
1.448327e+003,1.290101e+002
1.449291e+003,1.292312e+002
1.450255e+003,1.270365e+002
1.451219e+003,1.250506e+002
1.452184e+003,1.242672e+002
1.453148e+003,1.245137e+002
1.454112e+003,1.260066e+002
1.455076e+003,1.284620e+002
1.456041e+003,1.301855e+002
1.457005e+003,1.309197e+002
1.457969e+003,1.315630e+002
1.458933e+003,1.326241e+002
1.459898e+003,1.335002e+002
1.460862e+003,1.335685e+002
1.461826e+003,1.332137e+002
1.462790e+003,1.330462e+002
1.463755e+003,1.332000e+002
1.464719e+003,1.334239e+002
1.465683e+003,1.335248e+002
1.466647e+003,1.338263e+002
1.467611e+003,1.352468e+002
1.468576e+003,1.381128e+002
1.469540e+003,1.392036e+002
1.470504e+003,1.364645e+002
1.471468e+003,1.352907e+002
1.472433e+003,1.375794e+002
1.473397e+003,1.402837e+002
1.474361e+003,1.416313e+002
1.475325e+003,1.420830e+002
1.476290e+003,1.427997e+002
1.477254e+003,1.438719e+002
1.478218e+003,1.440987e+002
1.479182e+003,1.425369e+002
1.480146e+003,1.402088e+002
1.481111e+003,1.394802e+002
1.482075e+003,1.405957e+002
1.483039e+003,1.396897e+002
1.484003e+003,1.347473e+002
1.484968e+003,1.313091e+002
1.485932e+003,1.313817e+002
1.486896e+003,1.328752e+002
1.487860e+003,1.344626e+002
1.488825e+003,1.357852e+002
1.489789e+003,1.363546e+002
1.490753e+003,1.361507e+002
1.491717e+003,1.364099e+002
1.492682e+003,1.383249e+002
1.493646e+003,1.403342e+002
1.494610e+003,1.392561e+002
1.495574e+003,1.361203e+002
1.496538e+003,1.342202e+002
1.497503e+003,1.339991e+002
1.498467e+003,1.343216e+002
1.499431e+003,1.347292e+002
1.500395e+003,1.351562e+002
1.501360e+003,1.356729e+002
1.502324e+003,1.363266e+002
1.503288e+003,1.369865e+002
1.504252e+003,1.376025e+002
1.505217e+003,1.376791e+002
1.506181e+003,1.367047e+002
1.507145e+003,1.355215e+002
1.508109e+003,1.344102e+002
1.509073e+003,1.337737e+002
1.510038e+003,1.346716e+002
1.511002e+003,1.369415e+002
1.511966e+003,1.386296e+002
1.512930e+003,1.385678e+002
1.513895e+003,1.373684e+002
1.514859e+003,1.353734e+002
1.515823e+003,1.325103e+002
1.516787e+003,1.321746e+002
1.517752e+003,1.362473e+002
1.518716e+003,1.386892e+002
1.519680e+003,1.363676e+002
1.520644e+003,1.336733e+002
1.521609e+003,1.328756e+002
1.522573e+003,1.325843e+002
1.523537e+003,1.306492e+002
1.524501e+003,1.274848e+002
1.525465e+003,1.255395e+002
1.526430e+003,1.260941e+002
1.527394e+003,1.274751e+002
1.528358e+003,1.271442e+002
1.529322e+003,1.252698e+002
1.530287e+003,1.246884e+002
1.531251e+003,1.266947e+002
1.532215e+003,1.276532e+002
1.533179e+003,1.265229e+002
1.534144e+003,1.255014e+002
1.535108e+003,1.253898e+002
1.536072e+003,1.257818e+002
1.537036e+003,1.266514e+002
1.538000e+003,1.275662e+002
1.538965e+003,1.275476e+002
1.539929e+003,1.261643e+002
1.540893e+003,1.240116e+002
1.541857e+003,1.217420e+002
1.542822e+003,1.196709e+002
1.543786e+003,1.186306e+002
1.544750e+003,1.186508e+002
1.545714e+003,1.194619e+002
1.546679e+003,1.224950e+002
1.547643e+003,1.242307e+002
1.548607e+003,1.225084e+002
1.549571e+003,1.200627e+002
1.550536e+003,1.194700e+002
1.551500e+003,1.202542e+002
1.552464e+003,1.208625e+002
1.553428e+003,1.208891e+002
1.554392e+003,1.205553e+002
1.555357e+003,1.198440e+002
1.556321e+003,1.189903e+002
1.557285e+003,1.188944e+002
1.558249e+003,1.194882e+002
1.559214e+003,1.184523e+002
1.560178e+003,1.150458e+002
1.561142e+003,1.120722e+002
1.562106e+003,1.101869e+002
1.563071e+003,1.091169e+002
1.564035e+003,1.090592e+002
1.564999e+003,1.097206e+002
1.565963e+003,1.103103e+002
1.566927e+003,1.106537e+002
1.567892e+003,1.109435e+002
1.568856e+003,1.112444e+002
1.569820e+003,1.116775e+002
1.570784e+003,1.129532e+002
1.571749e+003,1.141611e+002
1.572713e+003,1.129591e+002
1.573677e+003,1.094558e+002
1.574641e+003,1.059497e+002
1.575606e+003,1.026117e+002
1.576570e+003,1.003011e+002
1.577534e+003,1.008254e+002
1.578498e+003,1.024585e+002
1.579463e+003,1.013115e+002
1.580427e+003,9.747568e+001
1.581391e+003,9.494760e+001
1.582355e+003,9.497243e+001
1.583319e+003,9.601422e+001
1.584284e+003,9.796667e+001
1.585248e+003,9.967244e+001
1.586212e+003,9.906764e+001
1.587176e+003,9.688441e+001
1.588141e+003,9.569489e+001
1.589105e+003,9.613292e+001
1.590069e+003,9.613783e+001
1.591033e+003,9.409433e+001
1.591998e+003,9.117085e+001
1.592962e+003,8.890647e+001
1.593926e+003,8.726025e+001
1.594890e+003,8.609141e+001
1.595854e+003,8.546843e+001
1.596819e+003,8.529602e+001
1.597783e+003,8.619897e+001
1.598747e+003,8.630291e+001
1.599711e+003,8.311803e+001
1.600676e+003,7.908060e+001
1.601640e+003,7.748020e+001
1.602604e+003,7.807601e+001
1.603568e+003,7.836052e+001
1.604533e+003,7.728846e+001
1.605497e+003,7.597993e+001
1.606461e+003,7.563198e+001
1.607425e+003,7.589856e+001
1.608390e+003,7.598141e+001
1.609354e+003,7.596570e+001
1.610318e+003,7.506185e+001
1.611282e+003,7.236720e+001
1.612246e+003,7.031099e+001
1.613211e+003,7.066956e+001
1.614175e+003,7.144356e+001
1.615139e+003,7.184583e+001
1.616103e+003,7.161157e+001
1.617068e+003,6.976132e+001
1.618032e+003,6.658109e+001
1.618996e+003,6.456400e+001
1.619960e+003,6.523162e+001
1.620925e+003,6.666792e+001
1.621889e+003,6.639771e+001
1.622853e+003,6.462688e+001
1.623817e+003,6.212231e+001
1.624781e+003,5.861086e+001
1.625746e+003,5.656527e+001
1.626710e+003,5.737268e+001
1.627674e+003,5.804945e+001
1.628638e+003,5.684105e+001
1.629603e+003,5.507491e+001
1.630567e+003,5.368366e+001
1.631531e+003,5.274709e+001
1.632495e+003,5.222996e+001
1.633460e+003,5.213166e+001
1.634424e+003,5.241209e+001
1.635388e+003,5.313483e+001
1.636352e+003,5.373046e+001
1.637317e+003,5.318734e+001
1.638281e+003,5.153769e+001
1.639245e+003,4.920594e+001
1.640209e+003,4.563380e+001
1.641173e+003,4.361478e+001
1.642138e+003,4.554316e+001
1.643102e+003,4.684501e+001
1.644066e+003,4.389161e+001
1.645030e+003,4.034493e+001
1.645995e+003,4.040630e+001
1.646959e+003,4.288027e+001
1.647923e+003,4.383936e+001
1.648887e+003,4.212576e+001
1.649852e+003,3.986464e+001
1.650816e+003,3.868893e+001
1.651780e+003,3.829185e+001
1.652744e+003,3.818187e+001
1.653708e+003,3.834009e+001
1.654673e+003,3.840839e+001
1.655637e+003,3.851339e+001
1.656601e+003,3.794762e+001
1.657565e+003,3.578334e+001
1.658530e+003,3.391261e+001
1.659494e+003,3.426019e+001
1.660458e+003,3.473336e+001
1.661422e+003,3.231477e+001
1.662387e+003,2.802530e+001
1.663351e+003,2.537085e+001
1.664315e+003,2.554429e+001
1.665279e+003,2.727003e+001
1.666244e+003,3.013490e+001
1.667208e+003,3.291544e+001
1.668172e+003,3.268162e+001
1.669136e+003,2.961774e+001
1.670100e+003,2.682802e+001
1.671065e+003,2.436311e+001
1.672029e+003,2.300832e+001
1.672993e+003,2.386408e+001
1.673957e+003,2.481205e+001
1.674922e+003,2.423276e+001
1.675886e+003,2.312570e+001
1.676850e+003,2.265159e+001
1.677814e+003,2.269143e+001
1.678779e+003,2.249763e+001
1.679743e+003,2.183948e+001
1.680707e+003,2.105651e+001
1.681671e+003,2.018653e+001
1.682635e+003,1.958193e+001
1.683600e+003,2.017090e+001
1.684564e+003,2.171924e+001
1.685528e+003,2.263535e+001
1.686492e+003,2.272186e+001
1.687457e+003,2.193945e+001
1.688421e+003,1.985386e+001
1.689385e+003,1.781694e+001
1.690349e+003,1.706958e+001
1.691314e+003,1.688076e+001
1.692278e+003,1.644448e+001
1.693242e+003,1.574406e+001
1.694206e+003,1.491409e+001
1.695171e+003,1.395735e+001
1.696135e+003,1.324309e+001
1.697099e+003,1.320624e+001
1.698063e+003,1.332001e+001
1.699027e+003,1.264956e+001
1.699992e+003,1.164112e+001
1.700956e+003,1.189950e+001
1.701920e+003,1.351585e+001
1.702884e+003,1.437336e+001
1.703849e+003,1.359299e+001
1.704813e+003,1.242758e+001
1.705777e+003,1.166788e+001
1.706741e+003,1.128406e+001
1.707706e+003,1.144973e+001
1.708670e+003,1.198047e+001
1.709634e+003,1.203200e+001
1.710598e+003,1.142049e+001
1.711563e+003,1.076438e+001
1.712527e+003,1.018306e+001
1.713491e+003,9.793512e+000
1.714455e+003,9.840009e+000
1.715419e+003,1.008843e+001
1.716384e+003,1.023986e+001
1.717348e+003,1.019435e+001
1.718312e+003,9.604492e+000
1.719276e+003,8.353183e+000
1.720241e+003,7.163971e+000
1.721205e+003,6.575021e+000
1.722169e+003,6.269443e+000
1.723133e+003,5.695795e+000
1.724098e+003,4.974490e+000
1.725062e+003,4.842923e+000
1.726026e+003,5.463181e+000
1.726990e+003,5.758530e+000
1.727954e+003,4.904910e+000
1.728919e+003,4.543814e+000
1.729883e+003,6.439529e+000
1.730847e+003,8.308920e+000
1.731811e+003,7.464972e+000
1.732776e+003,4.829987e+000
1.733740e+003,2.581451e+000
1.734704e+003,1.327206e+000
1.735668e+003,8.836090e-001
1.736633e+003,1.131906e+000
1.737597e+003,1.758832e+000
1.738561e+003,2.429498e+000
1.739525e+003,3.064203e+000
1.740490e+003,3.153848e+000
1.741454e+003,2.499966e+000
1.742418e+003,1.932520e+000
1.743382e+003,1.190274e+000
1.744346e+003,9.059509e-001
1.745311e+003,1.623129e+000
1.746275e+003,2.324426e+000
1.747239e+003,2.442600e+000
1.748203e+003,2.219138e+000
1.749168e+003,1.781226e+000
1.750132e+003,1.358081e+000
1.751096e+003,1.490167e+000
1.752060e+003,2.275882e+000
1.753025e+003,2.983847e+000
1.753989e+003,2.950516e+000
1.754953e+003,2.394336e+000
1.755917e+003,1.733072e+000
1.756881e+003,9.542114e-001
1.757846e+003,5.004883e-001
1.758810e+003,4.919159e-001
1.759774e+003,5.804046e-001
1.760738e+003,9.442016e-001
1.761703e+003,9.756867e-001
1.762667e+003,1.319611e-001
1.763631e+003,-7.936004e-001
1.764595e+003,-1.254379e+000
1.765560e+003,-1.261133e+000
1.766524e+003,-7.864197e-001
1.767488e+003,1.481934e-002
1.768452e+003,5.477936e-001
1.769417e+003,5.272858e-001
1.770381e+003,1.654755e-001
1.771345e+003,-3.962799e-001
1.772309e+003,-1.114426e+000
1.773273e+003,-2.048801e+000
1.774238e+003,-3.142355e+000
1.775202e+003,-3.557672e+000
1.776166e+003,-3.140726e+000
1.777130e+003,-2.126520e+000
1.778095e+003,-1.033600e-001
1.779059e+003,1.456171e+000
1.780023e+003,8.406555e-001
1.780987e+003,-7.548553e-001
1.781952e+003,-1.183731e+000
1.782916e+003,-7.704590e-001
1.783880e+003,-1.286218e+000
1.784844e+003,-3.348993e+000
1.785808e+003,-4.439176e+000
1.786773e+003,-2.893631e+000
1.787737e+003,-7.223266e-001
1.788701e+003,1.079153e+000
1.789665e+003,2.149667e+000
1.790630e+003,1.690338e+000
1.791594e+003,6.414185e-002
1.792558e+003,-1.699460e+000
1.793522e+003,-3.231445e+000
1.794487e+003,-3.972946e+000
1.795451e+003,-3.525211e+000
1.796415e+003,-2.527118e+000
1.797379e+003,-1.806210e+000
1.798344e+003,-1.408997e+000
1.799308e+003,-1.480142e+000
1.800272e+003,-2.250284e+000
1.801236e+003,-2.695370e+000
1.802201e+003,-2.665933e+000
1.803165e+003,-2.477951e+000
1.804129e+003,-1.803516e+000
1.805093e+003,-1.408557e+000
1.806057e+003,-2.169351e+000
1.807022e+003,-3.098221e+000
1.807986e+003,-2.945596e+000
1.808950e+003,-1.985135e+000
1.809914e+003,-1.219659e+000
1.810879e+003,-9.569489e-001
1.811843e+003,-6.871490e-001
1.812807e+003,-2.497559e-002
1.813771e+003,2.571045e-001
1.814736e+003,-1.334247e+000
1.815700e+003,-4.287576e+000
1.816664e+003,-5.749399e+000
1.817628e+003,-5.655160e+000
1.818593e+003,-4.833884e+000
1.819557e+003,-2.984048e+000
1.820521e+003,-1.459448e+000
1.821485e+003,-9.184845e-001
1.822449e+003,-6.434509e-001
1.823414e+003,6.063538e-002
1.824378e+003,6.333984e-001
1.825342e+003,1.253174e-001
1.826306e+003,-1.130930e+000
1.827271e+003,-1.746893e+000
1.828235e+003,-1.370056e+000
1.829199e+003,-9.691193e-001
1.830163e+003,-1.036710e+000
1.831128e+003,-1.237851e+000
1.832092e+003,-1.724014e+000
1.833056e+003,-1.902945e+000
1.834020e+003,4.631653e-002
1.834984e+003,3.069171e+000
1.835949e+003,3.068088e+000
1.836913e+003,-4.310974e-001
1.837877e+003,-3.296249e+000
1.838841e+003,-3.316006e+000
1.839806e+003,-1.841946e+000
1.840770e+003,-1.785126e-001
1.841734e+003,1.342685e+000
1.842698e+003,1.679037e+000
1.843663e+003,6.907288e-001
1.844627e+003,1.511536e-001
1.845591e+003,2.437714e-001
1.846555e+003,4.677704e-001
1.847520e+003,1.175003e+000
1.848484e+003,1.457010e+000
1.849448e+003,7.116669e-001
1.850412e+003,-2.544373e-001
1.851376e+003,-1.135440e+000
1.852341e+003,-1.592596e+000
1.853305e+003,-8.591553e-001
1.854269e+003,7.527038e-001
1.855233e+003,1.725290e+000
1.856198e+003,1.391452e+000
1.857162e+003,7.066253e-001
1.858126e+003,5.901184e-001
1.859090e+003,7.748138e-001
1.860055e+003,5.310059e-001
1.861019e+003,-1.010742e-002
1.861983e+003,3.903595e-001
1.862947e+003,1.855252e+000
1.863911e+003,2.451331e+000
1.864876e+003,1.502612e+000
1.865840e+003,7.768799e-001
1.866804e+003,1.395001e+000
1.867768e+003,2.342401e+000
1.868733e+003,2.145477e+000
1.869697e+003,1.470749e+000
1.870661e+003,2.745490e+000
1.871625e+003,5.990884e+000
1.872590e+003,7.339456e+000
1.873554e+003,5.236884e+000
1.874518e+003,3.607025e+000
1.875482e+003,3.880011e+000
1.876447e+003,4.535223e+000
1.877411e+003,5.159952e+000
1.878375e+003,5.297781e+000
1.879339e+003,3.767007e+000
1.880303e+003,1.559259e+000
1.881268e+003,8.541412e-001
1.882232e+003,1.970309e+000
1.883196e+003,3.773502e+000
1.884160e+003,5.585202e+000
1.885125e+003,7.049808e+000
1.886089e+003,7.743234e+000
1.887053e+003,7.760324e+000
1.888017e+003,7.326261e+000
1.888982e+003,6.450287e+000
1.889946e+003,5.557086e+000
1.890910e+003,4.567917e+000
1.891874e+003,3.979743e+000
1.892839e+003,3.838593e+000
1.893803e+003,4.163449e+000
1.894767e+003,5.338586e+000
1.895731e+003,6.609140e+000
1.896695e+003,7.364313e+000
1.897660e+003,7.702539e+000
1.898624e+003,7.639383e+000
1.899588e+003,7.251279e+000
1.900552e+003,7.109738e+000
1.901517e+003,7.435196e+000
1.902481e+003,7.454602e+000
1.903445e+003,6.344434e+000
1.904409e+003,5.526590e+000
1.905374e+003,6.480936e+000
1.906338e+003,7.834750e+000
1.907302e+003,7.742957e+000
1.908266e+003,6.721509e+000
1.909230e+003,6.248190e+000
1.910195e+003,6.450549e+000
1.911159e+003,6.290427e+000
1.912123e+003,5.381934e+000
1.913087e+003,4.734973e+000
1.914052e+003,5.320956e+000
1.915016e+003,6.401681e+000
1.915980e+003,6.389856e+000
1.916944e+003,5.413535e+000
1.917909e+003,5.257312e+000
1.918873e+003,6.184607e+000
1.919837e+003,6.443747e+000
1.920801e+003,5.577338e+000
1.921766e+003,4.740930e+000
1.922730e+003,4.254926e+000
1.923694e+003,3.945459e+000
1.924658e+003,3.606686e+000
1.925622e+003,3.493637e+000
1.926587e+003,4.176337e+000
1.927551e+003,5.358896e+000
1.928515e+003,5.951431e+000
1.929479e+003,5.808426e+000
1.930444e+003,5.506738e+000
1.931408e+003,5.180417e+000
1.932372e+003,4.710974e+000
1.933336e+003,3.806329e+000
1.934301e+003,3.001938e+000
1.935265e+003,2.786853e+000
1.936229e+003,2.942532e+000
1.937193e+003,3.285287e+000
1.938157e+003,3.608780e+000
1.939122e+003,3.403677e+000
1.940086e+003,2.732028e+000
1.941050e+003,2.555087e+000
1.942014e+003,3.427219e+000
1.942979e+003,4.670541e+000
1.943943e+003,5.515094e+000
1.944907e+003,6.034945e+000
1.945871e+003,6.402829e+000
1.946836e+003,6.640466e+000
1.947800e+003,6.639282e+000
1.948764e+003,6.322397e+000
1.949728e+003,6.036139e+000
1.950693e+003,5.771872e+000
1.951657e+003,5.828937e+000
1.952621e+003,6.615900e+000
1.953585e+003,7.375845e+000
1.954549e+003,7.357239e+000
1.955514e+003,6.793381e+000
1.956478e+003,5.824295e+000
1.957442e+003,4.557096e+000
1.958406e+003,4.900299e+000
1.959371e+003,7.711286e+000
1.960335e+003,9.787585e+000
1.961299e+003,1.097828e+001
1.962263e+003,1.102132e+001
1.963228e+003,8.867566e+000
1.964192e+003,6.556036e+000
1.965156e+003,5.383749e+000
1.966120e+003,4.967862e+000
1.967084e+003,4.724896e+000
1.968049e+003,4.701874e+000
1.969013e+003,5.239087e+000
1.969977e+003,6.357666e+000
1.970941e+003,7.924325e+000
1.971906e+003,9.958200e+000
1.972870e+003,1.129468e+001
1.973834e+003,1.033946e+001
1.974798e+003,8.255981e+000
1.975763e+003,6.898181e+000
1.976727e+003,6.073578e+000
1.977691e+003,5.109769e+000
1.978655e+003,4.100558e+000
1.979620e+003,4.183569e+000
1.980584e+003,5.594278e+000
1.981548e+003,6.864688e+000
1.982512e+003,7.183502e+000
1.983476e+003,7.325458e+000
1.984441e+003,8.210016e+000
1.985405e+003,9.100470e+000
1.986369e+003,8.049893e+000
1.987333e+003,5.160312e+000
1.988298e+003,4.323935e+000
1.989262e+003,6.419934e+000
1.990226e+003,7.898880e+000
1.991190e+003,8.651169e+000
1.992155e+003,8.793942e+000
1.993119e+003,7.525339e+000
1.994083e+003,6.713101e+000
1.995047e+003,8.198977e+000
1.996011e+003,9.817602e+000
1.996976e+003,8.599268e+000
1.997940e+003,6.017462e+000
1.998904e+003,6.007590e+000
1.999868e+003,8.796857e+000
2.000833e+003,1.044487e+001
2.001797e+003,9.351291e+000
2.002761e+003,8.546890e+000
2.003725e+003,9.864017e+000
2.004690e+003,1.109924e+001
2.005654e+003,1.049780e+001
2.006618e+003,9.419485e+000
2.007582e+003,9.221634e+000
2.008547e+003,9.692154e+000
2.009511e+003,1.060629e+001
2.010475e+003,1.152521e+001
2.011439e+003,1.120258e+001
2.012403e+003,9.446747e+000
2.013368e+003,8.247919e+000
2.014332e+003,9.105868e+000
2.015296e+003,1.052720e+001
2.016260e+003,1.042317e+001
2.017225e+003,9.514173e+000
2.018189e+003,9.516571e+000
2.019153e+003,1.017383e+001
2.020117e+003,1.056574e+001
2.021082e+003,1.058980e+001
2.022046e+003,1.015545e+001
2.023010e+003,9.281759e+000
2.023974e+003,8.678259e+000
2.024938e+003,8.735403e+000
2.025903e+003,8.860769e+000
2.026867e+003,8.459991e+000
2.027831e+003,7.607727e+000
2.028795e+003,6.359964e+000
2.029760e+003,4.814414e+000
2.030724e+003,4.984290e+000
2.031688e+003,7.536539e+000
2.032652e+003,9.163724e+000
2.033617e+003,9.597589e+000
2.034581e+003,9.441095e+000
2.035545e+003,8.335077e+000
2.036509e+003,7.575650e+000
2.037474e+003,7.963745e+000
2.038438e+003,8.803922e+000
2.039402e+003,9.580197e+000
2.040366e+003,1.024654e+001
2.041330e+003,1.074965e+001
2.042295e+003,1.109930e+001
2.043259e+003,1.096408e+001
2.044223e+003,9.844510e+000
2.045187e+003,9.433228e+000
2.046152e+003,1.112694e+001
2.047116e+003,1.206397e+001
2.048080e+003,1.056103e+001
2.049044e+003,8.545932e+000
2.050009e+003,7.114456e+000
2.050973e+003,6.241138e+000
2.051937e+003,5.623993e+000
2.052901e+003,5.463837e+000
2.053865e+003,6.671881e+000
2.054830e+003,8.989548e+000
2.055794e+003,1.008864e+001
2.056758e+003,8.815943e+000
2.057722e+003,7.622138e+000
2.058687e+003,8.535013e+000
2.059651e+003,1.009735e+001
2.060615e+003,1.133415e+001
2.061579e+003,1.192853e+001
2.062544e+003,1.112138e+001
2.063508e+003,9.577985e+000
2.064472e+003,8.459208e+000
2.065436e+003,7.960803e+000
2.066401e+003,8.094549e+000
2.067365e+003,8.714231e+000
2.068329e+003,9.240314e+000
2.069293e+003,9.305542e+000
2.070258e+003,8.742228e+000
2.071222e+003,7.087817e+000
2.072186e+003,5.330112e+000
2.073150e+003,5.997574e+000
2.074115e+003,8.413404e+000
2.075079e+003,9.616430e+000
2.076043e+003,9.613663e+000
2.077007e+003,9.483225e+000
2.077971e+003,9.427399e+000
2.078936e+003,9.095639e+000
2.079900e+003,8.330664e+000
2.080864e+003,7.720566e+000
2.081828e+003,7.681384e+000
2.082792e+003,8.182129e+000
2.083757e+003,9.316711e+000
2.084721e+003,1.056768e+001
2.085685e+003,9.910208e+000
2.086649e+003,7.233167e+000
2.087614e+003,6.152774e+000
2.088578e+003,7.038754e+000
2.089542e+003,7.739490e+000
2.090506e+003,7.866416e+000
2.091471e+003,8.201996e+000
2.092435e+003,9.256604e+000
2.093399e+003,1.008269e+001
2.094363e+003,9.917236e+000
2.095328e+003,9.403814e+000
2.096292e+003,9.330545e+000
2.097256e+003,9.547305e+000
2.098220e+003,9.611407e+000
2.099185e+003,9.525202e+000
2.100149e+003,9.814941e+000
2.101113e+003,1.110809e+001
2.102077e+003,1.152488e+001
2.103042e+003,1.035240e+001
2.104006e+003,9.259494e+000
2.104970e+003,8.171781e+000
2.105934e+003,7.796896e+000
2.106898e+003,9.408747e+000
2.107863e+003,1.113300e+001
2.108827e+003,1.043474e+001
2.109791e+003,8.630045e+000
2.110755e+003,9.035769e+000
2.111719e+003,1.164204e+001
2.112684e+003,1.296851e+001
2.113648e+003,1.210429e+001
2.114612e+003,1.123642e+001
2.115576e+003,1.084244e+001
2.116541e+003,1.041091e+001
2.117505e+003,9.397512e+000
2.118469e+003,8.760635e+000
2.119433e+003,9.219256e+000
2.120398e+003,1.027406e+001
2.121362e+003,1.215967e+001
2.122326e+003,1.378120e+001
2.123290e+003,1.268529e+001
2.124255e+003,9.425189e+000
2.125219e+003,7.836386e+000
2.126183e+003,9.091556e+000
2.127147e+003,1.062929e+001
2.128112e+003,1.146500e+001
2.129076e+003,1.206337e+001
2.130040e+003,1.280991e+001
2.131004e+003,1.322535e+001
2.131969e+003,1.278251e+001
2.132933e+003,1.188077e+001
2.133897e+003,1.065058e+001
2.134861e+003,9.607358e+000
2.135825e+003,9.699606e+000
2.136790e+003,1.066870e+001
2.137754e+003,1.125387e+001
2.138718e+003,1.109569e+001
2.139682e+003,1.096272e+001
2.140646e+003,1.128063e+001
2.141611e+003,1.181053e+001
2.142575e+003,1.238500e+001
2.143539e+003,1.296731e+001
2.144503e+003,1.399598e+001
2.145468e+003,1.473370e+001
2.146432e+003,1.341774e+001
2.147396e+003,1.133109e+001
2.148360e+003,1.143486e+001
2.149325e+003,1.334184e+001
2.150289e+003,1.446160e+001
2.151253e+003,1.400841e+001
2.152217e+003,1.286852e+001
2.153182e+003,1.154812e+001
2.154146e+003,1.061582e+001
2.155110e+003,1.074483e+001
2.156074e+003,1.132841e+001
2.157039e+003,1.163257e+001
2.158003e+003,1.174608e+001
2.158967e+003,1.165925e+001
2.159931e+003,1.167550e+001
2.160896e+003,1.291510e+001
2.161860e+003,1.475153e+001
2.162824e+003,1.462641e+001
2.163788e+003,1.237293e+001
2.164752e+003,1.076124e+001
2.165717e+003,1.112727e+001
2.166681e+003,1.177697e+001
2.167645e+003,1.117079e+001
2.168609e+003,1.040670e+001
2.169573e+003,1.130868e+001
2.170538e+003,1.296931e+001
2.171502e+003,1.371940e+001
2.172466e+003,1.368763e+001
2.173430e+003,1.280741e+001
2.174395e+003,1.163626e+001
2.175359e+003,1.220271e+001
2.176323e+003,1.435535e+001
2.177287e+003,1.530521e+001
2.178252e+003,1.409064e+001
2.179216e+003,1.266232e+001
2.180180e+003,1.243884e+001
2.181144e+003,1.301686e+001
2.182109e+003,1.410795e+001
2.183073e+003,1.522484e+001
2.184037e+003,1.550018e+001
2.185001e+003,1.505865e+001
2.185966e+003,1.370156e+001
2.186930e+003,1.207316e+001
2.187894e+003,1.256721e+001
2.188858e+003,1.482328e+001
2.189823e+003,1.548071e+001
2.190787e+003,1.383024e+001
2.191751e+003,1.279486e+001
2.192715e+003,1.391976e+001
2.193679e+003,1.465918e+001
2.194644e+003,1.234433e+001
2.195608e+003,9.451529e+000
2.196572e+003,1.069619e+001
2.197536e+003,1.402319e+001
2.198500e+003,1.418218e+001
2.199465e+003,1.224556e+001
2.200429e+003,1.103841e+001
2.201393e+003,1.081859e+001
2.202357e+003,1.182685e+001
2.203322e+003,1.371057e+001
2.204286e+003,1.456061e+001
2.205250e+003,1.379298e+001
2.206214e+003,1.312234e+001
2.207179e+003,1.372463e+001
2.208143e+003,1.437085e+001
2.209107e+003,1.345846e+001
2.210071e+003,1.196517e+001
2.211036e+003,1.141368e+001
2.212000e+003,1.178901e+001
2.212964e+003,1.359429e+001
2.213928e+003,1.613227e+001
2.214893e+003,1.756486e+001
2.215857e+003,1.780713e+001
2.216821e+003,1.704823e+001
2.217785e+003,1.569930e+001
2.218750e+003,1.548682e+001
2.219714e+003,1.711052e+001
2.220678e+003,1.901000e+001
2.221642e+003,1.997115e+001
2.222606e+003,2.054327e+001
2.223571e+003,2.155536e+001
2.224535e+003,2.247926e+001
2.225499e+003,2.181672e+001
2.226463e+003,2.068707e+001
2.227427e+003,2.172585e+001
2.228392e+003,2.425510e+001
2.229356e+003,2.623616e+001
2.230320e+003,2.743916e+001
2.231284e+003,2.853226e+001
2.232249e+003,2.963826e+001
2.233213e+003,3.005140e+001
2.234177e+003,2.950171e+001
2.235141e+003,2.950711e+001
2.236106e+003,3.136391e+001
2.237070e+003,3.444629e+001
2.238034e+003,3.884847e+001
2.238998e+003,4.315684e+001
2.239963e+003,4.549550e+001
2.240927e+003,4.636031e+001
2.241891e+003,4.565643e+001
2.242855e+003,4.475443e+001
2.243820e+003,4.657030e+001
2.244784e+003,5.079604e+001
2.245748e+003,5.501262e+001
2.246712e+003,5.837376e+001
2.247677e+003,6.113674e+001
2.248641e+003,6.344310e+001
2.249605e+003,6.588039e+001
2.250569e+003,6.939664e+001
2.251533e+003,7.236225e+001
2.252498e+003,7.319791e+001
2.253462e+003,7.276154e+001
2.254426e+003,7.136549e+001
2.255390e+003,6.980294e+001
2.256354e+003,6.946649e+001
2.257319e+003,6.944951e+001
2.258283e+003,6.824969e+001
2.259247e+003,6.555838e+001
2.260211e+003,6.083315e+001
2.261176e+003,5.434237e+001
2.262140e+003,4.961298e+001
2.263104e+003,4.855167e+001
2.264068e+003,4.772006e+001
2.265033e+003,4.527863e+001
2.265997e+003,4.238114e+001
2.266961e+003,3.916262e+001
2.267925e+003,3.635502e+001
2.268890e+003,3.497653e+001
2.269854e+003,3.390151e+001
2.270818e+003,3.202139e+001
2.271782e+003,2.949713e+001
2.272747e+003,2.633665e+001
2.273711e+003,2.302443e+001
2.274675e+003,2.115291e+001
2.275639e+003,2.104017e+001
2.276604e+003,2.077149e+001
2.277568e+003,1.980471e+001
2.278532e+003,1.877694e+001
2.279496e+003,1.737289e+001
2.280460e+003,1.650055e+001
2.281425e+003,1.754650e+001
2.282389e+003,1.794238e+001
2.283353e+003,1.539971e+001
2.284317e+003,1.238596e+001
2.285281e+003,1.125954e+001
2.286246e+003,1.124080e+001
2.287210e+003,1.082668e+001
2.288174e+003,1.010958e+001
2.289138e+003,1.015756e+001
2.290103e+003,1.134335e+001
2.291067e+003,1.144644e+001
2.292031e+003,9.775396e+000
2.292995e+003,8.372006e+000
2.293960e+003,7.254706e+000
2.294924e+003,6.446747e+000
2.295888e+003,6.034311e+000
2.296852e+003,5.802057e+000
2.297817e+003,5.657281e+000
2.298781e+003,5.700284e+000
2.299745e+003,6.238095e+000
2.300709e+003,6.719989e+000
2.301674e+003,6.049814e+000
2.302638e+003,4.484351e+000
2.303602e+003,3.317712e+000
2.304566e+003,2.474429e+000
2.305531e+003,3.154077e+000
2.306495e+003,5.791962e+000
2.307459e+003,6.745984e+000
2.308423e+003,5.467099e+000
2.309387e+003,4.300241e+000
2.310352e+003,3.838763e+000
2.311316e+003,3.481674e+000
2.312280e+003,2.934244e+000
2.313244e+003,3.029523e+000
2.314208e+003,4.522317e+000
2.315173e+003,6.015409e+000
2.316137e+003,5.414923e+000
2.317101e+003,3.516406e+000
2.318065e+003,2.158960e+000
2.319030e+003,1.420706e+000
2.319994e+003,1.810941e+000
2.320958e+003,3.048932e+000
2.321922e+003,4.155380e+000
2.322887e+003,4.962576e+000
2.323851e+003,5.297736e+000
2.324815e+003,5.176700e+000
2.325779e+003,4.858514e+000
2.326744e+003,4.464236e+000
2.327708e+003,3.937512e+000
2.328672e+003,3.229230e+000
2.329636e+003,2.287265e+000
2.330601e+003,9.089569e-001
2.331565e+003,-4.258698e-001
2.332529e+003,-1.284430e+000
2.333493e+003,-1.703088e+000
2.334458e+003,-1.611188e+000
2.335422e+003,-1.204623e+000
2.336386e+003,-5.547974e-001
2.337350e+003,1.395874e-001
2.338314e+003,7.815796e-001
2.339279e+003,1.135913e+000
2.340243e+003,4.717712e-001
2.341207e+003,-1.163818e+000
2.342171e+003,-2.192654e+000
2.343135e+003,-1.988864e+000
2.344100e+003,-1.772440e+000
2.345064e+003,-2.118750e+000
2.346028e+003,-2.358926e+000
2.346992e+003,-1.961130e+000
2.347957e+003,-1.757083e+000
2.348921e+003,-2.250775e+000
2.349885e+003,-2.999008e+000
2.350849e+003,-4.166376e+000
2.351814e+003,-5.052063e+000
2.352778e+003,-4.340189e+000
2.353742e+003,-2.853348e+000
2.354706e+003,-2.699908e+000
2.355671e+003,-3.733380e+000
2.356635e+003,-4.304733e+000
2.357599e+003,-4.444788e+000
2.358563e+003,-3.957797e+000
2.359528e+003,-2.358188e+000
2.360492e+003,-1.919962e+000
2.361456e+003,-3.275641e+000
2.362420e+003,-4.066266e+000
2.363385e+003,-3.439538e+000
2.364349e+003,-3.156906e+000
2.365313e+003,-4.270905e+000
2.366277e+003,-5.112106e+000
2.367241e+003,-4.033731e+000
2.368206e+003,-2.596655e+000
2.369170e+003,-3.462933e+000
2.370134e+003,-5.630765e+000
2.371098e+003,-6.054828e+000
2.372063e+003,-5.229095e+000
2.373027e+003,-5.291043e+000
2.373991e+003,-5.899777e+000
2.374955e+003,-5.647064e+000
2.375919e+003,-4.636691e+000
2.376884e+003,-3.694534e+000
2.377848e+003,-3.046524e+000
2.378812e+003,-2.557349e+000
2.379776e+003,-2.226947e+000
2.380741e+003,-2.570889e+000
2.381705e+003,-3.908444e+000
2.382669e+003,-4.808301e+000
2.383633e+003,-3.843845e+000
2.384598e+003,-2.677002e+000
2.385562e+003,-2.721368e+000
2.386526e+003,-3.052817e+000
2.387490e+003,-3.133725e+000
2.388455e+003,-2.825790e+000
2.389419e+003,-1.231592e+000
2.390383e+003,1.893768e-001
2.391347e+003,-9.958954e-001
2.392312e+003,-3.710425e+000
2.393276e+003,-5.395758e+000
2.394240e+003,-5.825213e+000
2.395204e+003,-5.551801e+000
2.396168e+003,-4.385483e+000
2.397133e+003,-3.541510e+000
2.398097e+003,-3.367462e+000
2.399061e+003,-2.964841e+000
2.400025e+003,-1.898636e+000
2.400990e+003,-1.520297e+000
2.401954e+003,-2.540720e+000
2.402918e+003,-3.231986e+000
2.403882e+003,-2.648267e+000
2.404846e+003,-2.010953e+000
2.405811e+003,-2.389786e+000
2.406775e+003,-2.784073e+000
2.407739e+003,-1.642902e+000
2.408703e+003,1.878357e-002
2.409668e+003,-9.194092e-001
2.410632e+003,-3.661389e+000
2.411596e+003,-3.870120e+000
2.412560e+003,-2.175433e+000
2.413525e+003,-1.140411e+000
2.414489e+003,-8.306824e-001
2.415453e+003,-6.573273e-001
2.416417e+003,-5.209473e-001
2.417382e+003,-7.870575e-001
2.418346e+003,-1.376382e+000
2.419310e+003,-1.254923e+000
2.420274e+003,-3.054810e-002
2.421239e+003,1.023410e+000
2.422203e+003,1.123175e+000
2.423167e+003,7.813507e-001
2.424131e+003,-1.962921e-001
2.425095e+003,-7.353455e-001
2.426060e+003,5.818970e-001
2.427024e+003,1.767249e+000
2.427988e+003,9.370422e-001
2.428952e+003,-4.074310e-001
2.429917e+003,-7.292846e-001
2.430881e+003,-5.005768e-001
2.431845e+003,-7.876922e-001
2.432809e+003,-1.314978e+000
2.433773e+003,-7.096497e-001
2.434738e+003,1.034412e+000
2.435702e+003,1.938126e+000
2.436666e+003,1.826382e+000
2.437630e+003,1.498544e+000
2.438595e+003,8.101867e-001
2.439559e+003,3.491638e-001
2.440523e+003,1.279327e-001
2.441487e+003,1.095279e+000
2.442452e+003,3.609390e+000
2.443416e+003,5.354211e+000
2.444380e+003,5.152240e+000
2.445344e+003,4.165076e+000
2.446309e+003,3.320065e+000
2.447273e+003,2.878806e+000
2.448237e+003,3.045139e+000
2.449201e+003,4.070810e+000
2.450166e+003,7.792017e+000
2.451130e+003,1.153503e+001
2.452094e+003,1.006157e+001
2.453058e+003,6.234015e+000
2.454022e+003,4.062875e+000
2.454987e+003,3.499811e+000
2.455951e+003,4.090347e+000
2.456915e+003,5.229300e+000
2.457879e+003,6.080167e+000
2.458844e+003,6.427182e+000
2.459808e+003,5.885538e+000
2.460772e+003,4.111392e+000
2.461736e+003,3.479965e+000
2.462700e+003,5.557687e+000
2.463665e+003,6.884641e+000
2.464629e+003,6.853262e+000
2.465593e+003,6.616443e+000
2.466557e+003,6.131033e+000
2.467522e+003,5.856332e+000
2.468486e+003,5.946130e+000
2.469450e+003,6.519745e+000
2.470414e+003,7.845840e+000
2.471379e+003,8.945831e+000
2.472343e+003,8.528168e+000
2.473307e+003,7.502637e+000
2.474271e+003,7.817105e+000
2.475236e+003,9.052179e+000
2.476200e+003,1.017134e+001
2.477164e+003,1.092529e+001
2.478128e+003,9.892713e+000
2.479093e+003,8.133087e+000
2.480057e+003,8.809848e+000
2.481021e+003,1.118950e+001
2.481985e+003,1.245552e+001
2.482949e+003,1.243585e+001
2.483914e+003,1.286117e+001
2.484878e+003,1.404976e+001
2.485842e+003,1.432890e+001
2.486806e+003,1.281161e+001
2.487771e+003,1.204774e+001
2.488735e+003,1.347499e+001
2.489699e+003,1.496616e+001
2.490663e+003,1.668251e+001
2.491627e+003,1.723343e+001
2.492592e+003,1.560423e+001
2.493556e+003,1.356129e+001
2.494520e+003,1.147580e+001
2.495484e+003,1.016162e+001
2.496449e+003,1.030793e+001
2.497413e+003,1.155470e+001
2.498377e+003,1.362693e+001
2.499341e+003,1.574669e+001
2.500306e+003,1.548711e+001
2.501270e+003,1.365588e+001
2.502234e+003,1.418558e+001
2.503198e+003,1.630615e+001
2.504163e+003,1.739493e+001
2.505127e+003,1.749662e+001
2.506091e+003,1.713707e+001
2.507055e+003,1.657596e+001
2.508020e+003,1.598548e+001
2.508984e+003,1.560916e+001
2.509948e+003,1.608918e+001
2.510912e+003,1.752282e+001
2.511876e+003,1.895028e+001
2.512841e+003,2.012282e+001
2.513805e+003,2.087519e+001
2.514769e+003,2.036698e+001
2.515733e+003,2.064180e+001
2.516698e+003,2.321611e+001
2.517662e+003,2.509985e+001
2.518626e+003,2.532415e+001
2.519590e+003,2.489362e+001
2.520554e+003,2.376265e+001
2.521519e+003,2.345970e+001
2.522483e+003,2.547508e+001
2.523447e+003,2.841865e+001
2.524411e+003,3.038431e+001
2.525376e+003,3.159500e+001
2.526340e+003,3.227039e+001
2.527304e+003,3.264627e+001
2.528268e+003,3.368372e+001
2.529233e+003,3.512195e+001
2.530197e+003,3.613443e+001
2.531161e+003,3.707651e+001
2.532125e+003,3.897300e+001
2.533090e+003,4.145304e+001
2.534054e+003,4.357632e+001
2.535018e+003,4.515973e+001
2.535982e+003,4.610056e+001
2.536947e+003,4.643562e+001
2.537911e+003,4.727757e+001
2.538875e+003,4.898555e+001
2.539839e+003,5.088401e+001
2.540803e+003,5.378471e+001
2.541768e+003,5.508527e+001
2.542732e+003,5.348375e+001
2.543696e+003,5.284706e+001
2.544660e+003,5.433801e+001
2.545625e+003,5.689259e+001
2.546589e+003,6.019170e+001
2.547553e+003,6.252027e+001
2.548517e+003,6.246397e+001
2.549482e+003,6.146236e+001
2.550446e+003,6.112934e+001
2.551410e+003,6.135538e+001
2.552374e+003,6.246192e+001
2.553339e+003,6.345647e+001
2.554303e+003,6.283913e+001
2.555267e+003,6.137181e+001
2.556231e+003,5.977756e+001
2.557196e+003,5.814481e+001
2.558160e+003,5.616201e+001
2.559124e+003,5.434851e+001
2.560088e+003,5.387797e+001
2.561052e+003,5.437727e+001
2.562017e+003,5.429887e+001
2.562981e+003,5.347989e+001
2.563945e+003,5.198785e+001
2.564909e+003,4.970381e+001
2.565874e+003,4.721106e+001
2.566838e+003,4.443393e+001
2.567802e+003,4.247483e+001
2.568766e+003,4.144239e+001
2.569730e+003,4.086953e+001
2.570695e+003,4.046099e+001
2.571659e+003,3.800431e+001
2.572623e+003,3.328156e+001
2.573587e+003,3.080499e+001
2.574552e+003,3.281835e+001
2.575516e+003,3.451091e+001
2.576480e+003,3.250767e+001
2.577444e+003,2.961608e+001
2.578409e+003,2.696964e+001
2.579373e+003,2.481876e+001
2.580337e+003,2.324658e+001
2.581301e+003,2.246960e+001
2.582266e+003,2.349656e+001
2.583230e+003,2.435746e+001
2.584194e+003,2.366044e+001
2.585158e+003,2.209460e+001
2.586123e+003,2.000269e+001
2.587087e+003,1.838140e+001
2.588051e+003,1.912242e+001
2.589015e+003,2.111196e+001
2.589979e+003,2.076711e+001
2.590944e+003,1.870386e+001
2.591908e+003,1.723790e+001
2.592872e+003,1.617037e+001
2.593836e+003,1.484858e+001
2.594801e+003,1.364727e+001
2.595765e+003,1.403162e+001
2.596729e+003,1.500719e+001
2.597693e+003,1.353945e+001
2.598657e+003,1.015518e+001
2.599622e+003,8.643744e+000
2.600586e+003,9.659106e+000
2.601550e+003,9.988141e+000
2.602514e+003,8.929285e+000
2.603479e+003,7.702975e+000
2.604443e+003,5.904635e+000
2.605407e+003,5.330670e+000
2.606371e+003,6.439392e+000
2.607336e+003,7.007120e+000
2.608300e+003,6.527414e+000
2.609264e+003,6.219534e+000
2.610228e+003,6.480567e+000
2.611193e+003,6.160901e+000
2.612157e+003,4.652881e+000
2.613121e+003,3.368552e+000
2.614085e+003,3.454636e+000
2.615050e+003,3.868826e+000
2.616014e+003,4.030829e+000
2.616978e+003,3.775519e+000
2.617942e+003,2.362021e+000
2.618906e+003,1.392932e+000
2.619871e+003,2.286017e+000
2.620835e+003,3.476340e+000
2.621799e+003,3.943823e+000
2.622763e+003,3.907825e+000
2.623728e+003,3.408188e+000
2.624692e+003,2.974219e+000
2.625656e+003,3.529593e+000
2.626620e+003,4.499619e+000
2.627584e+003,4.177460e+000
2.628549e+003,3.093793e+000
2.629513e+003,3.357245e+000
2.630477e+003,4.063556e+000
2.631441e+003,2.685870e+000
2.632406e+003,5.138885e-001
2.633370e+003,2.001373e-001
2.634334e+003,1.293805e+000
2.635298e+003,2.708905e+000
2.636263e+003,3.888464e+000
2.637227e+003,3.773837e+000
2.638191e+003,2.369653e+000
2.639155e+003,1.759695e+000
2.640120e+003,2.221469e+000
2.641084e+003,2.000113e+000
2.642048e+003,6.949310e-001
2.643012e+003,1.378595e+000
2.643977e+003,4.262662e+000
2.644941e+003,5.477554e+000
2.645905e+003,4.567429e+000
2.646869e+003,3.492795e+000
2.647833e+003,2.843115e+000
2.648798e+003,2.252701e+000
2.649762e+003,1.592853e+000
2.650726e+003,1.160306e+000
2.651690e+003,1.205365e+000
2.652655e+003,8.941895e-001
2.653619e+003,-1.064902e+000
2.654583e+003,-1.921671e+000
2.655547e+003,-1.367065e-001
2.656511e+003,1.753992e+000
2.657476e+003,3.521493e+000
2.658440e+003,4.104684e+000
2.659404e+003,2.928433e+000
2.660368e+003,1.015274e+000
2.661333e+003,-1.026041e+000
2.662297e+003,-2.116675e+000
2.663261e+003,-1.138315e+000
2.664225e+003,5.678223e-001
2.665190e+003,1.759964e+000
2.666154e+003,2.078122e+000
2.667118e+003,2.340820e-001
2.668082e+003,-1.603781e+000
2.669047e+003,-1.215811e+000
2.670011e+003,-2.301514e-001
2.670975e+003,-4.322723e-001
2.671939e+003,-6.332763e-001
2.672904e+003,1.042065e+000
2.673868e+003,3.119556e+000
2.674832e+003,3.584128e+000
2.675796e+003,2.678448e+000
2.676760e+003,7.738098e-001
2.677725e+003,-1.641724e+000
2.678689e+003,-2.513165e+000
2.679653e+003,-2.177145e+000
2.680617e+003,-1.392255e+000
2.681582e+003,-4.195007e-001
2.682546e+003,5.241424e-001
2.683510e+003,1.265082e+000
2.684474e+003,1.450900e+000
2.685438e+003,1.204443e+000
2.686403e+003,7.440918e-001
2.687367e+003,2.512024e-001
2.688331e+003,7.249176e-001
2.689295e+003,2.258282e+000
2.690260e+003,2.420737e+000
2.691224e+003,9.875885e-001
2.692188e+003,1.385498e-003
2.693152e+003,-5.222870e-001
2.694117e+003,-5.411957e-001
2.695081e+003,-1.708496e-001
2.696045e+003,-1.002502e-001
2.697009e+003,-2.962036e-001
2.697974e+003,8.284607e-002
2.698938e+003,1.068665e+000
2.699902e+003,1.488333e+000
2.700866e+003,9.296692e-001
2.701831e+003,3.340119e-001
2.702795e+003,-1.833496e-001
2.703759e+003,-4.797974e-001
2.704723e+003,-7.900421e-001
2.705688e+003,9.034729e-002
2.706652e+003,2.659219e+000
2.707616e+003,3.640500e+000
2.708580e+003,2.255576e+000
2.709544e+003,3.358459e-001
2.710509e+003,-1.271521e+000
2.711473e+003,-2.327847e+000
2.712437e+003,-2.714270e+000
2.713401e+003,-2.293109e+000
2.714365e+003,-5.492432e-001
2.715330e+003,9.211151e-001
2.716294e+003,1.458414e+000
2.717258e+003,1.303302e+000
2.718222e+003,-1.520142e-001
2.719187e+003,-1.246356e+000
2.720151e+003,-1.600147e+000
2.721115e+003,-1.063483e+000
2.722079e+003,5.639251e-001
2.723044e+003,1.971542e+000
2.724008e+003,2.180545e+000
2.724972e+003,1.629599e+000
2.725936e+003,5.833923e-001
2.726901e+003,-2.007355e-001
2.727865e+003,5.133697e-001
2.728829e+003,1.358255e+000
2.729793e+003,1.145184e+000
2.730758e+003,7.198669e-001
2.731722e+003,4.492676e-001
2.732686e+003,4.606598e-001
2.733650e+003,9.750916e-001
2.734615e+003,1.582391e+000
2.735579e+003,2.057242e+000
2.736543e+003,1.932690e+000
2.737507e+003,4.589233e-001
2.738471e+003,-1.441525e+000
2.739436e+003,-2.159610e+000
2.740400e+003,-2.011935e+000
2.741364e+003,-9.776764e-001
2.742328e+003,5.015564e-002
2.743292e+003,-5.008545e-002
2.744257e+003,-6.605469e-001
2.745221e+003,-1.371442e+000
2.746185e+003,-1.882254e+000
2.747149e+003,-1.892191e+000
2.748114e+003,-1.505994e+000
2.749078e+003,-7.752503e-001
2.750042e+003,1.168732e-001
2.751006e+003,7.738830e-001
2.751971e+003,9.964081e-001
2.752935e+003,-2.960114e-001
2.753899e+003,-2.257486e+000
2.754863e+003,-3.326712e+000
2.755828e+003,-3.429178e+000
2.756792e+003,-1.765225e+000
2.757756e+003,1.865692e-001
2.758720e+003,-2.105011e-001
2.759685e+003,-1.867215e+000
2.760649e+003,-1.629529e+000
2.761613e+003,-3.432007e-001
2.762577e+003,-1.067520e+000
2.763542e+003,-3.342923e+000
2.764506e+003,-3.407492e+000
2.765470e+003,-1.686957e+000
2.766434e+003,2.002106e-001
2.767398e+003,1.578418e+000
2.768363e+003,-8.296814e-002
2.769327e+003,-3.050375e+000
2.770291e+003,-3.249918e+000
2.771255e+003,-1.491571e+000
2.772219e+003,-8.358948e-001
2.773184e+003,-1.420288e+000
2.774148e+003,-1.866251e+000
2.775112e+003,-2.115820e+000
2.776076e+003,-1.684253e+000
2.777041e+003,-5.395508e-001
2.778005e+003,-1.396845e+000
2.778969e+003,-3.531390e+000
2.779933e+003,-2.268643e+000
2.780898e+003,1.056690e+000
2.781862e+003,1.226120e+000
2.782826e+003,-9.512756e-001
2.783790e+003,-1.085556e+000
2.784755e+003,7.851166e-001
2.785719e+003,1.169022e+000
2.786683e+003,-4.205902e-001
2.787647e+003,-1.613614e+000
2.788612e+003,-2.506372e+000
2.789576e+003,-1.873523e+000
2.790540e+003,2.046692e-001
2.791504e+003,1.212631e+000
2.792469e+003,1.192920e+000
2.793433e+003,1.052130e+000
2.794397e+003,8.911316e-001
2.795361e+003,3.518524e-001
2.796325e+003,-3.705383e-001
2.797290e+003,-1.683441e-001
2.798254e+003,1.063013e+000
2.799218e+003,1.060312e+000
2.800182e+003,-7.704254e-001
2.801146e+003,-7.688934e-001
2.802111e+003,1.363141e+000
2.803075e+003,2.437134e+000
2.804039e+003,2.310550e+000
2.805003e+003,1.529129e+000
2.805968e+003,2.674713e-001
2.806932e+003,-1.475400e+000
2.807896e+003,-3.167169e+000
2.808860e+003,-3.123016e+000
2.809825e+003,-1.322827e+000
2.810789e+003,-5.138733e-001
2.811753e+003,-1.445071e+000
2.812717e+003,-2.117557e+000
2.813682e+003,-2.651883e+000
2.814646e+003,-1.864972e+000
2.815610e+003,1.962799e-001
2.816574e+003,5.440338e-001
2.817539e+003,-6.797455e-001
2.818503e+003,-1.065436e+000
2.819467e+003,-4.467377e-001
2.820431e+003,-6.528626e-002
2.821396e+003,-1.491852e-001
2.822360e+003,-3.357178e-001
2.823324e+003,-6.303040e-001
2.824288e+003,5.104980e-001
2.825252e+003,4.237036e+000
2.826217e+003,4.397128e+000
2.827181e+003,8.793091e-001
2.828145e+003,-7.805725e-001
2.829109e+003,-4.304504e-001
2.830073e+003,-2.672516e-001
2.831038e+003,-6.001831e-001
2.832002e+003,-1.017920e+000
2.832966e+003,-1.276346e+000
2.833930e+003,-8.358948e-001
2.834895e+003,4.108856e-001
2.835859e+003,1.310077e+000
2.836823e+003,1.889218e+000
2.837787e+003,1.319669e+000
2.838752e+003,-5.219177e-001
2.839716e+003,-9.448975e-001
2.840680e+003,3.634644e-003
2.841644e+003,1.187228e+000
2.842609e+003,2.036987e+000
2.843573e+003,1.072678e+000
2.844537e+003,-1.165164e+000
2.845501e+003,-1.818628e+000
2.846466e+003,-4.716705e-001
2.847430e+003,2.539673e-001
2.848394e+003,9.507751e-002
2.849358e+003,-7.853791e-001
2.850323e+003,-2.513010e+000
2.851287e+003,-1.722778e+000
2.852251e+003,1.105624e+000
2.853215e+003,2.192035e+000
2.854179e+003,1.723480e+000
2.855144e+003,1.981174e+000
2.856108e+003,2.836661e+000
2.857072e+003,2.305899e+000
2.858036e+003,4.131531e-001
2.859000e+003,-1.704437e-001
2.859965e+003,7.232544e-001
2.860929e+003,1.076755e+000
2.861893e+003,8.434662e-001
2.862857e+003,1.076816e+000
2.863822e+003,1.614008e+000
2.864786e+003,1.041824e+000
2.865750e+003,-3.980713e-002
2.866714e+003,5.155243e-001
2.867679e+003,2.131433e+000
2.868643e+003,2.920624e+000
2.869607e+003,2.681879e+000
2.870571e+003,1.668396e+000
2.871536e+003,1.000458e-001
2.872500e+003,-5.171661e-001
2.873464e+003,-2.609619e-001
2.874428e+003,-2.111450e-001
2.875393e+003,-3.163666e-001
2.876357e+003,-4.886414e-001
2.877321e+003,-6.508759e-001
2.878285e+003,-7.432556e-001
2.879250e+003,-7.390655e-001
2.880214e+003,-5.085205e-001
2.881178e+003,-1.724182e-001
2.882142e+003,-1.179932e-001
2.883106e+003,-2.064392e-001
2.884071e+003,3.750915e-002
2.885035e+003,6.237946e-001
2.885999e+003,1.999673e+000
2.886963e+003,3.492111e+000
2.887927e+003,3.229718e+000
2.888892e+003,2.183032e+000
2.889856e+003,1.763528e+000
2.890820e+003,1.828891e+000
2.891784e+003,2.157080e+000
2.892749e+003,2.435034e+000
2.893713e+003,2.263077e+000
2.894677e+003,1.732706e+000
2.895641e+003,8.996674e-001
2.896606e+003,7.698669e-002
2.897570e+003,2.594757e-001
2.898534e+003,9.736267e-001
2.899498e+003,1.455502e+000
2.900463e+003,1.966766e+000
2.901427e+003,3.491821e+000
2.902391e+003,4.556430e+000
2.903355e+003,3.115018e+000
2.904320e+003,9.706879e-001
2.905284e+003,-1.971252e-001
2.906248e+003,-4.837829e-001
2.907212e+003,1.144135e-001
2.908177e+003,1.124585e+000
2.909141e+003,2.180060e+000
2.910105e+003,2.648282e+000
2.911069e+003,9.008148e-001
2.912033e+003,-5.169891e-001
2.912998e+003,1.346079e+000
2.913962e+003,2.873941e+000
2.914926e+003,1.738889e+000
2.915890e+003,-2.273560e-002
2.916854e+003,-9.907166e-001
2.917819e+003,-1.300882e+000
2.918783e+003,-1.088062e+000
2.919747e+003,-3.818268e-001
2.920711e+003,1.497119e+000
2.921676e+003,2.813550e+000
2.922640e+003,2.227875e+000
2.923604e+003,1.121094e+000
2.924568e+003,-3.262451e-001
2.925533e+003,-1.287860e+000
2.926497e+003,-1.512662e+000
2.927461e+003,-9.569305e-001
2.928425e+003,5.015534e-001
2.929390e+003,2.245178e-002
2.930354e+003,-5.116110e+000
2.931318e+003,-8.397158e+000
2.932282e+003,-3.618515e+000
2.933247e+003,2.146637e-001
2.934211e+003,1.035794e+000
2.935175e+003,1.269730e+000
2.936139e+003,6.147522e-001
2.937104e+003,3.695526e-001
2.938068e+003,8.559815e-001
2.939032e+003,1.349765e+000
2.939996e+003,1.571857e+000
2.940960e+003,1.630270e+000
2.941925e+003,1.551575e+000
2.942889e+003,1.055756e+000
2.943853e+003,-4.102692e-001
2.944817e+003,-4.126404e-001
2.945781e+003,1.684912e+000
2.946746e+003,1.342096e+000
2.947710e+003,-1.369324e+000
2.948674e+003,-1.569263e+000
2.949638e+003,5.531586e-001
2.950603e+003,1.494843e+000
2.951567e+003,8.356994e-001
2.952531e+003,-4.624451e-001
2.953495e+003,-1.841928e+000
2.954460e+003,-5.501709e-002
2.955424e+003,4.931970e+000
2.956388e+003,4.830215e+000
2.957352e+003,3.588043e-001
2.958317e+003,-1.741425e+000
2.959281e+003,-1.635001e+000
2.960245e+003,6.850067e-001
2.961209e+003,3.402194e+000
2.962174e+003,2.979474e+000
2.963138e+003,6.867493e-001
2.964102e+003,-6.774902e-002
2.965066e+003,2.483429e-001
2.966031e+003,3.311371e-001
2.966995e+003,4.360962e-001
2.967959e+003,1.920303e+000
2.968923e+003,3.577271e+000
2.969887e+003,2.480325e+000
2.970852e+003,4.411469e-001
2.971816e+003,-8.392975e-001
2.972780e+003,-1.251132e+000
2.973744e+003,-5.162689e-001
2.974708e+003,6.853668e-001
2.975673e+003,1.965515e+000
2.976637e+003,2.813730e+000
2.977601e+003,2.536450e+000
2.978565e+003,1.910278e+000
2.979530e+003,2.145886e+000
2.980494e+003,2.313983e+000
2.981458e+003,1.542432e+000
2.982422e+003,6.499389e-001
2.983387e+003,-1.579346e-001
2.984351e+003,-6.673401e-001
2.985315e+003,-8.314789e-001
2.986279e+003,-3.581848e-002
2.987244e+003,1.947900e+000
2.988208e+003,3.075387e+000
2.989172e+003,1.996146e+000
2.990136e+003,7.326080e-001
2.991101e+003,5.301300e-001
2.992065e+003,2.378113e-001
2.993029e+003,-1.002380e+000
2.993993e+003,-2.252502e-001
2.994958e+003,3.034134e+000
2.995922e+003,3.890253e+000
2.996886e+003,1.942810e+000
2.997850e+003,1.426984e+000
2.998814e+003,2.976398e+000
2.999779e+003,3.192587e+000
3.000743e+003,1.157791e+000
3.001707e+003,1.487274e-001
3.002671e+003,5.971740e-001
3.003635e+003,8.705841e-001
3.004600e+003,9.591583e-001
3.005564e+003,8.430420e-001
3.006528e+003,5.799347e-001
3.007492e+003,1.100708e-001
3.008457e+003,-2.071106e-001
3.009421e+003,6.583496e-001
3.010385e+003,2.100784e+000
3.011349e+003,2.530023e+000
3.012314e+003,2.030890e+000
3.013278e+003,6.070740e-001
3.014242e+003,-1.104245e+000
3.015206e+003,-6.953186e-001
3.016171e+003,6.290558e-001
3.017135e+003,9.967285e-001
3.018099e+003,9.253937e-001
3.019063e+003,6.907318e-001
3.020028e+003,8.377625e-001
3.020992e+003,2.036694e+000
3.021956e+003,2.917306e+000
3.022920e+003,2.254611e+000
3.023885e+003,9.037140e-001
3.024849e+003,-3.387116e-001
3.025813e+003,-1.204807e+000
3.026777e+003,-1.286090e+000
3.027741e+003,-1.165860e+000
3.028706e+003,-1.085779e+000
3.029670e+003,-8.934418e-001
3.030634e+003,-4.784760e-001
3.031598e+003,-4.178802e-001
3.032563e+003,-8.666229e-001
3.033527e+003,-7.918823e-001
3.034491e+003,1.930328e-001
3.035455e+003,1.041714e+000
3.036420e+003,1.286383e+000
3.037384e+003,1.451053e+000
3.038348e+003,1.744421e+000
3.039312e+003,1.391034e+000
3.040277e+003,3.979065e-001
3.041241e+003,-4.459534e-002
3.042205e+003,1.901855e-001
3.043169e+003,1.595206e+000
3.044134e+003,3.395386e+000
3.045098e+003,3.085486e+000
3.046062e+003,1.044763e+000
3.047026e+003,7.318603e-001
3.047990e+003,1.678595e+000
3.048955e+003,5.518005e-001
3.049919e+003,-1.881561e+000
3.050883e+003,-2.338541e+000
3.051847e+003,-1.570795e+000
3.052812e+003,-2.934998e-001
3.053776e+003,8.953247e-001
3.054740e+003,1.191385e+000
3.055704e+003,1.267395e+000
3.056668e+003,1.933661e+000
3.057633e+003,2.221942e+000
3.058597e+003,9.307190e-001
3.059561e+003,-4.574982e-001
3.060525e+003,4.253418e-001
3.061490e+003,1.156305e+000
3.062454e+003,-1.125153e+000
3.063418e+003,-2.392868e+000
3.064382e+003,-7.586120e-001
3.065347e+003,1.118149e+000
3.066311e+003,2.569879e+000
3.067275e+003,2.170569e+000
3.068239e+003,-3.000061e-001
3.069204e+003,-1.923290e+000
3.070168e+003,-1.424692e+000
3.071132e+003,-7.361267e-001
3.072096e+003,-3.926697e-001
3.073061e+003,-8.007202e-002
3.074025e+003,2.557770e-001
3.074989e+003,7.724915e-002
3.075953e+003,-5.005981e-001
3.076917e+003,-7.690643e-001
3.077882e+003,-6.405670e-001
3.078846e+003,1.877625e-001
3.079810e+003,1.215006e+000
3.080774e+003,5.091034e-001
3.081739e+003,-9.839264e-001
3.082703e+003,-4.751587e-002
3.083667e+003,2.162045e+000
3.084631e+003,1.458688e+000
3.085595e+003,-2.911255e-001
3.086560e+003,-9.848328e-002
3.087524e+003,7.012787e-001
3.088488e+003,1.060614e+000
3.089452e+003,7.382995e-001
3.090417e+003,-5.229828e-001
3.091381e+003,-1.726552e+000
3.092345e+003,-2.103497e+000
3.093309e+003,-2.042360e+000
3.094274e+003,-1.878155e+000
3.095238e+003,-1.474301e+000
3.096202e+003,-6.081268e-001
3.097166e+003,4.692871e-001
3.098131e+003,2.246652e+000
3.099095e+003,1.346191e+000
3.100059e+003,-2.504939e+000
3.101023e+003,-3.778465e+000
3.101988e+003,-1.736169e+000
3.102952e+003,-1.371155e-001
3.103916e+003,-6.734009e-002
3.104880e+003,-6.369781e-001
3.105844e+003,-1.684393e+000
3.106809e+003,-2.093219e+000
3.107773e+003,-1.942859e+000
3.108737e+003,-2.334030e+000
3.109701e+003,-2.896762e+000
3.110666e+003,-2.530624e+000
3.111630e+003,-1.693385e+000
3.112594e+003,-9.205796e-001
3.113558e+003,-6.594192e-001
3.114522e+003,-1.532909e+000
3.115487e+003,-2.495726e+000
3.116451e+003,-1.976865e+000
3.117415e+003,-9.190384e-001
3.118379e+003,-5.756210e-001
3.119344e+003,-4.772614e-001
3.120308e+003,-2.567963e-001
3.121272e+003,-2.900055e-001
3.122236e+003,-7.629684e-001
3.123201e+003,-1.206082e+000
3.124165e+003,-1.451643e+000
3.125129e+003,-7.061859e-001
3.126093e+003,1.105411e+000
3.127058e+003,1.352850e+000
3.128022e+003,-1.456178e+000
3.128986e+003,-1.842937e+000
3.129950e+003,2.120770e+000
3.130915e+003,2.949689e+000
3.131879e+003,9.626251e-001
3.132843e+003,-9.886566e-001
3.133807e+003,-2.137364e+000
3.134771e+003,-4.494049e-001
3.135736e+003,2.456778e+000
3.136700e+003,2.735153e+000
3.137664e+003,1.257193e+000
3.138628e+003,2.638245e-002
3.139593e+003,-9.973511e-001
3.140557e+003,-2.187743e+000
3.141521e+003,-2.856172e+000
3.142485e+003,-9.579986e-001
3.143449e+003,6.329803e-001
3.144414e+003,-7.225769e-001
3.145378e+003,-2.696153e+000
3.146342e+003,-4.571641e+000
3.147306e+003,-5.205724e+000
3.148271e+003,-4.106694e+000
3.149235e+003,-2.272395e+000
3.150199e+003,-1.949036e-001
3.151163e+003,9.484375e-001
3.152128e+003,6.344574e-001
3.153092e+003,-1.093645e+000
3.154056e+003,-4.567243e+000
3.155020e+003,-4.752313e+000
3.155985e+003,-2.186046e+000
3.156949e+003,-5.959854e-001
3.157913e+003,-2.830521e-001
3.158877e+003,-7.610687e-001
3.159842e+003,-1.534727e+000
3.160806e+003,-1.632343e+000
3.161770e+003,-1.196233e+000
3.162734e+003,-4.737961e-001
3.163698e+003,2.275650e-001
3.164663e+003,9.135894e-002
3.165627e+003,-2.977020e-001
3.166591e+003,-3.815002e-001
3.167555e+003,-3.603210e-001
3.168520e+003,-2.860519e-001
3.169484e+003,-5.715805e-001
3.170448e+003,-1.402586e+000
3.171412e+003,-1.601875e+000
3.172376e+003,-4.851685e-001
3.173341e+003,3.197891e-001
3.174305e+003,-1.824631e-001
3.175269e+003,-5.874283e-001
3.176233e+003,-6.799439e-001
3.177198e+003,-1.102902e+000
3.178162e+003,-1.828120e+000
3.179126e+003,-2.556468e+000
3.180090e+003,-3.034924e+000
3.181055e+003,-2.642857e+000
3.182019e+003,-1.684637e+000
3.182983e+003,-1.091516e+000
3.183947e+003,-7.777985e-001
3.184912e+003,-4.846420e-001
3.185876e+003,-2.251801e-001
3.186840e+003,1.417053e-001
3.187804e+003,2.173660e-001
3.188769e+003,-7.217072e-001
3.189733e+003,-1.659303e+000
3.190697e+003,-2.234018e+000
3.191661e+003,-1.915747e+000
3.192625e+003,-4.927063e-001
3.193590e+003,-2.190247e-001
3.194554e+003,-2.210559e+000
3.195518e+003,-4.444613e+000
3.196482e+003,-6.603652e+000
3.197447e+003,-5.523206e+000
3.198411e+003,-3.354141e-001
3.199375e+003,1.978860e+000
3.200339e+003,1.698328e+000
3.201303e+003,1.985318e+000
3.202268e+003,2.473029e+000
3.203232e+003,9.702331e-001
3.204196e+003,-1.465094e+000
3.205160e+003,-2.380484e+000
3.206125e+003,-2.033278e+000
3.207089e+003,-6.157807e-001
3.208053e+003,7.388458e-001
3.209017e+003,-4.860519e-001
3.209982e+003,-1.961470e+000
3.210946e+003,-1.643301e+000
3.211910e+003,-1.122101e+000
3.212874e+003,-1.073732e+000
3.213839e+003,-4.850968e-001
3.214803e+003,8.848084e-001
3.215767e+003,1.870297e+000
3.216731e+003,1.990997e+000
3.217696e+003,1.332378e+000
3.218660e+003,-3.737289e-001
3.219624e+003,-4.717011e-001
3.220588e+003,1.117366e+000
3.221552e+003,7.151596e-001
3.222517e+003,-9.318039e-001
3.223481e+003,-1.606346e+000
3.224445e+003,-1.644415e+000
3.225409e+003,-1.762347e+000
3.226374e+003,-1.963487e+000
3.227338e+003,-2.282457e+000
3.228302e+003,-2.190010e+000
3.229266e+003,-8.519089e-001
3.230230e+003,3.919983e-001
3.231195e+003,-4.954300e-001
3.232159e+003,-9.351807e-001
3.233123e+003,9.512237e-001
3.234087e+003,1.673904e+000
3.235052e+003,7.044266e-001
3.236016e+003,7.421418e-002
3.236980e+003,1.185364e-001
3.237944e+003,-3.297653e-001
3.238909e+003,-1.387198e+000
3.239873e+003,-1.562147e+000
3.240837e+003,-9.392929e-001
3.241801e+003,-9.852722e-001
3.242766e+003,-1.504308e+000
3.243730e+003,-1.887692e+000
3.244694e+003,-2.005699e+000
3.245658e+003,-1.106741e+000
3.246623e+003,-7.002274e-001
3.247587e+003,-2.281279e+000
3.248551e+003,-3.914928e+000
3.249515e+003,-4.393733e+000
3.250479e+003,-3.853723e+000
3.251444e+003,-2.241238e+000
3.252408e+003,-8.677200e-001
3.253372e+003,-1.144516e-001
3.254336e+003,-9.158691e-001
3.255301e+003,-3.552943e+000
3.256265e+003,-2.393426e+000
3.257229e+003,1.532129e+000
3.258193e+003,1.551334e+000
3.259157e+003,-1.462158e+000
3.260122e+003,-2.747092e+000
3.261086e+003,-2.475760e+000
3.262050e+003,-2.180789e+000
3.263014e+003,-2.046898e+000
3.263979e+003,-3.033553e+000
3.264943e+003,-3.707887e+000
3.265907e+003,-1.379271e+000
3.266871e+003,4.912430e-001
3.267836e+003,-2.009659e-001
3.268800e+003,-1.262323e+000
3.269764e+003,-2.030776e+000
3.270728e+003,-2.422112e+000
3.271693e+003,-2.424220e+000
3.272657e+003,-2.169418e+000
3.273621e+003,-1.701050e+000
3.274585e+003,-7.491913e-001
3.275550e+003,7.258484e-001
3.276514e+003,1.405815e+000
3.277478e+003,1.343808e+000
3.278442e+003,3.837784e-001
3.279406e+003,-9.717987e-001
3.280371e+003,-2.521774e+000
3.281335e+003,-3.332793e+000
3.282299e+003,-2.602408e+000
3.283263e+003,-1.284540e+000
3.284228e+003,-2.109177e-001
3.285192e+003,5.650406e-001
3.286156e+003,1.269199e+000
3.287120e+003,9.951904e-001
3.288084e+003,-9.386169e-001
3.289049e+003,-1.642325e+000
3.290013e+003,-1.064578e+000
3.290977e+003,-1.717619e+000
3.291941e+003,-3.171986e+000
3.292906e+003,-2.347469e+000
3.293870e+003,-1.352234e-002
3.294834e+003,-7.060242e-002
3.295798e+003,-1.512392e+000
3.296763e+003,-1.769263e+000
3.297727e+003,-1.367465e+000
3.298691e+003,-9.105331e-001
3.299655e+003,-5.050095e-001
3.300620e+003,-2.922913e-001
3.301584e+003,-1.261322e-001
3.302548e+003,2.884064e-002
3.303512e+003,-9.350891e-002
3.304477e+003,-4.026154e-001
3.305441e+003,8.470291e-001
3.306405e+003,4.301056e+000
3.307369e+003,4.594461e+000
3.308333e+003,1.331198e+000
3.309298e+003,1.417122e+000
3.310262e+003,3.533136e+000
3.311226e+003,3.863995e+000
3.312190e+003,3.252405e+000
3.313155e+003,3.024200e+000
3.314119e+003,2.837762e+000
3.315083e+003,2.318727e+000
3.316047e+003,1.917839e+000
3.317011e+003,1.994774e+000
3.317976e+003,2.438817e+000
3.318940e+003,3.525937e+000
3.319904e+003,3.974069e+000
3.320868e+003,3.474545e+000
3.321833e+003,3.218552e+000
3.322797e+003,3.284552e+000
3.323761e+003,3.690543e+000
3.324725e+003,4.152176e+000
3.325690e+003,4.056811e+000
3.326654e+003,3.424878e+000
3.327618e+003,2.426424e+000
3.328582e+003,1.434265e+000
3.329547e+003,1.302264e+000
3.330511e+003,1.408820e+000
3.331475e+003,8.954605e-001
3.332439e+003,5.777069e-001
3.333404e+003,7.969360e-001
3.334368e+003,1.362730e+000
3.335332e+003,2.165382e+000
3.336296e+003,2.159081e+000
3.337260e+003,1.275746e+000
3.338225e+003,1.012021e+000
3.339189e+003,1.562604e+000
3.340153e+003,1.253165e+000
3.341117e+003,2.253082e-001
3.342082e+003,-1.366397e+000
3.343046e+003,-2.514485e+000
3.344010e+003,-6.243164e-001
3.344974e+003,1.136621e+000
3.345938e+003,1.494904e-002
3.346903e+003,-8.833374e-001
3.347867e+003,-1.007431e-001
3.348831e+003,8.996964e-001
3.349795e+003,1.324774e+000
3.350760e+003,1.252452e+000
3.351724e+003,4.482330e-001
3.352688e+003,3.467102e-002
3.353652e+003,6.610565e-002
3.354617e+003,1.491515e+000
3.355581e+003,3.269321e+000
3.356545e+003,3.220438e+000
3.357509e+003,1.868497e+000
3.358474e+003,-3.592377e-002
3.359438e+003,-1.613039e+000
3.360402e+003,-2.095578e+000
3.361366e+003,-1.521448e+000
3.362331e+003,9.544754e-001
3.363295e+003,2.079829e+000
3.364259e+003,-3.567062e-001
3.365223e+003,-7.322006e-001
3.366188e+003,1.040425e+000
3.367152e+003,8.967773e-001
3.368116e+003,-8.797973e-001
3.369080e+003,-1.862787e+000
3.370044e+003,-1.802339e+000
3.371009e+003,-1.216554e+000
3.371973e+003,-5.136963e-001
3.372937e+003,-5.496979e-001
3.373901e+003,-8.445786e-001
3.374865e+003,-9.070266e-001
3.375830e+003,-9.010483e-001
3.376794e+003,-9.776764e-001
3.377758e+003,-5.007218e-001
3.378722e+003,5.228394e-001
3.379687e+003,6.171951e-001
3.380651e+003,-2.651260e-001
3.381615e+003,-3.666199e-001
3.382579e+003,4.214554e-001
3.383544e+003,9.207565e-001
3.384508e+003,1.186446e+000
3.385472e+003,1.450368e+000
3.386436e+003,1.581129e+000
3.387401e+003,1.448114e+000
3.388365e+003,8.749207e-001
3.389329e+003,-3.642929e-001
3.390293e+003,-8.564682e-001
3.391258e+003,-5.982208e-002
3.392222e+003,1.561234e+000
3.393186e+003,3.821161e+000
3.394150e+003,4.540091e+000
3.395115e+003,3.473721e+000
3.396079e+003,3.646408e+000
3.397043e+003,4.475067e+000
3.398007e+003,3.543900e+000
3.398971e+003,2.701920e+000
3.399936e+003,5.425235e+000
3.400900e+003,8.028012e+000
3.401864e+003,8.228851e+000
3.402828e+003,7.380219e+000
3.403792e+003,6.377170e+000
3.404757e+003,5.795700e+000
3.405721e+003,5.820993e+000
3.406685e+003,6.959403e+000
3.407649e+003,9.155176e+000
3.408614e+003,1.077225e+001
3.409578e+003,1.201314e+001
3.410542e+003,1.373966e+001
3.411506e+003,1.549034e+001
3.412471e+003,1.644676e+001
3.413435e+003,1.704890e+001
3.414399e+003,1.769345e+001
3.415363e+003,1.866345e+001
3.416328e+003,2.063401e+001
3.417292e+003,2.187292e+001
3.418256e+003,2.131871e+001
3.419220e+003,2.215383e+001
3.420185e+003,2.423396e+001
3.421149e+003,2.426212e+001
3.422113e+003,2.280258e+001
3.423077e+003,2.234039e+001
3.424042e+003,2.280213e+001
3.425006e+003,2.366032e+001
3.425970e+003,2.407571e+001
3.426934e+003,2.235323e+001
